##TITLE= Sample 014 By ssteindl date Dienstag, November 20 2018
##JCAMP-DX= 4.24
##DATA TYPE= INFRARED SPECTRUM
##ORIGIN= Exported PE Spectrum Data File
##OWNER= Sandra Steindl
##DATE= 18/11/20
##TIME= 16:21:16.00
##SPECTROMETER/DATA SYSTEM= PERKIN-ELMER Frontier FT-IR/NIR IR
##INSTRUMENT PARAMETERS=
  APODIZATION=stark
  DETECTOR=INGAAS
##RESOLUTION= 16.000000
##DELTAX= -2.000000
##XUNITS= 1/CM
##YUNITS= A
##XFACTOR= 1.00
##YFACTOR= 0.00000011920928955078
##FIRSTX= 10000.00
##LASTX= 4000.00
##NPOINTS= 3001
##FIRSTY= 0.231335
##MAXY= 0.607927
##MINY= 0.196214
##XYDATA= (X++(Y..Y))
 10000.000000   1940577   1937758   1934487   1930501   1926506  
  9990.000000   1923355   1921161   1919376   1917588   1915831  
  9980.000000   1914409   1913839   1914700   1917429   1921905  
  9970.000000   1927550   1933411   1938495   1941993   1943457  
  9960.000000   1942917   1940656   1937147   1932703   1927451  
  9950.000000   1921239   1913824   1905076   1895207   1884927  
  9940.000000   1875340   1867798   1863432   1862900   1866029  
  9930.000000   1871876   1878932   1885517   1890299   1892510  
  9920.000000   1892183   1889877   1886547   1883096   1880265  
  9910.000000   1878447   1877811   1878350   1880014   1882707  
  9900.000000   1886252   1890332   1894466   1898096   1900685  
  9890.000000   1901864   1901515   1899778   1897029   1893762  
  9880.000000   1890537   1887888   1886281   1886071   1887378  
  9870.000000   1890091   1893737   1897651   1901020   1903199  
  9860.000000   1903821   1902965   1901075   1898796   1896721  
  9850.000000   1895164   1894064   1893039   1891584   1889301  
  9840.000000   1886080   1882151   1877953   1874006   1870658  
  9830.000000   1868071   1866123   1864587   1863196   1861789  
  9820.000000   1860375   1859069   1858055   1857423   1857109  
  9810.000000   1856828   1856144   1854576   1851836   1847938  
  9800.000000   1843359   1838897   1835526   1834037   1834754  
  9790.000000   1837380   1841012   1844469   1846669   1847048  
  9780.000000   1845757   1843589   1841671   1840978   1841974  
  9770.000000   1844379   1847314   1849613   1850275   1848826  
  9760.000000   1845441   1840893   1836216   1832426   1830205  
  9750.000000   1829788   1830977   1833186   1835648   1837487  
  9740.000000   1837950   1836513   1833053   1827936   1821974  
  9730.000000   1816332   1812227   1810657   1812123   1816468  
  9720.000000   1822940   1830348   1837400   1842960   1846278  
  9710.000000   1847057   1845434   1841895   1837198   1832259  
  9700.000000   1828069   1825493   1825110   1827015   1830737  
  9690.000000   1835345   1839622   1842492   1843228   1841756  
  9680.000000   1838553   1834523   1830653   1827740   1826192  
  9670.000000   1825977   1826713   1827810   1828642   1828679  
  9660.000000   1827588   1825283   1821941   1817964   1813895  
  9650.000000   1810275   1807509   1805737   1804843   1804504  
  9640.000000   1804395   1804323   1804341   1804721   1805774  
  9630.000000   1807687   1810304   1813180   1815675   1817261  
  9620.000000   1817723   1817279   1816491   1815997   1816259  
  9610.000000   1817300   1818708   1819712   1819476   1817332  
  9600.000000   1813035   1806841   1799478   1792000   1785495  
  9590.000000   1780944   1778896   1779515   1782402   1786843  
  9580.000000   1791863   1796560   1800250   1802610   1803657  
  9570.000000   1803549   1802459   1800310   1796905   1791901  
  9560.000000   1785211   1777067   1768215   1759721   1752700  
  9550.000000   1748006   1745920   1746211   1748207   1751190  
  9540.000000   1754561   1758036   1761549   1765120   1768695  
  9530.000000   1772040   1774845   1776789   1777758   1777799  
  9520.000000   1777147   1775997   1774493   1772625   1770383  
  9510.000000   1767829   1765187   1762802   1760967   1759798  
  9500.000000   1759106   1758512   1757635   1756392   1755119  
  9490.000000   1754542   1755433   1758264   1762845   1768359  
  9480.000000   1773576   1777375   1779119   1778921   1777508  
  9470.000000   1775887   1774873   1774733   1775112   1775209  
  9460.000000   1774190   1771508   1767114   1761397   1754968  
  9450.000000   1748457   1742306   1736837   1732266   1728867  
  9440.000000   1726938   1726712   1728183   1730972   1734357  
  9430.000000   1737461   1739540   1740217   1739591   1738115  
  9420.000000   1736444   1735119   1734495   1734605   1735307  
  9410.000000   1736323   1737364   1738144   1738379   1737810  
  9400.000000   1736250   1733725   1730564   1727414   1725093  
  9390.000000   1724282   1725241   1727649   1730681   1733322  
  9380.000000   1734711   1734509   1732957   1730839   1729130  
  9370.000000   1728631   1729667   1731967   1734854   1737463  
  9360.000000   1739066   1739182   1737661   1734630   1730422  
  9350.000000   1725563   1720684   1716507   1713693   1712739  
  9340.000000   1713784   1716538   1720272   1723998   1726733  
  9330.000000   1727808   1727052   1724775   1721629   1718329  
  9320.000000   1715471   1713356   1711990   1711162   1710595  
  9310.000000   1710102   1709657   1709381   1709459   1710045  
  9300.000000   1711160   1712626   1714046   1714901   1714695  
  9290.000000   1713149   1710343   1706766   1703240   1700744  
  9280.000000   1700098   1701648   1705062   1709363   1713272  
  9270.000000   1715558   1715489   1712961   1708544   1703223  
  9260.000000   1698084   1693988   1691386   1690359   1690767  
  9250.000000   1692453   1695277   1699131   1703759   1708743  
  9240.000000   1713427   1717109   1719213   1719496   1718177  
  9230.000000   1715797   1713075   1710532   1708390   1706496  
  9220.000000   1704528   1702181   1699366   1696310   1693468  
  9210.000000   1691382   1690386   1690566   1691663   1693316  
  9200.000000   1695146   1696975   1698815   1700811   1703104  
  9190.000000   1705687   1708349   1710648   1712061   1712098  
  9180.000000   1710533   1707398   1703030   1697946   1692758  
  9170.000000   1688055   1684253   1681614   1680179   1679900  
  9160.000000   1680598   1682077   1684059   1686261   1688376  
  9150.000000   1690098   1691167   1691370   1690647   1689036  
  9140.000000   1686733   1683957   1680969   1677988   1675219  
  9130.000000   1672846   1671040   1669979   1669790   1670522  
  9120.000000   1672033   1674004   1675976   1677486   1678219  
  9110.000000   1678094   1677294   1676174   1675144   1674484  
  9100.000000   1674284   1674430   1674741   1675044   1675253  
  9090.000000   1675374   1675425   1675382   1675102   1674430  
  9080.000000   1673288   1671799   1670292   1669221   1668980  
  9070.000000   1669685   1671062   1672524   1673392   1673158  
  9060.000000   1671699   1669336   1666717   1664539   1663258  
  9050.000000   1662947   1663319   1663914   1664320   1664354  
  9040.000000   1664105   1663823   1663741   1663934   1664288  
  9030.000000   1664573   1664577   1664227   1663632   1663001  
  9020.000000   1662533   1662304   1662245   1662212   1662077  
  9010.000000   1661826   1661543   1661364   1661364   1661496  
  9000.000000   1661601   1661484   1661028   1660252   1659299  
  8990.000000   1658343   1657480   1656670   1655762   1654623  
  8980.000000   1653268   1651918   1650941   1650687   1651305  
  8970.000000   1652617   1654144   1655272   1655528   1654763  
  8960.000000   1653245   1651516   1650186   1649657   1649994  
  8950.000000   1650928   1652011   1652853   1653280   1653398  
  8940.000000   1653494   1653877   1654717   1655984   1657461  
  8930.000000   1658847   1659865   1660331   1660201   1659500  
  8920.000000   1658330   1656806   1655107   1653437   1652020  
  8910.000000   1651026   1650506   1650370   1650391   1650348  
  8900.000000   1650118   1649815   1649747   1650349   1651971  
  8890.000000   1654697   1658249   1662023   1665292   1667399  
  8880.000000   1667990   1667061   1664969   1662253   1659494  
  8870.000000   1657138   1655451   1654513   1654269   1654589  
  8860.000000   1655280   1656149   1656999   1657719   1658285  
  8850.000000   1658812   1659500   1660561   1662107   1664053  
  8840.000000   1666129   1667920   1669057   1669335   1668844  
  8830.000000   1667907   1666990   1666493   1666626   1667338  
  8820.000000   1668365   1669375   1670097   1670464   1670601  
  8810.000000   1670792   1671332   1672446   1674201   1676504  
  8800.000000   1679128   1681758   1684050   1685682   1686408  
  8790.000000   1686119   1684888   1683004   1680915   1679144  
  8780.000000   1678121   1678069   1678913   1680312   1681762  
  8770.000000   1682770   1683015   1682425   1681177   1679586  
  8760.000000   1677989   1676627   1675618   1674976   1674686  
  8750.000000   1674761   1675262   1676282   1677878   1680022  
  8740.000000   1682556   1685211   1687670   1689626   1690883  
  8730.000000   1691342   1691054   1690146   1688844   1687393  
  8720.000000   1686052   1685033   1684492   1684502   1685046  
  8710.000000   1686035   1687319   1688753   1690196   1691570  
  8700.000000   1692839   1694020   1695178   1696391   1697762  
  8690.000000   1699341   1701143   1703075   1704969   1706582  
  8680.000000   1707678   1708101   1707855   1707156   1706370  
  8670.000000   1705938   1706205   1707336   1709239   1711617  
  8660.000000   1714054   1716154   1717656   1718472   1718674  
  8650.000000   1718420   1717881   1717182   1716412   1715649  
  8640.000000   1715015   1714662   1714751   1715392   1716585  
  8630.000000   1718213   1720052   1721863   1723452   1724744  
  8620.000000   1725769   1726628   1727438   1728267   1729137  
  8610.000000   1730019   1730890   1731735   1732570   1733398  
  8600.000000   1734192   1734875   1735338   1735500   1735358  
  8590.000000   1735025   1734717   1734686   1735147   1736181  
  8580.000000   1737708   1739501   1741265   1742734   1743759  
  8570.000000   1744346   1744649   1744904   1745359   1746191  
  8560.000000   1747452   1749075   1750900   1752730   1754398  
  8550.000000   1755808   1756976   1757996   1759002   1760095  
  8540.000000   1761300   1762532   1763621   1764382   1764695  
  8530.000000   1764583   1764226   1763946   1764099   1764964  
  8520.000000   1766621   1768918   1771511   1773953   1775846  
  8510.000000   1776937   1777211   1776850   1776175   1775524  
  8500.000000   1775180   1775297   1775911   1776971   1778402  
  8490.000000   1780129   1782095   1784240   1786478   1788691  
  8480.000000   1790729   1792461   1793819   1794824   1795602  
  8470.000000   1796342   1797252   1798485   1800091   1802010  
  8460.000000   1804086   1806128   1807951   1809447   1810585  
  8450.000000   1811423   1812044   1812554   1813022   1813503  
  8440.000000   1814015   1814577   1815200   1815894   1816635  
  8430.000000   1817368   1817989   1818389   1818455   1818150  
  8420.000000   1817509   1816666   1815784   1815039   1814538  
  8410.000000   1814319   1814334   1814496   1814709   1814904  
  8400.000000   1815030   1815041   1814865   1814411   1813585  
  8390.000000   1812342   1810736   1808937   1807222   1805881  
  8380.000000   1805127   1805013   1805401   1806012   1806502  
  8370.000000   1806613   1806247   1805514   1804664   1803994  
  8360.000000   1803728   1803930   1804490   1805151   1805628  
  8350.000000   1805676   1805206   1804256   1802991   1801615  
  8340.000000   1800322   1799251   1798457   1797950   1797702  
  8330.000000   1797718   1798023   1798681   1799735   1801186  
  8320.000000   1802945   1804820   1806527   1807729   1808129  
  8310.000000   1807537   1805964   1803601   1800807   1798012  
  8300.000000   1795614   1793901   1792971   1792761   1793069  
  8290.000000   1793668   1794341   1794946   1795401   1795668  
  8280.000000   1795724   1795538   1795089   1794361   1793401  
  8270.000000   1792289   1791154   1790120   1789286   1788712  
  8260.000000   1788410   1788373   1788568   1788960   1789488  
  8250.000000   1790049   1790489   1790622   1790274   1789354  
  8240.000000   1787896   1786077   1784168   1782474   1781224  
  8230.000000   1780531   1780337   1780474   1780700   1780801  
  8220.000000   1780622   1780096   1779214   1778001   1776474  
  8210.000000   1774648   1772540   1770207   1767758   1765358  
  8200.000000   1763190   1761421   1760137   1759335   1758902  
  8190.000000   1758651   1758360   1757819   1756880   1755476  
  8180.000000   1753653   1751530   1749300   1747160   1745290  
  8170.000000   1743797   1742705   1741967   1741487   1741178  
  8160.000000   1740978   1740870   1740853   1740917   1741001  
  8150.000000   1740989   1740731   1740089   1739003   1737511  
  8140.000000   1735756   1733921   1732168   1730578   1729128  
  8130.000000   1727730   1726279   1724732   1723132   1721602  
  8120.000000   1720288   1719287   1718592   1718085   1717582  
  8110.000000   1716911   1715989   1714857   1713671   1712628  
  8100.000000   1711902   1711565   1711571   1711764   1711946  
  8090.000000   1711926   1711594   1710920   1709963   1708831  
  8080.000000   1707652   1706551   1705624   1704941   1704526  
  8070.000000   1704368   1704409   1704567   1704743   1704854  
  8060.000000   1704836   1704666   1704339   1703862   1703235  
  8050.000000   1702434   1701437   1700225   1698816   1697270  
  8040.000000   1695676   1694140   1692735   1691505   1690438  
  8030.000000   1689506   1688674   1687934   1687312   1686842  
  8020.000000   1686551   1686411   1686341   1686205   1685865  
  8010.000000   1685212   1684222   1682963   1681599   1680337  
  8000.000000   1679382   1678878   1678864   1679272   1679937  
  7990.000000   1680641   1681167   1681348   1681105   1680454  
  7980.000000   1679495   1678369   1677223   1676163   1675242  
  7970.000000   1674456   1673771   1673150   1672571   1672038  
  7960.000000   1671565   1671168   1670838   1670548   1670261  
  7950.000000   1669946   1669599   1669238   1668906   1668640  
  7940.000000   1668463   1668368   1668336   1668345   1668395  
  7930.000000   1668499   1668691   1668976   1669335   1669698  
  7920.000000   1669973   1670071   1669951   1669644   1669254  
  7910.000000   1668931   1668825   1669049   1669641   1670566  
  7900.000000   1671721   1672967   1674148   1675118   1675756  
  7890.000000   1675981   1675768   1675155   1674248   1673205  
  7880.000000   1672204   1671396   1670864   1670610   1670550  
  7870.000000   1670573   1670565   1670484   1670340   1670213  
  7860.000000   1670185   1670306   1670563   1670873   1671124  
  7850.000000   1671198   1671037   1670635   1670056   1669389  
  7840.000000   1668730   1668150   1667688   1667360   1667159  
  7830.000000   1667078   1667097   1667197   1667350   1667533  
  7820.000000   1667729   1667939   1668173   1668445   1668752  
  7810.000000   1669056   1669298   1669395   1669285   1668939  
  7800.000000   1668383   1667688   1666944   1666236   1665612  
  7790.000000   1665099   1664701   1664433   1664322   1664412  
  7780.000000   1664726   1665237   1665849   1666394   1666679  
  7770.000000   1666535   1665884   1664766   1663339   1661840  
  7760.000000   1660512   1659551   1659044   1658978   1659240  
  7750.000000   1659680   1660144   1660510   1660710   1660716  
  7740.000000   1660537   1660182   1659662   1658970   1658109  
  7730.000000   1657092   1655972   1654847   1653858   1653165  
  7720.000000   1652899   1653129   1653809   1654795   1655849  
  7710.000000   1656718   1657192   1657165   1656663   1655815  
  7700.000000   1654818   1653845   1653013   1652337   1651767  
  7690.000000   1651221   1650647   1650052   1649502   1649099  
  7680.000000   1648918   1648987   1649252   1649617   1649972  
  7670.000000   1650237   1650392   1650459   1650486   1650494  
  7660.000000   1650471   1650356   1650078   1649584   1648886  
  7650.000000   1648057   1647226   1646535   1646095   1645962  
  7640.000000   1646119   1646502   1647021   1647591   1648153  
  7630.000000   1648667   1649113   1649458   1649668   1649695  
  7620.000000   1649510   1649109   1648539   1647890   1647286  
  7610.000000   1646862   1646720   1646920   1647445   1648225  
  7600.000000   1649136   1650037   1650800   1651321   1651555  
  7590.000000   1651497   1651200   1650744   1650231   1649755  
  7580.000000   1649396   1649198   1649180   1649329   1649618  
  7570.000000   1650014   1650481   1650990   1651518   1652039  
  7560.000000   1652532   1652971   1653344   1653645   1653898  
  7550.000000   1654141   1654431   1654813   1655321   1655948  
  7540.000000   1656660   1657394   1658090   1658693   1659183  
  7530.000000   1659566   1659881   1660172   1660487   1660864  
  7520.000000   1661332   1661910   1662618   1663465   1664453  
  7510.000000   1665563   1666761   1667998   1669228   1670412  
  7500.000000   1671537   1672605   1673633   1674630   1675596  
  7490.000000   1676511   1677357   1678119   1678811   1679467  
  7480.000000   1680134   1680852   1681640   1682487   1683363  
  7470.000000   1684247   1685141   1686080   1687130   1688348  
  7460.000000   1689766   1691355   1693039   1694701   1696244  
  7450.000000   1697603   1698789   1699860   1700917   1702053  
  7440.000000   1703335   1704782   1706377   1708083   1709865  
  7430.000000   1711700   1713582   1715508   1717473   1719459  
  7420.000000   1721446   1723412   1725346   1727248   1729126  
  7410.000000   1730985   1732825   1734631   1736382   1738054  
  7400.000000   1739631   1741106   1742479   1743755   1744938  
  7390.000000   1746047   1747106   1748164   1749285   1750543  
  7380.000000   1751998   1753678   1755562   1757582   1759638  
  7370.000000   1761625   1763457   1765085   1766512   1767782  
  7360.000000   1768968   1770155   1771426   1772844   1774444  
  7350.000000   1776227   1778155   1780160   1782148   1784028  
  7340.000000   1785727   1787215   1788502   1789642   1790707  
  7330.000000   1791769   1792880   1794063   1795310   1796592  
  7320.000000   1797875   1799135   1800364   1801573   1802787  
  7310.000000   1804029   1805317   1806645   1807991   1809314  
  7300.000000   1810574   1811745   1812832   1813879   1814958  
  7290.000000   1816158   1817548   1819160   1820957   1822857  
  7280.000000   1824742   1826493   1828024   1829299   1830343  
  7270.000000   1831212   1831981   1832701   1833411   1834116  
  7260.000000   1834823   1835537   1836289   1837118   1838069  
  7250.000000   1839171   1840440   1841865   1843435   1845131  
  7240.000000   1846954   1848896   1850956   1853103   1855308  
  7230.000000   1857519   1859711   1861868   1864018   1866191  
  7220.000000   1868435   1870760   1873170   1875629   1878119  
  7210.000000   1880622   1883166   1885791   1888554   1891487  
  7200.000000   1894596   1897842   1901178   1904552   1907949  
  7190.000000   1911373   1914862   1918437   1922108   1925835  
  7180.000000   1929564   1933220   1936763   1940179   1943510  
  7170.000000   1946809   1950152   1953584   1957137   1960799  
  7160.000000   1964557   1968383   1972267   1976199   1980191  
  7150.000000   1984248   1988385   1992607   1996932   2001362  
  7140.000000   2005918   2010595   2015399   2020307   2025307  
  7130.000000   2030367   2035477   2040614   2045789   2050997  
  7120.000000   2056268   2061615   2067073   2072656   2078381  
  7110.000000   2084231   2090184   2096187   2102198   2108178  
  7100.000000   2114131   2120088   2126117   2132277   2138613  
  7090.000000   2145112   2151719   2158334   2164858   2171207  
  7080.000000   2177348   2183286   2189061   2194725   2200327  
  7070.000000   2205911   2211513   2217175   2222935   2228821  
  7060.000000   2234833   2240925   2247009   2252974   2258724  
  7050.000000   2264213   2269465   2274567   2279640   2284793  
  7040.000000   2290086   2295528   2301078   2306692   2312339  
  7030.000000   2318030   2323787   2329639   2335571   2341535  
  7020.000000   2347437   2353189   2358718   2364008   2369075  
  7010.000000   2373966   2378713   2383328   2387793   2392094  
  7000.000000   2396224   2400222   2404142   2408060   2412015  
  6990.000000   2416016   2420012   2423946   2427750   2431409  
  6980.000000   2434938   2438406   2441874   2445405   2449001  
  6970.000000   2452640   2456252   2459770   2463125   2466284  
  6960.000000   2469229   2471979   2474564   2477036   2479439  
  6950.000000   2481821   2484200   2486578   2488921   2491187  
  6940.000000   2493322   2495301   2497119   2498815   2500433  
  6930.000000   2502031   2503637   2505271   2506925   2508596  
  6920.000000   2510282   2512002   2513770   2515595   2517452  
  6910.000000   2519291   2521037   2522625   2524007   2525181  
  6900.000000   2526180   2527065   2527903   2528745   2529623  
  6890.000000   2530544   2531500   2532479   2533460   2534429  
  6880.000000   2535369   2536275   2537151   2538022   2538931  
  6870.000000   2539932   2541069   2542361   2543783   2545279  
  6860.000000   2546761   2548147   2549370   2550400   2551237  
  6850.000000   2551907   2552442   2552877   2553239   2553556  
  6840.000000   2553851   2554157   2554494   2554888   2555341  
  6830.000000   2555856   2556421   2557028   2557659   2558295  
  6820.000000   2558899   2559417   2559788   2559960   2559917  
  6810.000000   2559695   2559376   2559078   2558909   2558945  
  6800.000000   2559194   2559610   2560104   2560586   2560983  
  6790.000000   2561262   2561417   2561457   2561391   2561220  
  6780.000000   2560948   2560590   2560189   2559805   2559507  
  6770.000000   2559347   2559342   2559478   2559710   2559995  
  6760.000000   2560297   2560598   2560885   2561140   2561329  
  6750.000000   2561401   2561319   2561069   2560684   2560234  
  6740.000000   2559810   2559490   2559310   2559264   2559305  
  6730.000000   2559379   2559444   2559489   2559524   2559567  
  6720.000000   2559623   2559678   2559705   2559680   2559598  
  6710.000000   2559478   2559351   2559243   2559159   2559085  
  6700.000000   2558988   2558852   2558678   2558501   2558356  
  6690.000000   2558268   2558221   2558163   2558015   2557706  
  6680.000000   2557201   2556513   2555690   2554800   2553887  
  6670.000000   2552974   2552049   2551104   2550139   2549191  
  6660.000000   2548306   2547532   2546876   2546302   2545726  
  6650.000000   2545056   2544214   2543173   2541953   2540616  
  6640.000000   2539231   2537861   2536537   2535275   2534076  
  6630.000000   2532941   2531867   2530847   2529849   2528832  
  6620.000000   2527743   2526547   2525237   2523853   2522458  
  6610.000000   2521124   2519891   2518757   2517671   2516558  
  6600.000000   2515347   2514004   2512532   2510972   2509374  
  6590.000000   2507778   2506201   2504640   2503086   2501538  
  6580.000000   2500007   2498518   2497092   2495743   2494464  
  6570.000000   2493235   2492034   2490843   2489651   2488452  
  6560.000000   2487241   2485999   2484709   2483351   2481925  
  6550.000000   2480445   2478942   2477452   2475998   2474584  
  6540.000000   2473199   2471826   2470455   2469097   2467772  
  6530.000000   2466507   2465315   2464183   2463079   2461959  
  6520.000000   2460786   2459542   2458237   2456896   2455550  
  6510.000000   2454223   2452928   2451671   2450457   2449296  
  6500.000000   2448202   2447187   2446244   2445354   2444477  
  6490.000000   2443576   2442624   2441621   2440586   2439551  
  6480.000000   2438542   2437564   2436598   2435604   2434543  
  6470.000000   2433384   2432122   2430772   2429366   2427946  
  6460.000000   2426550   2425216   2423975   2422852   2421858  
  6450.000000   2420988   2420215   2419488   2418750   2417944  
  6440.000000   2417036   2416015   2414906   2413750   2412601  
  6430.000000   2411505   2410502   2409617   2408873   2408277  
  6420.000000   2407832   2407517   2407298   2407120   2406928  
  6410.000000   2406670   2406328   2405906   2405444   2404992  
  6400.000000   2404600   2404297   2404092   2403973   2403922  
  6390.000000   2403915   2403936   2403971   2404002   2404011  
  6380.000000   2403977   2403882   2403718   2403495   2403230  
  6370.000000   2402951   2402676   2402415   2402162   2401901  
  6360.000000   2401612   2401281   2400896   2400455   2399961  
  6350.000000   2399423   2398857   2398291   2397754   2397280  
  6340.000000   2396884   2396564   2396283   2395992   2395630  
  6330.000000   2395157   2394559   2393859   2393101   2392340  
  6320.000000   2391611   2390928   2390275   2389623   2388941  
  6310.000000   2388214   2387436   2386620   2385770   2384891  
  6300.000000   2383969   2382995   2381958   2380863   2379724  
  6290.000000   2378562   2377393   2376227   2375060   2373890  
  6280.000000   2372716   2371550   2370404   2369297   2368229  
  6270.000000   2367190   2366149   2365073   2363930   2362707  
  6260.000000   2361407   2360049   2358656   2357249   2355840  
  6250.000000   2354433   2353028   2351628   2350239   2348874  
  6240.000000   2347540   2346244   2344983   2343750   2342532  
  6230.000000   2341317   2340093   2338852   2337592   2336313  
  6220.000000   2335028   2333756   2332519   2331336   2330218  
  6210.000000   2329159   2328138   2327125   2326097   2325042  
  6200.000000   2323970   2322907   2321883   2320912   2319994  
  6190.000000   2319099   2318191   2317232   2316204   2315112  
  6180.000000   2313982   2312851   2311753   2310713   2309743  
  6170.000000   2308842   2308007   2307233   2306509   2305820  
  6160.000000   2305139   2304435   2303676   2302843   2301937  
  6150.000000   2300977   2300002   2299047   2298142   2297295  
  6140.000000   2296500   2295739   2294997   2294263   2293539  
  6130.000000   2292825   2292126   2291434   2290746   2290054  
  6120.000000   2289360   2288674   2288014   2287396   2286836  
  6110.000000   2286333   2285889   2285498   2285165   2284898  
  6100.000000   2284712   2284611   2284596   2284650   2284748  
  6090.000000   2284860   2284968   2285057   2285135   2285205  
  6080.000000   2285281   2285364   2285462   2285573   2285709  
  6070.000000   2285879   2286105   2286395   2286762   2287199  
  6060.000000   2287706   2288267   2288891   2289575   2290338  
  6050.000000   2291182   2292120   2293138   2294240   2295414  
  6040.000000   2296676   2298037   2299530   2301167   2302963  
  6030.000000   2304897   2306944   2309058   2311207   2313356  
  6020.000000   2315500   2317631   2319760   2321889   2324029  
  6010.000000   2326180   2328358   2330570   2332839   2335173  
  6000.000000   2337580   2340048   2342563   2345101   2347654  
  5990.000000   2350214   2352800   2355425   2358116   2360880  
  5980.000000   2363722   2366629   2369591   2372594   2375640  
  5970.000000   2378731   2381883   2385102   2388400   2391768  
  5960.000000   2395197   2398656   2402123   2405559   2408949  
  5950.000000   2412274   2415549   2418797   2422061   2425391  
  5940.000000   2428825   2432389   2436080   2439877   2443741  
  5930.000000   2447636   2451522   2455378   2459181   2462912  
  5920.000000   2466540   2470034   2473355   2476476   2479386  
  5910.000000   2482101   2484647   2487067   2489395   2491668  
  5900.000000   2493901   2496120   2498335   2500578   2502861  
  5890.000000   2505205   2507600   2510032   2512458   2514837  
  5880.000000   2517120   2519276   2521280   2523124   2524808  
  5870.000000   2526344   2527755   2529079   2530361   2531655  
  5860.000000   2533005   2534438   2535960   2537552   2539189  
  5850.000000   2540850   2542536   2544263   2546067   2547977  
  5840.000000   2550014   2552170   2554423   2556738   2559087  
  5830.000000   2561449   2563821   2566195   2568569   2570922  
  5820.000000   2573237   2575493   2577690   2579840   2581976  
  5810.000000   2584131   2586322   2588557   2590813   2593076  
  5800.000000   2595318   2597552   2599778   2602031   2604307  
  5790.000000   2606607   2608872   2611049   2613034   2614750  
  5780.000000   2616091   2616990   2617370   2617205   2616478  
  5770.000000   2615244   2613580   2611631   2609533   2607440  
  5760.000000   2605442   2603607   2601925   2600379   2598919  
  5750.000000   2597527   2596183   2594898   2593669   2592499  
  5740.000000   2591373   2590272   2589182   2588095   2587019  
  5730.000000   2585961   2584925   2583899   2582866   2581801  
  5720.000000   2580696   2579558   2578415   2577302   2576249  
  5710.000000   2575263   2574337   2573444   2572565   2571685  
  5700.000000   2570812   2569966   2569164   2568421   2567732  
  5690.000000   2567087   2566465   2565864   2565276   2564713  
  5680.000000   2564169   2563636   2563078   2562452   2561699  
  5670.000000   2560773   2559628   2558246   2556615   2554750  
  5660.000000   2552672   2550428   2548071   2545672   2543292  
  5650.000000   2540990   2538793   2536709   2534722   2532812  
  5640.000000   2530955   2529146   2527390   2525698   2524082  
  5630.000000   2522541   2521075   2519669   2518320   2517022  
  5620.000000   2515784   2514603   2513484   2512409   2511369  
  5610.000000   2510345   2509336   2508345   2507391   2506484  
  5600.000000   2505632   2504822   2504037   2503252   2502457  
  5590.000000   2501652   2500855   2500087   2499367   2498700  
  5580.000000   2498076   2497478   2496889   2496299   2495704  
  5570.000000   2495102   2494489   2493852   2493168   2492420  
  5560.000000   2491597   2490709   2489779   2488840   2487925  
  5550.000000   2487053   2486226   2485433   2484654   2483866  
  5540.000000   2483047   2482184   2481260   2480268   2479205  
  5530.000000   2478079   2476915   2475749   2474619   2473563  
  5520.000000   2472597   2471719   2470906   2470128   2469354  
  5510.000000   2468563   2467741   2466884   2465988   2465049  
  5500.000000   2464064   2463037   2461980   2460917   2459872  
  5490.000000   2458863   2457886   2456921   2455929   2454877  
  5480.000000   2453740   2452523   2451241   2449928   2448606  
  5470.000000   2447286   2445960   2444609   2443209   2441750  
  5460.000000   2440227   2438647   2437018   2435348   2433644  
  5450.000000   2431918   2430188   2428483   2426832   2425259  
  5440.000000   2423774   2422368   2421025   2419721   2418449  
  5430.000000   2417203   2415993   2414820   2413686   2412574  
  5420.000000   2411483   2410406   2409372   2408412   2407578  
  5410.000000   2406895   2406376   2405990   2405708   2405484  
  5400.000000   2405313   2405194   2405167   2405256   2405495  
  5390.000000   2405870   2406376   2406975   2407670   2408455  
  5380.000000   2409372   2410440   2411702   2413144   2414771  
  5370.000000   2416535   2418434   2420433   2422560   2424801  
  5360.000000   2427203   2429754   2432505   2435450   2438668  
  5350.000000   2442178   2446078   2450380   2455149   2460339  
  5340.000000   2465969   2471958   2478337   2485052   2492169  
  5330.000000   2499654   2507578   2515891   2524652   2533813  
  5320.000000   2543464   2553599   2564354   2575739   2587884  
  5310.000000   2600754   2614421   2628792   2643908   2659677  
  5300.000000   2676167   2693332   2711287   2730026   2749676  
  5290.000000   2770213   2791704   2814041   2837183   2860948  
  5280.000000   2885263   2909995   2935173   2960795   2986980  
  5270.000000   3013762   3041175   3069108   3097406   3125849  
  5260.000000   3154257   3182531   3210661   3238725   3266778  
  5250.000000   3294857   3322849   3350613   3377879   3404488  
  5240.000000   3430258   3455217   3479363   3502867   3525764  
  5230.000000   3548180   3570042   3591351   3611937   3631775  
  5220.000000   3650735   3668893   3686233   3702928   3719008  
  5210.000000   3734623   3749714   3764306   3778222   3791420  
  5200.000000   3803742   3815241   3825885   3835840   3845132  
  5190.000000   3853902   3862103   3869778   3876811   3883225  
  5180.000000   3888940   3894040   3898502   3902430   3905784  
  5170.000000   3908625   3910883   3912608   3913760   3914429  
  5160.000000   3914615   3914417   3913817   3912872   3911533  
  5150.000000   3909839   3907755   3905345   3902599   3899583  
  5140.000000   3896278   3892722   3888881   3884785   3880420  
  5130.000000   3875836   3871038   3866076   3860946   3855679  
  5120.000000   3850264   3844732   3839093   3833398   3827668  
  5110.000000   3821945   3816231   3810535   3804845   3799165  
  5100.000000   3793495   3787858   3782269   3776744   3771283  
  5090.000000   3765877   3760503   3755142   3749774   3744392  
  5080.000000   3738989   3733566   3728115   3722639   3717133  
  5070.000000   3711612   3706082   3700565   3695059   3689567  
  5060.000000   3684059   3678511   3672877   3667132   3661249  
  5050.000000   3655230   3649070   3642783   3636372   3629849  
  5040.000000   3623215   3616486   3609673   3602801   3595887  
  5030.000000   3588956   3582018   3575091   3568187   3561324  
  5020.000000   3554520   3547793   3541159   3534619   3528175  
  5010.000000   3521813   3515531   3509320   3503196   3497160  
  5000.000000   3491242   3485443   3479788   3474272   3468918  
  4990.000000   3463725   3458727   3453929   3449368   3445033  
  4980.000000   3440942   3437059   3433388   3429891   3426590  
  4970.000000   3423470   3420583   3417931   3415574   3413507  
  4960.000000   3411780   3410375   3409333   3408629   3408304  
  4950.000000   3408325   3408725   3409457   3410546   3411943  
  4940.000000   3413682   3415726   3418126   3420857   3423972  
  4930.000000   3427439   3431298   3435504   3440088   3445007  
  4920.000000   3450292   3455907   3461882   3468184   3474834  
  4910.000000   3481798   3489088   3496665   3504530   3512638  
  4900.000000   3520971   3529478   3538129   3546885   3555716  
  4890.000000   3564596   3573488   3582359   3591138   3599769  
  4880.000000   3608155   3616241   3623940   3631235   3638072  
  4870.000000   3644463   3650369   3655809   3660736   3665171  
  4860.000000   3669073   3672478   3675362   3677777   3679710  
  4850.000000   3681220   3682301   3683019   3683387   3683485  
  4840.000000   3683344   3683046   3682626   3682149   3681635  
  4830.000000   3681133   3680658   3680244   3679905   3679657  
  4820.000000   3679502   3679435   3679445   3679521   3679660  
  4810.000000   3679860   3680136   3680495   3680955   3681513  
  4800.000000   3682179   3682945   3683820   3684802   3685907  
  4790.000000   3687138   3688501   3689983   3691573   3693242  
  4780.000000   3694970   3696733   3698524   3700329   3702147  
  4770.000000   3703966   3705775   3707559   3709305   3711006  
  4760.000000   3712662   3714280   3715868   3717431   3718967  
  4750.000000   3720468   3721918   3723309   3724633   3725898  
  4740.000000   3727115   3728308   3729495   3730694   3731911  
  4730.000000   3733145   3734385   3735614   3736816   3737970  
  4720.000000   3739070   3740107   3741094   3742042   3742988  
  4710.000000   3743962   3745013   3746180   3747509   3749023  
  4700.000000   3750749   3752685   3754834   3757180   3759714  
  4690.000000   3762419   3765289   3768306   3771463   3774727  
  4680.000000   3778074   3781450   3784823   3788137   3791371  
  4670.000000   3794495   3797518   3800442   3803301   3806117  
  4660.000000   3808941   3811810   3814786   3817918   3821260  
  4650.000000   3824845   3828687   3832775   3837072   3841527  
  4640.000000   3846081   3850685   3855295   3859884   3864424  
  4630.000000   3868892   3873254   3877481   3881531   3885382  
  4620.000000   3889004   3892390   3895522   3898399   3900997  
  4610.000000   3903319   3905345   3907102   3908600   3909900  
  4600.000000   3911034   3912069   3913019   3913923   3914760  
  4590.000000   3915543   3916233   3916829   3917287   3917593  
  4580.000000   3917692   3917564   3917158   3916473   3915496  
  4570.000000   3914266   3912812   3911197   3909454   3907629  
  4560.000000   3905728   3903768   3901735   3899636   3897459  
  4550.000000   3895213   3892893   3890512   3888075   3885602  
  4540.000000   3883111   3880631   3878182   3875781   3873431  
  4530.000000   3871120   3868835   3866552   3864270   3861985  
  4520.000000   3859725   3857497   3855338   3853240   3851231  
  4510.000000   3849295   3847482   3845806   3844372   3843234  
  4500.000000   3842523   3842281   3842604   3843475   3844943  
  4490.000000   3846955   3849559   3852721   3856525   3860957  
  4480.000000   3866107   3871944   3878523   3885772   3893713  
  4470.000000   3902253   3911403   3921075   3931284   3941950  
  4460.000000   3953084   3964608   3976526   3988760   4001304  
  4450.000000   4014087   4027102   4040297   4053670   4067194  
  4440.000000   4080872   4094685   4108611   4122614   4136627  
  4430.000000   4150592   4164414   4178044   4191396   4204452  
  4420.000000   4217150   4229500   4241442   4252985   4264053  
  4410.000000   4274636   4284641   4294049   4302775   4310824  
  4400.000000   4318151   4324816   4330837   4336329   4341357  
  4390.000000   4346063   4350524   4354868   4359149   4363454  
  4380.000000   4367795   4372211   4376676   4381192   4385720  
  4370.000000   4390257   4394776   4399285   4403778   4408271  
  4360.000000   4412762   4417266   4421764   4426268   4430734  
  4350.000000   4435176   4439527   4443814   4447975   4452067  
  4340.000000   4456048   4459973   4463755   4467321   4470401  
  4330.000000   4472680   4473699   4473037   4470328   4465434  
  4320.000000   4458460   4449810   4440081   4430000   4420234  
  4310.000000   4411334   4403613   4397194   4392005   4387895  
  4300.000000   4384671   4382175   4380293   4378938   4378073  
  4290.000000   4377627   4377582   4377866   4378481   4379379  
  4280.000000   4380576   4382040   4383755   4385672   4387736  
  4270.000000   4389900   4392108   4394322   4396458   4398407  
  4260.000000   4399972   4400921   4400977   4399915   4397589  
  4250.000000   4394015   4389342   4383875   4377965   4372002  
  4240.000000   4366286   4361052   4356387   4352311   4348740  
  4230.000000   4345578   4342697   4339988   4337356   4334728  
  4220.000000   4332074   4329372   4326671   4324009   4321494  
  4210.000000   4319189   4317204   4315576   4314360   4313539  
  4200.000000   4313114   4313032   4313271   4313771   4314513  
  4190.000000   4315440   4316542   4317761   4319093   4320481  
  4180.000000   4321929   4323391   4324890   4326408   4328002  
  4170.000000   4329691   4331563   4333658   4336066   4338815  
  4160.000000   4341971   4345528   4349528   4353943   4358798  
  4150.000000   4364052   4369722   4375748   4382139   4388830  
  4140.000000   4395843   4403133   4410755   4418692   4427013  
  4130.000000   4435697   4444795   4454265   4464141   4474387  
  4120.000000   4485054   4496137   4507714   4519797   4532455  
  4110.000000   4545678   4559494   4573853   4588735   4604056  
  4100.000000   4619765   4635759   4651972   4668313   4684733  
  4090.000000   4701185   4717648   4734113   4750570   4767023  
  4080.000000   4783446   4799836   4816145   4832361   4848412  
  4070.000000   4864272   4879838   4895077   4909875   4924215  
  4060.000000   4938004   4951259   4963906   4975984   4987426  
  4050.000000   4998286   5008520   5018219   5027367   5036069  
  4040.000000   5044284   5052071   5059327   5066059   5072145  
  4030.000000   5077608   5082368   5086496   5089966   5092863  
  4020.000000   5095153   5096931   5098221   5099110   5099558  
  4010.000000   5099660   5099449   5098873   5097665   5095828  
  4000.000000   5093671  
##END= 
