##TITLE= Sample 002 By ssteindl date Dienstag, November 20 2018
##JCAMP-DX= 4.24
##DATA TYPE= INFRARED SPECTRUM
##ORIGIN= Exported PE Spectrum Data File
##OWNER= Sandra Steindl
##DATE= 18/11/20
##TIME= 16:07:07.00
##SPECTROMETER/DATA SYSTEM= PERKIN-ELMER Frontier FT-IR/NIR IR
##INSTRUMENT PARAMETERS=
  APODIZATION=stark
  DETECTOR=INGAAS
##RESOLUTION= 16.000000
##DELTAX= -2.000000
##XUNITS= 1/CM
##YUNITS= A
##XFACTOR= 1.00
##YFACTOR= 0.00000011920928955078
##FIRSTX= 10000.00
##LASTX= 4000.00
##NPOINTS= 3001
##FIRSTY= 0.345185
##MAXY= 0.645907
##MINY= 0.239903
##XYDATA= (X++(Y..Y))
 10000.000000   2895618   2899673   2902740   2903574   2902075  
  9990.000000   2899042   2895167   2890817   2886342   2882066  
  9980.000000   2877936   2873613   2868688   2862966   2856562  
  9970.000000   2850090   2844536   2841001   2840157   2842013  
  9960.000000   2845716   2849883   2853032   2854173   2853129  
  9950.000000   2850576   2847646   2845416   2844390   2844304  
  9940.000000   2844340   2843452   2841001   2836810   2831352  
  9930.000000   2825209   2818885   2812439   2805609   2798104  
  9920.000000   2789967   2781882   2775112   2771245   2771647  
  9910.000000   2777057   2787186   2800790   2815805   2829899  
  9900.000000   2840961   2847568   2849339   2846818   2841424  
  9890.000000   2834851   2828752   2824128   2821185   2819252  
  9880.000000   2817177   2813819   2808564   2801734   2794412  
  9870.000000   2788265   2784677   2784458   2787320   2792236  
  9860.000000   2797785   2802804   2806765   2809758   2812238  
  9850.000000   2814464   2816262   2816857   2815323   2810927  
  9840.000000   2803691   2794410   2784501   2775478   2768485  
  9830.000000   2764043   2762073   2762180   2763931   2767008  
  9820.000000   2771151   2775964   2780741   2784536   2786384  
  9810.000000   2785817   2783142   2779611   2777020   2777142  
  9800.000000   2780974   2788335   2797804   2807196   2814210  
  9790.000000   2817117   2815169   2808621   2798498   2786126  
  9780.000000   2772827   2759689   2747585   2737224   2729154  
  9770.000000   2723720   2720893   2720302   2721228   2722905  
  9760.000000   2724708   2726356   2727951   2729722   2731927  
  9750.000000   2734441   2736927   2738771   2739548   2739169  
  9740.000000   2738074   2737124   2737236   2739159   2743065  
  9730.000000   2748677   2755259   2761968   2767997   2772681  
  9720.000000   2775514   2776023   2773802   2768520   2760129  
  9710.000000   2749038   2736211   2723140   2711490   2702801  
  9700.000000   2697965   2697170   2699728   2704481   2709962  
  9690.000000   2714873   2718221   2719460   2718473   2715415  
  9680.000000   2710714   2704855   2698483   2692179   2686553  
  9670.000000   2681984   2678673   2676497   2675155   2674234  
  9660.000000   2673401   2672497   2671555   2670736   2670206  
  9650.000000   2670066   2670311   2670897   2671848   2673329  
  9640.000000   2675663   2679185   2684029   2689932   2696140  
  9630.000000   2701550   2705007   2705678   2703391   2698671  
  9620.000000   2692648   2686598   2681579   2678051   2675806  
  9610.000000   2674172   2672313   2669724   2666325   2662661  
  9600.000000   2659540   2657897   2658348   2661063   2665683  
  9590.000000   2671370   2677065   2681577   2683883   2683176  
  9580.000000   2679138   2671990   2662645   2652570   2643549  
  9570.000000   2637252   2634744   2636236   2640896   2647232  
  9560.000000   2653411   2657956   2660078   2659911   2658322  
  9550.000000   2656414   2655085   2654522   2654266   2653306  
  9540.000000   2650687   2645838   2638954   2630947   2623193  
  9530.000000   2617167   2613942   2614016   2617100   2622351  
  9520.000000   2628524   2634357   2638828   2641355   2641888  
  9510.000000   2640796   2638743   2636401   2634337   2632766  
  9500.000000   2631643   2630631   2629343   2627476   2624917  
  9490.000000   2621848   2618589   2615630   2613388   2612243  
  9480.000000   2612367   2613774   2616225   2619278   2622266  
  9470.000000   2624416   2624985   2623477   2619839   2614510  
  9460.000000   2608366   2602408   2597496   2594000   2591764  
  9450.000000   2590148   2588360   2585752   2582103   2577698  
  9440.000000   2573199   2569421   2567017   2566327   2567319  
  9430.000000   2569714   2573117   2577115   2581303   2585260  
  9420.000000   2588573   2590880   2591991   2591937   2590990  
  9410.000000   2589529   2587907   2586259   2584478   2582265  
  9400.000000   2579350   2575707   2571646   2567777   2564690  
  9390.000000   2562736   2561783   2561324   2560716   2559507  
  9380.000000   2557694   2555695   2554170   2553628   2554167  
  9370.000000   2555349   2556436   2556725   2555965   2554455  
  9360.000000   2552950   2552268   2552921   2554864   2557521  
  9350.000000   2560085   2561895   2562742   2562883   2562859  
  9340.000000   2563120   2563826   2564722   2565365   2565352  
  9330.000000   2564616   2563445   2562306   2561529   2561080  
  9320.000000   2560513   2559170   2556475   2552289   2547002  
  9310.000000   2541432   2536480   2532805   2530620   2529703  
  9300.000000   2529564   2529706   2529762   2529602   2529200  
  9290.000000   2528565   2527631   2526330   2524735   2523142  
  9280.000000   2522080   2522003   2523076   2524891   2526571  
  9270.000000   2527000   2525255   2521014   2514753   2507726  
  9260.000000   2501529   2497577   2496577   2498390   2502151  
  9250.000000   2506610   2510500   2512867   2513249   2511653  
  9240.000000   2508416   2504021   2499030   2494013   2489592  
  9230.000000   2486271   2484381   2483900   2484476   2485509  
  9220.000000   2486315   2486414   2485644   2484315   2483022  
  9210.000000   2482418   2482914   2484526   2486913   2489468  
  9200.000000   2491555   2492664   2492570   2491303   2489075  
  9190.000000   2486195   2483002   2479854   2477080   2474960  
  9180.000000   2473666   2473232   2473507   2474177   2474802  
  9170.000000   2474987   2474483   2473289   2471623   2469820  
  9160.000000   2468247   2467142   2466589   2466471   2466548  
  9150.000000   2466508   2466077   2465102   2463615   2461843  
  9140.000000   2460153   2458961   2458588   2459137   2460414  
  9130.000000   2461963   2463199   2463623   2462997   2461468  
  9120.000000   2459491   2457705   2456629   2456509   2457184  
  9110.000000   2458202   2459001   2459113   2458320   2456662  
  9100.000000   2454370   2451689   2448776   2445643   2442258  
  9090.000000   2438630   2434924   2431442   2428556   2426589  
  9080.000000   2425678   2425776   2426650   2428052   2429767  
  9070.000000   2431693   2433780   2435965   2438099   2439914  
  9060.000000   2441102   2441397   2440723   2439193   2437088  
  9050.000000   2434714   2432310   2429971   2427671   2425349  
  9040.000000   2422991   2420681   2418571   2416816   2415470  
  9030.000000   2414453   2413549   2412532   2411249   2409746  
  9020.000000   2408239   2407078   2406598   2407001   2408267  
  9010.000000   2410133   2412190   2413937   2414953   2414906  
  9000.000000   2413679   2411299   2407980   2404048   2399919  
  8990.000000   2396046   2392830   2390619   2389601   2389865  
  8980.000000   2391330   2393820   2397021   2400540   2403901  
  8970.000000   2406578   2408082   2408018   2406239   2402849  
  8960.000000   2398267   2393109   2388117   2383952   2381074  
  8950.000000   2379642   2379512   2380331   2381611   2382877  
  8940.000000   2383718   2383897   2383361   2382247   2380853  
  8930.000000   2379543   2378700   2378574   2379245   2380544  
  8920.000000   2382123   2383527   2384380   2384483   2383919  
  8910.000000   2382987   2382088   2381555   2381497   2381798  
  8900.000000   2382146   2382243   2381930   2381329   2380789  
  8890.000000   2380765   2381579   2383254   2385413   2387380  
  8880.000000   2388368   2387756   2385324   2381330   2376467  
  8870.000000   2371638   2367689   2365172   2364199   2364469  
  8860.000000   2365400   2366355   2366837   2366631   2365802  
  8850.000000   2364636   2363477   2362606   2362158   2362086  
  8840.000000   2362259   2362476   2362616   2362595   2362420  
  8830.000000   2362110   2361684   2361144   2360476   2359711  
  8820.000000   2358929   2358298   2358016   2358276   2359178  
  8810.000000   2360681   2362601   2364614   2366354   2367454  
  8800.000000   2367646   2366778   2364862   2362072   2358744  
  8790.000000   2355343   2352378   2350357   2349639   2350392  
  8780.000000   2352463   2355442   2358690   2361532   2363375  
  8770.000000   2363867   2362948   2360824   2357901   2354625  
  8760.000000   2351401   2348493   2346044   2344085   2342580  
  8750.000000   2341472   2340679   2340125   2339705   2339323  
  8740.000000   2338881   2338319   2337629   2336841   2336028  
  8730.000000   2335240   2334530   2333899   2333351   2332881  
  8720.000000   2332518   2332310   2332321   2332590   2333116  
  8710.000000   2333829   2334614   2335328   2335855   2336125  
  8700.000000   2336145   2335982   2335760   2335611   2335655  
  8690.000000   2335964   2336536   2337303   2338131   2338873  
  8680.000000   2339394   2339635   2339622   2339474   2339350  
  8670.000000   2339393   2339647   2340031   2340342   2340331  
  8660.000000   2339787   2338641   2337005   2335153   2333436  
  8650.000000   2332164   2331499   2331391   2331611   2331817  
  8640.000000   2331699   2331065   2329917   2328442   2326947  
  8630.000000   2325769   2325178   2325322   2326221   2327760  
  8620.000000   2329743   2331913   2334022   2335833   2337170  
  8610.000000   2337924   2338089   2337762   2337137   2336457  
  8600.000000   2335959   2335824   2336120   2336815   2337765  
  8590.000000   2338809   2339785   2340600   2341201   2341584  
  8580.000000   2341750   2341676   2341298   2340536   2339330  
  8570.000000   2337696   2335751   2333719   2331883   2330520  
  8560.000000   2329815   2329809   2330376   2331248   2332090  
  8550.000000   2332581   2332520   2331864   2330759   2329468  
  8540.000000   2328316   2327583   2327450   2327939   2328935  
  8530.000000   2330217   2331549   2332728   2333632   2334231  
  8520.000000   2334565   2334709   2334728   2334653   2334492  
  8510.000000   2334233   2333886   2333484   2333097   2332804  
  8500.000000   2332670   2332718   2332923   2333211   2333493  
  8490.000000   2333689   2333774   2333768   2333728   2333721  
  8480.000000   2333786   2333945   2334166   2334433   2334751  
  8470.000000   2335187   2335844   2336822   2338159   2339765  
  8460.000000   2341395   2342676   2343197   2342636   2340889  
  8450.000000   2338119   2334763   2331411   2328658   2326922  
  8440.000000   2326317   2326646   2327477   2328310   2328749  
  8430.000000   2328627   2328049   2327311   2326766   2326671  
  8420.000000   2327096   2327908   2328861   2329704   2330323  
  8410.000000   2330765   2331236   2331974   2333130   2334685  
  8400.000000   2336414   2337973   2338988   2339229   2338659  
  8390.000000   2337479   2336020   2334684   2333777   2333458  
  8380.000000   2333662   2334154   2334605   2334661   2334032  
  8370.000000   2332530   2330135   2326986   2323356   2319613  
  8360.000000   2316138   2313295   2311333   2310387   2310413  
  8350.000000   2311260   2312672   2314373   2316072   2317506  
  8340.000000   2318449   2318713   2318190   2316823   2314680  
  8330.000000   2311912   2308792   2305630   2302731   2300322  
  8320.000000   2298506   2297280   2296524   2296095   2295832  
  8310.000000   2295639   2295457   2295269   2295066   2294815  
  8300.000000   2294488   2294028   2293413   2292620   2291680  
  8290.000000   2290641   2289574   2288564   2287690   2287051  
  8280.000000   2286726   2286787   2287242   2288034   2289016  
  8270.000000   2289975   2290653   2290808   2290261   2288948  
  8260.000000   2286943   2284448   2281747   2279154   2276952  
  8250.000000   2275333   2274344   2273883   2273700   2273486  
  8240.000000   2272933   2271848   2270195   2268128   2265936  
  8230.000000   2263969   2262516   2261708   2261479   2261585  
  8220.000000   2261706   2261547   2260926   2259825   2258356  
  8210.000000   2256717   2255094   2253617   2252321   2251175  
  8200.000000   2250112   2249066   2247978   2246795   2245451  
  8190.000000   2243866   2241961   2239696   2237108   2234315  
  8180.000000   2231501   2228858   2226533   2224576   2222942  
  8170.000000   2221523   2220203   2218931   2217734   2216719  
  8160.000000   2216014   2215701   2215769   2216091   2216457  
  8150.000000   2216616   2216360   2215559   2214221   2212455  
  8140.000000   2210463   2208464   2206648   2205133   2203945  
  8130.000000   2203029   2202276   2201572   2200828   2200023  
  8120.000000   2199178   2198358   2197595   2196894   2196188  
  8110.000000   2195386   2194410   2193238   2191936   2190630  
  8100.000000   2189464   2188521   2187776   2187070   2186160  
  8090.000000   2184799   2182841   2180313   2177432   2174554  
  8080.000000   2172067   2170282   2169339   2169173   2169542  
  8070.000000   2170111   2170539   2170578   2170111   2169171  
  8060.000000   2167907   2166528   2165248   2164215   2163489  
  8050.000000   2163017   2162660   2162231   2161556   2160529  
  8040.000000   2159141   2157493   2155750   2154099   2152682  
  8030.000000   2151556   2150680   2149932   2149162   2148233  
  8020.000000   2147068   2145667   2144101   2142499   2141010  
  8010.000000   2139788   2138948   2138547   2138560   2138873  
  8000.000000   2139297   2139606   2139590   2139110   2138139  
  7990.000000   2136759   2135147   2133497   2131977   2130660  
  7980.000000   2129533   2128504   2127468   2126349   2125137  
  7970.000000   2123901   2122751   2121817   2121194   2120926  
  7960.000000   2120992   2121315   2121776   2122232   2122545  
  7950.000000   2122599   2122332   2121746   2120915   2119960  
  7940.000000   2119020   2118199   2117538   2116990   2116456  
  7930.000000   2115809   2114967   2113913   2112719   2111512  
  7920.000000   2110433   2109589   2109024   2108716   2108603  
  7910.000000   2108617   2108707   2108850   2109038   2109262  
  7900.000000   2109499   2109707   2109840   2109856   2109743  
  7890.000000   2109495   2109127   2108637   2108017   2107249  
  7880.000000   2106326   2105270   2104138   2103026   2102037  
  7870.000000   2101267   2100757   2100502   2100436   2100470  
  7860.000000   2100502   2100454   2100278   2099969   2099550  
  7850.000000   2099062   2098547   2098026   2097494   2096914  
  7840.000000   2096235   2095403   2094394   2093231   2091980  
  7830.000000   2090751   2089641   2088733   2088041   2087538  
  7820.000000   2087154   2086825   2086511   2086208   2085932  
  7810.000000   2085686   2085433   2085079   2084506   2083606  
  7800.000000   2082350   2080804   2079141   2077579   2076321  
  7790.000000   2075481   2075046   2074898   2074847   2074725  
  7780.000000   2074428   2073963   2073416   2072918   2072569  
  7770.000000   2072403   2072366   2072333   2072160   2071721  
  7760.000000   2070955   2069874   2068552   2067102   2065636  
  7750.000000   2064251   2063003   2061912   2060974   2060167  
  7740.000000   2059470   2058856   2058295   2057748   2057161  
  7730.000000   2056482   2055668   2054720   2053689   2052682  
  7720.000000   2051836   2051275   2051060   2051159   2051437  
  7710.000000   2051694   2051722   2051372   2050599   2049473  
  7700.000000   2048150   2046809   2045599   2044588   2043761  
  7690.000000   2043043   2042341   2041584   2040743   2039833  
  7680.000000   2038889   2037951   2037047   2036196   2035419  
  7670.000000   2034728   2034143   2033653   2033224   2032790  
  7660.000000   2032282   2031664   2030960   2030274   2029749  
  7650.000000   2029531   2029691   2030196   2030903   2031597  
  7640.000000   2032065   2032153   2031811   2031087   2030094  
  7630.000000   2028949   2027742   2026507   2025255   2023993  
  7620.000000   2022765   2021640   2020705   2020022   2019601  
  7610.000000   2019397   2019328   2019316   2019317   2019338  
  7600.000000   2019419   2019610   2019929   2020355   2020833  
  7590.000000   2021292   2021686   2021991   2022215   2022358  
  7580.000000   2022400   2022274   2021892   2021169   2020073  
  7570.000000   2018662   2017084   2015564   2014331   2013578  
  7560.000000   2013385   2013733   2014489   2015464   2016450  
  7550.000000   2017262   2017779   2017939   2017754   2017269  
  7540.000000   2016567   2015726   2014839   2013984   2013251  
  7530.000000   2012715   2012449   2012500   2012880   2013556  
  7520.000000   2014442   2015414   2016331   2017073   2017571  
  7510.000000   2017824   2017902   2017908   2017960   2018131  
  7500.000000   2018449   2018876   2019344   2019772   2020115  
  7490.000000   2020361   2020542   2020705   2020896   2021143  
  7480.000000   2021450   2021805   2022202   2022651   2023183  
  7470.000000   2023836   2024640   2025587   2026630   2027676  
  7460.000000   2028621   2029364   2029851   2030086   2030140  
  7450.000000   2030130   2030188   2030427   2030916   2031657  
  7440.000000   2032596   2033629   2034653   2035574   2036344  
  7430.000000   2036956   2037450   2037895   2038371   2038951  
  7420.000000   2039697   2040650   2041835   2043250   2044871  
  7410.000000   2046642   2048479   2050274   2051910   2053280  
  7400.000000   2054321   2055016   2055409   2055594   2055697  
  7390.000000   2055854   2056179   2056750   2057593   2058686  
  7380.000000   2059954   2061293   2062583   2063720   2064633  
  7370.000000   2065301   2065754   2066060   2066314   2066599  
  7360.000000   2066987   2067511   2068187   2069011   2069980  
  7350.000000   2071089   2072331   2073682   2075093   2076496  
  7340.000000   2077819   2079013   2080069   2081029   2081968  
  7330.000000   2082963   2084062   2085252   2086461   2087577  
  7320.000000   2088498   2089163   2089584   2089841   2090059  
  7310.000000   2090367   2090848   2091522   2092344   2093237  
  7300.000000   2094125   2094970   2095784   2096615   2097526  
  7290.000000   2098555   2099701   2100913   2102111   2103213  
  7280.000000   2104167   2104965   2105650   2106295   2106985  
  7270.000000   2107786   2108729   2109797   2110941   2112080  
  7260.000000   2113141   2114056   2114793   2115345   2115746  
  7250.000000   2116058   2116375   2116797   2117433   2118360  
  7240.000000   2119628   2121220   2123079   2125096   2127166  
  7230.000000   2129191   2131136   2133002   2134848   2136734  
  7220.000000   2138724   2140833   2143061   2145362   2147708  
  7210.000000   2150073   2152476   2154943   2157524   2160243  
  7200.000000   2163111   2166104   2169198   2172364   2175602  
  7190.000000   2178911   2182311   2185790   2189329   2192866  
  7180.000000   2196346   2199712   2202961   2206121   2209273  
  7170.000000   2212498   2215887   2219481   2223297   2227295  
  7160.000000   2231433   2235644   2239891   2244141   2248403  
  7150.000000   2252686   2257036   2261485   2266085   2270850  
  7140.000000   2275791   2280868   2286036   2291222   2296392  
  7130.000000   2301519   2306639   2311800   2317086   2322549  
  7120.000000   2328236   2334136   2340225   2346444   2352744  
  7110.000000   2359073   2365399   2371686   2377920   2384079  
  7100.000000   2390174   2396220   2402263   2408343   2414494  
  7090.000000   2420716   2426984   2433252   2439491   2445697  
  7080.000000   2451911   2458193   2464603   2471149   2477785  
  7070.000000   2484401   2490870   2497098   2503065   2508838  
  7060.000000   2514551   2520358   2526377   2532654   2539145  
  7050.000000   2545743   2552309   2558718   2564884   2570780  
  7040.000000   2576418   2581854   2587157   2592415   2597712  
  7030.000000   2603125   2608690   2614406   2620209   2626005  
  7020.000000   2631681   2637159   2642402   2647444   2652346  
  7010.000000   2657188   2662011   2666830   2671614   2676339  
  7000.000000   2680990   2685594   2690190   2694820   2699476  
  6990.000000   2704107   2708603   2712860   2716792   2720398  
  6980.000000   2723732   2726920   2730085   2733340   2736725  
  6970.000000   2740240   2743823   2747406   2750902   2754250  
  6960.000000   2757389   2760292   2762942   2765365   2767601  
  6950.000000   2769725   2771797   2773871   2775954   2778024  
  6940.000000   2780028   2781930   2783704   2785375   2786968  
  6930.000000   2788530   2790069   2791585   2793051   2794457  
  6920.000000   2795810   2797153   2798526   2799952   2801399  
  6910.000000   2802789   2804012   2804984   2805677   2806149  
  6900.000000   2806519   2806933   2807501   2808272   2809211  
  6890.000000   2810243   2811283   2812290   2813265   2814249  
  6880.000000   2815274   2816345   2817413   2818400   2819227  
  6870.000000   2819853   2820295   2820618   2820907   2821234  
  6860.000000   2821631   2822089   2822569   2823043   2823491  
  6850.000000   2823928   2824377   2824862   2825383   2825920  
  6840.000000   2826437   2826898   2827276   2827558   2827744  
  6830.000000   2827839   2827854   2827807   2827727   2827655  
  6820.000000   2827635   2827700   2827853   2828066   2828277  
  6810.000000   2828427   2828469   2828398   2828245   2828070  
  6800.000000   2827925   2827842   2827808   2827784   2827709  
  6790.000000   2827542   2827262   2826880   2826426   2825937  
  6780.000000   2825438   2824945   2824456   2823966   2823460  
  6770.000000   2822924   2822339   2821692   2820976   2820208  
  6760.000000   2819424   2818683   2818040   2817535   2817163  
  6750.000000   2816873   2816582   2816201   2815672   2814988  
  6740.000000   2814195   2813376   2812618   2811985   2811498  
  6730.000000   2811140   2810873   2810659   2810473   2810304  
  6720.000000   2810140   2809963   2809729   2809387   2808883  
  6710.000000   2808193   2807327   2806332   2805279   2804241  
  6700.000000   2803273   2802401   2801617   2800899   2800205  
  6690.000000   2799507   2798776   2798006   2797190   2796339  
  6680.000000   2795459   2794560   2793638   2792685   2791674  
  6670.000000   2790576   2789359   2788012   2786537   2784968  
  6660.000000   2783345   2781717   2780115   2778565   2777065  
  6650.000000   2775620   2774223   2772884   2771600   2770370  
  6640.000000   2769165   2767946   2766655   2765247   2763692  
  6630.000000   2761997   2760197   2758345   2756494   2754680  
  6620.000000   2752914   2751183   2749459   2747712   2745910  
  6610.000000   2744038   2742082   2740049   2737948   2735812  
  6600.000000   2733678   2731594   2729596   2727708   2725919  
  6590.000000   2724196   2722485   2720733   2718901   2716977  
  6580.000000   2714977   2712933   2710883   2708857   2706872  
  6570.000000   2704930   2703028   2701160   2699324   2697520  
  6560.000000   2695750   2694016   2692317   2690650   2689011  
  6550.000000   2687388   2685767   2684123   2682438   2680694  
  6540.000000   2678897   2677071   2675259   2673509   2671859  
  6530.000000   2670324   2668887   2667508   2666140   2664741  
  6520.000000   2663295   2661804   2660282   2658745   2657202  
  6510.000000   2655650   2654085   2652505   2650926   2649370  
  6500.000000   2647860   2646409   2645013   2643649   2642290  
  6490.000000   2640913   2639509   2638087   2636662   2635246  
  6480.000000   2633845   2632453   2631064   2629677   2628299  
  6470.000000   2626946   2625627   2624340   2623071   2621802  
  6460.000000   2620525   2619255   2618026   2616883   2615855  
  6450.000000   2614933   2614071   2613188   2612207   2611077  
  6440.000000   2609802   2608434   2607058   2605749   2604552  
  6430.000000   2603463   2602440   2601430   2600394   2599321  
  6420.000000   2598234   2597171   2596166   2595229   2594357  
  6410.000000   2593529   2592732   2591956   2591208   2590490  
  6400.000000   2589800   2589121   2588440   2587744   2587042  
  6390.000000   2586358   2585722   2585154   2584651   2584186  
  6380.000000   2583718   2583213   2582658   2582069   2581483  
  6370.000000   2580937   2580450   2580012   2579592   2579150  
  6360.000000   2578657   2578107   2577510   2576883   2576231  
  6350.000000   2575544   2574796   2573966   2573050   2572071  
  6340.000000   2571068   2570086   2569149   2568259   2567388  
  6330.000000   2566501   2565567   2564581   2563552   2562507  
  6320.000000   2561463   2560431   2559395   2558342   2557253  
  6310.000000   2556129   2554976   2553807   2552619   2551401  
  6300.000000   2550124   2548767   2547321   2545811   2544278  
  6290.000000   2542776   2541342   2539990   2538700   2537434  
  6280.000000   2536143   2534792   2533365   2531868   2530318  
  6270.000000   2528740   2527150   2525563   2523981   2522405  
  6260.000000   2520826   2519232   2517603   2515921   2514177  
  6250.000000   2512375   2510537   2508700   2506899   2505159  
  6240.000000   2503478   2501838   2500207   2498559   2496886  
  6230.000000   2495204   2493541   2491924   2490363   2488845  
  6220.000000   2487341   2485812   2484230   2482584   2480888  
  6210.000000   2479163   2477440   2475743   2474090   2472498  
  6200.000000   2470979   2469545   2468195   2466914   2465667  
  6190.000000   2464405   2463082   2461667   2460164   2458603  
  6180.000000   2457040   2455525   2454097   2452762   2451509  
  6170.000000   2450313   2449156   2448029   2446934   2445874  
  6160.000000   2444843   2443820   2442781   2441705   2440589  
  6150.000000   2439447   2438310   2437202   2436132   2435086  
  6140.000000   2434035   2432947   2431812   2430647   2429492  
  6130.000000   2428391   2427382   2426468   2425631   2424827  
  6120.000000   2424018   2423174   2422296   2421396   2420504  
  6110.000000   2419641   2418832   2418084   2417415   2416828  
  6100.000000   2416334   2415926   2415590   2415291   2415000  
  6090.000000   2414686   2414351   2414012   2413721   2413518  
  6080.000000   2413443   2413497   2413663   2413894   2414155  
  6070.000000   2414415   2414675   2414945   2415257   2415626  
  6060.000000   2416073   2416596   2417205   2417895   2418678  
  6050.000000   2419552   2420522   2421572   2422691   2423856  
  6040.000000   2425066   2426320   2427640   2429038   2430531  
  6030.000000   2432107   2433751   2435429   2437123   2438815  
  6020.000000   2440515   2442228   2443967   2445726   2447497  
  6010.000000   2449254   2450991   2452702   2454413   2456147  
  6000.000000   2457941   2459808   2461758   2463773   2465838  
  5990.000000   2467931   2470045   2472176   2474331   2476517  
  5980.000000   2478747   2481028   2483385   2485829   2488386  
  5970.000000   2491056   2493835   2496684   2499568   2502431  
  5960.000000   2505251   2508017   2510758   2513510   2516326  
  5950.000000   2519236   2522263   2525401   2528646   2531986  
  5940.000000   2535420   2538954   2542594   2546341   2550181  
  5930.000000   2554085   2558015   2561930   2565788   2569552  
  5920.000000   2573190   2576668   2579962   2583052   2585936  
  5910.000000   2588627   2591153   2593549   2595850   2598088  
  5900.000000   2600284   2602471   2604675   2606945   2609325  
  5890.000000   2611864   2614579   2617468   2620484   2623566  
  5880.000000   2626632   2629610   2632441   2635085   2637526  
  5870.000000   2639758   2641792   2643648   2645367   2646999  
  5860.000000   2648608   2650255   2651986   2653827   2655780  
  5850.000000   2657833   2659969   2662181   2664471   2666848  
  5840.000000   2669322   2671888   2674531   2677218   2679920  
  5830.000000   2682611   2685281   2687928   2690560   2693175  
  5820.000000   2695771   2698332   2700850   2703317   2705741  
  5810.000000   2708145   2710548   2712982   2715458   2717997  
  5800.000000   2720590   2723253   2725965   2728732   2731507  
  5790.000000   2734264   2736919   2739408   2741619   2743474  
  5780.000000   2744862   2745715   2745952   2745548   2744493  
  5770.000000   2742852   2740715   2738243   2735591   2732929  
  5760.000000   2730367   2727989   2725798   2723790   2721918  
  5750.000000   2720169   2718525   2716999   2715603   2714346  
  5740.000000   2713223   2712214   2711297   2710444   2709640  
  5730.000000   2708866   2708119   2707379   2706645   2705903  
  5720.000000   2705161   2704428   2703729   2703082   2702503  
  5710.000000   2701985   2701516   2701070   2700629   2700185  
  5700.000000   2699747   2699332   2698959   2698643   2698382  
  5690.000000   2698177   2698011   2697880   2697767   2697668  
  5680.000000   2697556   2697407   2697175   2696824   2696308  
  5670.000000   2695600   2694675   2693524   2692140   2690528  
  5660.000000   2688698   2686683   2684525   2682291   2680041  
  5650.000000   2677837   2675709   2673672   2671709   2669805  
  5640.000000   2667942   2666119   2664348   2662648   2661035  
  5630.000000   2659516   2658089   2656740   2655464   2654246  
  5620.000000   2653088   2651975   2650899   2649835   2648766  
  5610.000000   2647678   2646578   2645484   2644434   2643455  
  5600.000000   2642568   2641766   2641026   2640313   2639596  
  5590.000000   2638857   2638091   2637304   2636504   2635692  
  5580.000000   2634865   2634018   2633148   2632262   2631371  
  5570.000000   2630486   2629608   2628726   2627821   2626875  
  5560.000000   2625877   2624832   2623757   2622674   2621597  
  5550.000000   2620530   2619461   2618376   2617263   2616123  
  5540.000000   2614965   2613808   2612667   2611548   2610449  
  5530.000000   2609363   2608283   2607214   2606162   2605139  
  5520.000000   2604150   2603191   2602249   2601308   2600350  
  5510.000000   2599366   2598347   2597290   2596189   2595042  
  5500.000000   2593847   2592617   2591371   2590141   2588950  
  5490.000000   2587807   2586694   2585571   2584386   2583097  
  5480.000000   2581680   2580146   2578528   2576871   2575214  
  5470.000000   2573580   2571969   2570374   2568780   2567183  
  5460.000000   2565580   2563975   2562361   2560732   2559074  
  5450.000000   2557384   2555670   2553950   2552255   2550602  
  5440.000000   2548999   2547435   2545895   2544366   2542862  
  5430.000000   2541402   2540022   2538736   2537549   2536425  
  5420.000000   2535338   2534255   2533185   2532156   2531236  
  5410.000000   2530474   2529911   2529534   2529322   2529218  
  5400.000000   2529202   2529253   2529396   2529641   2530021  
  5390.000000   2530525   2531162   2531908   2532786   2533810  
  5380.000000   2535042   2536506   2538244   2540225   2542431  
  5370.000000   2544786   2547271   2549834   2552513   2555302  
  5360.000000   2558270   2561416   2564810   2568444   2572404  
  5350.000000   2576702   2581445   2586646   2592389   2598636  
  5340.000000   2605421   2612661   2620389   2628538   2637174  
  5330.000000   2646246   2655833   2665879   2676457   2687518  
  5320.000000   2699170   2711403   2724368   2738066   2752645  
  5310.000000   2768062   2784411   2801598   2819685   2838578  
  5300.000000   2858357   2878962   2900511   2922974   2946473  
  5290.000000   2970959   2996489   3022930   3050230   3078191  
  5280.000000   3106744   3135762   3165298   3195379   3226157  
  5270.000000   3257682   3289983   3322923   3356289   3389805  
  5260.000000   3423225   3456419   3489349   3522102   3554727  
  5250.000000   3587276   3619617   3651601   3682920   3713407  
  5240.000000   3742845   3771276   3798686   3825280   3851094  
  5230.000000   3876298   3900813   3924672   3947677   3969803  
  5220.000000   3990871   4010947   4029972   4048133   4065456  
  5210.000000   4082143   4098161   4113591   4128264   4142159  
  5200.000000   4155086   4167089   4178095   4188269   4197614  
  5190.000000   4206292   4214256   4221582   4228158   4234036  
  5180.000000   4239133   4243549   4247248   4250339   4252769  
  5170.000000   4254605   4255772   4256339   4256272   4255683  
  5160.000000   4254575   4253056   4251099   4248762   4245985  
  5150.000000   4242812   4239208   4235247   4230918   4226290  
  5140.000000   4221336   4216092   4210524   4204678   4198560  
  5130.000000   4192249   4185772   4179191   4172497   4165700  
  5120.000000   4158758   4151679   4144455   4137135   4129754  
  5110.000000   4122370   4115001   4107666   4100345   4093032  
  5100.000000   4085708   4078382   4071056   4063747   4056455  
  5090.000000   4049186   4041927   4034682   4027449   4020241  
  5080.000000   4013063   4005921   3998796   3991671   3984510  
  5070.000000   3977296   3970015   3962683   3955311   3947929  
  5060.000000   3940542   3933159   3925760   3918335   3910862  
  5050.000000   3903337   3895750   3888109   3880407   3872646  
  5040.000000   3864818   3856925   3848968   3840967   3832942  
  5030.000000   3824925   3816941   3809012   3801151   3793364  
  5020.000000   3785656   3778027   3770485   3763033   3755684  
  5010.000000   3748440   3741315   3734304   3727421   3720659  
  5000.000000   3714036   3707547   3701217   3695041   3689047  
  4990.000000   3683230   3677620   3672208   3667028   3662069  
  4980.000000   3657365   3652903   3648718   3644793   3641161  
  4970.000000   3637797   3634730   3631926   3629413   3627157  
  4960.000000   3625194   3623502   3622133   3621077   3620392  
  4950.000000   3620061   3620131   3620565   3621391   3622560  
  4940.000000   3624098   3625962   3628188   3630745   3633672  
  4930.000000   3636935   3640564   3644517   3648820   3653430  
  4920.000000   3658374   3663613   3669171   3675006   3681130  
  4910.000000   3687498   3694112   3700934   3707965   3715178  
  4900.000000   3722569   3730113   3737792   3745573   3753421  
  4890.000000   3761300   3769161   3776966   3784653   3792187  
  4880.000000   3799500   3806564   3813319   3819754   3825813  
  4870.000000   3831494   3836739   3841551   3845874   3849727  
  4860.000000   3853079   3855978   3858424   3860484   3862167  
  4850.000000   3863535   3864586   3865368   3865877   3866165  
  4840.000000   3866244   3866182   3866010   3865795   3865565  
  4830.000000   3865360   3865183   3865040   3864911   3864784  
  4820.000000   3864641   3864484   3864322   3864181   3864098  
  4810.000000   3864103   3864229   3864487   3864879   3865385  
  4800.000000   3865988   3866658   3867387   3868164   3869000  
  4790.000000   3869901   3870884   3871947   3873093   3874308  
  4780.000000   3875584   3876906   3878269   3879667   3881100  
  4770.000000   3882560   3884038   3885519   3886986   3888420  
  4760.000000   3889806   3891134   3892397   3893594   3894721  
  4750.000000   3895782   3896773   3897706   3898586   3899430  
  4740.000000   3900251   3901064   3901873   3902677   3903461  
  4730.000000   3904208   3904897   3905512   3906045   3906500  
  4720.000000   3906889   3907230   3907551   3907874   3908230  
  4710.000000   3908641   3909137   3909736   3910465   3911333  
  4700.000000   3912358   3913535   3914871   3916355   3917990  
  4690.000000   3919767   3921691   3923753   3925954   3928272  
  4680.000000   3930691   3933169   3935674   3938153   3940577  
  4670.000000   3942904   3945131   3947251   3949298   3951301  
  4660.000000   3953322   3955410   3957627   3960010   3962590  
  4650.000000   3965370   3968343   3971479   3974747   3978115  
  4640.000000   3981551   3985039   3988563   3992116   3995687  
  4630.000000   3999264   4002821   4006334   4009761   4013069  
  4620.000000   4016208   4019143   4021823   4024222   4026298  
  4610.000000   4028053   4029477   4030614   4031496   4032201  
  4600.000000   4032776   4033296   4033776   4034251   4034686  
  4590.000000   4035074   4035350   4035492   4035440   4035183  
  4580.000000   4034681   4033940   4032940   4031700   4030214  
  4570.000000   4028513   4026607   4024536   4022321   4020005  
  4560.000000   4017603   4015149   4012647   4010119   4007559  
  4550.000000   4004983   4002391   3999796   3997199   3994610  
  4540.000000   3992026   3989445   3986860   3984263   3981651  
  4530.000000   3979018   3976370   3973706   3971043   3968381  
  4520.000000   3965749   3963150   3960627   3958187   3955884  
  4510.000000   3953727   3951783   3950059   3948635   3947519  
  4500.000000   3946797   3946472   3946623   3947231   3948367  
  4490.000000   3949995   3952185   3954908   3958251   3962197  
  4480.000000   3966846   3972178   3978277   3985103   3992709  
  4470.000000   4001026   4010080   4019780   4030133   4041038  
  4460.000000   4052494   4064400   4076755   4089472   4102548  
  4450.000000   4115908   4129546   4143399   4157456   4171665  
  4440.000000   4186014   4200467   4215003   4229593   4244198  
  4430.000000   4258789   4273302   4287708   4301928   4315941  
  4420.000000   4329663   4343082   4356109   4368726   4380832  
  4410.000000   4392394   4403299   4413512   4422936   4431575  
  4400.000000   4439390   4446450   4452790   4458537   4463768  
  4390.000000   4468634   4473219   4477658   4482019   4486404  
  4380.000000   4490847   4495407   4500087   4504910   4509868  
  4370.000000   4514981   4520256   4525719   4531390   4537290  
  4360.000000   4543417   4549770   4556305   4563000   4569768  
  4350.000000   4576580   4583323   4589985   4596465   4602792  
  4340.000000   4608904   4614846   4620519   4625840   4630514  
  4330.000000   4634194   4636369   4636574   4634401   4629712  
  4320.000000   4622636   4613657   4603466   4592907   4582745  
  4310.000000   4573612   4565854   4559603   4554757   4551130  
  4300.000000   4548487   4546639   4545456   4544842   4544768  
  4290.000000   4545164   4546021   4547263   4548889   4550843  
  4280.000000   4553135   4555726   4558602   4561720   4565028  
  4270.000000   4568485   4572026   4575595   4579065   4582273  
  4260.000000   4584954   4586808   4587506   4586801   4584556  
  4250.000000   4580838   4575870   4570054   4563824   4557639  
  4240.000000   4551826   4546622   4542077   4538160   4534731  
  4230.000000   4531652   4528773   4525989   4523232   4520466  
  4220.000000   4517709   4514979   4512354   4509884   4507680  
  4210.000000   4505790   4504305   4503233   4502606   4502381  
  4200.000000   4502544   4503025   4503799   4504799   4506008  
  4190.000000   4507367   4508875   4510480   4512197   4513993  
  4180.000000   4515901   4517903   4520050   4522333   4524813  
  4170.000000   4527495   4530453   4533705   4537330   4541341  
  4160.000000   4545797   4550682   4556022   4561767   4567928  
  4150.000000   4574446   4581340   4588558   4596133   4604024  
  4140.000000   4612274   4620852   4629813   4639134   4648881  
  4130.000000   4659029   4669637   4680667   4692161   4704074  
  4120.000000   4716440   4729227   4742484   4756204   4770450  
  4110.000000   4785222   4800566   4816446   4832848   4849675  
  4100.000000   4866855   4884266   4901830   4919469   4937157  
  4090.000000   4954883   4972656   4990484   5008354   5026256  
  4080.000000   5044143   5062006   5079801   5097541   5115178  
  4070.000000   5132708   5150027   5167077   5183704   5199845  
  4060.000000   5215372   5230293   5244549   5258215   5271268  
  4050.000000   5283801   5295785   5307313   5318340   5328943  
  4040.000000   5339045   5348689   5357759   5366278   5374138  
  4030.000000   5381394   5387979   5393972   5399319   5404069  
  4020.000000   5408118   5411496   5414153   5416143   5417417  
  4010.000000   5418098   5418259   5417933   5416939   5415350  
  4000.000000   5413463  
##END= 
