##TITLE= Sample 004 By ssteindl date Dienstag, November 20 2018
##JCAMP-DX= 4.24
##DATA TYPE= INFRARED SPECTRUM
##ORIGIN= Exported PE Spectrum Data File
##OWNER= Sandra Steindl
##DATE= 18/11/20
##TIME= 16:55:58.00
##SPECTROMETER/DATA SYSTEM= PERKIN-ELMER Frontier FT-IR/NIR IR
##INSTRUMENT PARAMETERS=
  APODIZATION=stark
  DETECTOR=INGAAS
##RESOLUTION= 16.000000
##DELTAX= -2.000000
##XUNITS= 1/CM
##YUNITS= A
##XFACTOR= 1.00
##YFACTOR= 0.00000011920928955078
##FIRSTX= 10000.00
##LASTX= 4000.00
##NPOINTS= 3001
##FIRSTY= 0.234899
##MAXY= 0.602984
##MINY= 0.193267
##XYDATA= (X++(Y..Y))
 10000.000000   1970478   1969945   1969516   1969514   1970187  
  9990.000000   1971353   1972265   1972046   1970243   1967151  
  9980.000000   1963631   1960769   1959375   1959659   1961103  
  9970.000000   1962717   1963472   1962707   1960350   1956835  
  9960.000000   1952867   1949050   1945705   1942831   1940276  
  9950.000000   1937924   1935836   1934220   1933315   1933262  
  9940.000000   1933979   1935248   1936742   1938206   1939520  
  9930.000000   1940685   1941821   1942976   1944134   1945061  
  9920.000000   1945405   1944754   1942812   1939552   1935272  
  9910.000000   1930636   1926487   1923733   1923018   1924601  
  9900.000000   1928156   1932871   1937572   1941073   1942446  
  9890.000000   1941287   1937766   1932530   1926489   1920524  
  9880.000000   1915352   1911359   1908673   1907142   1906413  
  9870.000000   1905978   1905253   1903748   1901219   1897833  
  9860.000000   1894178   1891123   1889562   1890013   1892456  
  9850.000000   1896172   1900100   1903115   1904525   1904285  
  9840.000000   1902937   1901411   1900523   1900813   1902332  
  9830.000000   1904887   1908204   1912111   1916525   1921225  
  9820.000000   1925664   1928822   1929428   1926325   1919030  
  9810.000000   1908043   1894912   1881837   1871052   1864177  
  9800.000000   1861783   1863403   1867781   1873449   1879108  
  9790.000000   1883955   1887651   1890176   1891674   1892276  
  9780.000000   1892221   1891771   1891374   1891416   1892172  
  9770.000000   1893582   1895252   1896669   1897375   1897374  
  9760.000000   1897054   1897189   1898456   1901145   1904879  
  9750.000000   1908663   1911218   1911367   1908511   1902750  
  9740.000000   1894892   1886093   1877536   1870141   1864436  
  9730.000000   1860662   1858833   1858913   1860762   1864166  
  9720.000000   1868707   1873839   1878868   1883156   1886195  
  9710.000000   1887724   1887788   1886627   1884712   1882485  
  9700.000000   1880393   1878648   1877237   1875851   1873982  
  9690.000000   1871108   1866909   1861535   1855613   1850228  
  9680.000000   1846487   1845251   1846667   1850192   1854690  
  9670.000000   1858890   1861825   1863090   1862919   1861832  
  9660.000000   1860380   1858714   1856623   1853605   1849271  
  9650.000000   1843637   1837275   1831254   1826715   1824600  
  9640.000000   1825193   1828245   1832970   1838460   1843814  
  9630.000000   1848292   1851302   1852312   1850955   1847011  
  9620.000000   1840691   1832555   1823598   1814888   1807386  
  9610.000000   1801593   1797544   1794887   1793169   1792116  
  9600.000000   1791761   1792390   1794336   1797680   1802170  
  9590.000000   1807180   1812025   1816159   1819437   1822091  
  9580.000000   1824601   1827458   1830967   1835208   1840059  
  9570.000000   1845338   1850825   1856265   1861234   1865109  
  9560.000000   1867076   1866382   1862578   1855851   1847046  
  9550.000000   1837576   1828969   1822460   1818583   1817132  
  9540.000000   1817284   1818007   1818371   1817836   1816265  
  9530.000000   1813848   1810938   1807907   1805127   1802919  
  9520.000000   1801627   1801492   1802651   1804965   1808063  
  9510.000000   1811373   1814327   1816538   1817914   1818650  
  9500.000000   1819073   1819467   1819925   1820349   1820518  
  9490.000000   1820273   1819579   1818597   1817541   1816606  
  9480.000000   1815822   1815072   1814114   1812720   1810714  
  9470.000000   1808037   1804679   1800675   1796087   1791074  
  9460.000000   1785950   1781211   1777433   1775084   1774329  
  9450.000000   1774870   1776055   1777027   1777116   1776025  
  9440.000000   1773973   1771525   1769349   1767923   1767422  
  9430.000000   1767741   1768713   1770246   1772439   1775463  
  9420.000000   1779361   1783825   1788132   1791316   1792550  
  9410.000000   1791499   1788541   1784639   1781008   1778640  
  9400.000000   1777934   1778624   1779921   1780973   1781200  
  9390.000000   1780585   1779533   1778634   1778265   1778425  
  9380.000000   1778745   1778687   1777825   1776009   1773428  
  9370.000000   1770472   1767546   1764945   1762776   1761087  
  9360.000000   1759923   1759433   1759793   1761063   1763073  
  9350.000000   1765303   1767055   1767608   1766540   1763845  
  9340.000000   1759970   1755642   1751657   1748684   1747127  
  9330.000000   1747156   1748696   1751565   1755427   1759852  
  9320.000000   1764249   1767955   1770326   1770924   1769663  
  9310.000000   1766814   1762948   1758678   1754527   1750749  
  9300.000000   1747377   1744318   1741500   1739004   1737006  
  9290.000000   1735736   1735245   1735413   1735900   1736352  
  9280.000000   1736530   1736431   1736289   1736357   1736818  
  9270.000000   1737558   1738286   1738535   1737931   1736293  
  9260.000000   1733774   1730803   1727926   1725676   1724410  
  9250.000000   1724356   1725579   1728071   1731674   1736075  
  9240.000000   1740741   1744956   1747943   1749014   1747840  
  9230.000000   1744547   1739785   1734478   1729584   1725780  
  9220.000000   1723330   1722095   1721661   1721617   1721706  
  9210.000000   1721954   1722537   1723675   1725409   1727548  
  9200.000000   1729670   1731273   1731983   1731653   1730462  
  9190.000000   1728812   1727222   1726135   1725763   1726064  
  9180.000000   1726752   1727462   1727848   1727712   1727037  
  9170.000000   1725963   1724710   1723462   1722287   1721091  
  9160.000000   1719682   1717859   1715553   1712880   1710148  
  9150.000000   1707781   1706189   1705644   1706172   1707564  
  9140.000000   1709453   1711437   1713186   1714507   1715334  
  9130.000000   1715700   1715664   1715290   1714649   1713862  
  9120.000000   1713133   1712678   1712646   1713010   1713532  
  9110.000000   1713774   1713214   1711439   1708344   1704220  
  9100.000000   1699694   1695561   1692498   1690904   1690734  
  9090.000000   1691622   1692995   1694353   1695410   1696142  
  9080.000000   1696716   1697298   1697946   1698447   1698426  
  9070.000000   1697419   1695163   1691671   1687332   1682797  
  9060.000000   1678826   1676112   1675050   1675718   1677814  
  9050.000000   1680854   1684270   1687560   1690352   1692420  
  9040.000000   1693694   1694143   1693781   1692600   1690683  
  9030.000000   1688140   1685215   1682209   1679524   1677529  
  9020.000000   1676474   1676451   1677336   1678886   1680749  
  9010.000000   1682638   1684378   1685970   1687536   1689238  
  9000.000000   1691197   1693390   1695642   1697633   1699008  
  8990.000000   1699487   1698974   1697606   1695717   1693774  
  8980.000000   1692227   1691396   1691342   1691879   1692620  
  8970.000000   1693129   1693041   1692200   1690661   1688697  
  8960.000000   1686652   1684870   1683569   1682828   1682613  
  8950.000000   1682803   1683282   1683915   1684575   1685065  
  8940.000000   1685125   1684471   1682900   1680403   1677251  
  8930.000000   1673988   1671336   1669970   1670291   1672260  
  8920.000000   1675384   1678848   1681779   1683490   1683716  
  8910.000000   1682637   1680802   1678877   1677419   1676713  
  8900.000000   1676756   1677357   1678273   1679362   1680605  
  8890.000000   1682089   1683859   1685854   1687830   1689418  
  8880.000000   1690244   1690030   1688753   1686581   1683890  
  8870.000000   1681060   1678430   1676198   1674439   1673171  
  8860.000000   1672392   1672190   1672684   1674040   1676306  
  8850.000000   1679435   1683188   1687219   1691097   1694419  
  8840.000000   1696912   1698413   1698908   1698422   1697065  
  8830.000000   1694925   1692138   1688848   1685285   1681744  
  8820.000000   1678568   1676107   1674604   1674200   1674846  
  8810.000000   1676383   1678557   1681122   1683878   1686687  
  8800.000000   1689455   1692077   1694424   1696324   1697620  
  8790.000000   1698222   1698207   1697807   1697396   1697353  
  8780.000000   1697935   1699159   1700750   1702223   1703002  
  8770.000000   1702642   1700975   1698207   1694875   1691691  
  8760.000000   1689325   1688204   1688385   1689569   1691224  
  8750.000000   1692772   1693792   1694145   1693991   1693710  
  8740.000000   1693715   1694327   1695637   1697524   1699707  
  8730.000000   1701879   1703829   1705482   1706902   1708167  
  8720.000000   1709299   1710169   1710529   1710079   1708615  
  8710.000000   1706139   1702932   1699520   1696535   1694576  
  8700.000000   1694026   1694991   1697258   1700394   1703848  
  8690.000000   1707093   1709720   1711485   1712328   1712350  
  8680.000000   1711811   1711049   1710449   1710318   1710852  
  8670.000000   1712047   1713711   1715503   1717041   1718027  
  8660.000000   1718344   1718089   1717535   1717002   1716758  
  8650.000000   1716911   1717445   1718222   1719111   1720038  
  8640.000000   1721032   1722212   1723687   1725545   1727774  
  8630.000000   1730332   1733147   1736172   1739379   1742693  
  8620.000000   1745955   1748846   1750970   1751913   1751438  
  8610.000000   1749573   1746682   1743390   1740416   1738390  
  8600.000000   1737647   1738218   1739828   1742088   1744591  
  8590.000000   1747075   1749404   1751544   1753444   1755004  
  8580.000000   1756078   1756526   1756327   1755582   1754568  
  8570.000000   1753592   1752924   1752662   1752735   1752932  
  8560.000000   1753015   1752833   1752387   1751838   1751421  
  8550.000000   1751372   1751828   1752814   1754251   1756010  
  8540.000000   1757971   1760029   1762119   1764149   1766032  
  8530.000000   1767640   1768883   1769697   1770117   1770241  
  8520.000000   1770232   1770252   1770432   1770861   1771581  
  8510.000000   1772630   1774028   1775802   1777935   1780349  
  8500.000000   1782877   1785289   1787341   1788846   1789728  
  8490.000000   1790047   1789984   1789778   1789657   1789782  
  8480.000000   1790216   1790936   1791860   1792890   1793925  
  8470.000000   1794884   1795691   1796297   1796665   1796806  
  8460.000000   1796781   1796710   1796750   1797051   1797712  
  8450.000000   1798741   1800061   1801511   1802898   1804042  
  8440.000000   1804822   1805210   1805252   1805087   1804896  
  8430.000000   1804887   1805229   1806044   1807353   1809073  
  8420.000000   1810994   1812836   1814298   1815129   1815190  
  8410.000000   1814478   1813141   1811421   1809599   1807916  
  8400.000000   1806537   1805541   1804931   1804679   1804733  
  8390.000000   1805071   1805659   1806487   1807509   1808673  
  8380.000000   1809892   1811073   1812114   1812920   1813410  
  8370.000000   1813519   1813216   1812497   1811407   1810022  
  8360.000000   1808459   1806833   1805235   1803709   1802244  
  8350.000000   1800806   1799354   1797896   1796503   1795306  
  8340.000000   1794458   1794073   1794181   1794692   1795434  
  8330.000000   1796185   1796762   1797065   1797128   1797074  
  8320.000000   1797084   1797311   1797848   1798688   1799739  
  8310.000000   1800860   1801896   1802729   1803279   1803514  
  8300.000000   1803427   1803046   1802422   1801635   1800780  
  8290.000000   1799956   1799231   1798635   1798108   1797565  
  8280.000000   1796892   1796059   1795106   1794188   1793485  
  8270.000000   1793158   1793240   1793598   1793936   1793872  
  8260.000000   1793087   1791412   1788929   1785919   1782798  
  8250.000000   1779969   1777699   1776074   1774995   1774291  
  8240.000000   1773805   1773489   1773393   1773633   1774277  
  8230.000000   1775278   1776421   1777369   1777769   1777361  
  8220.000000   1776094   1774110   1771737   1769338   1767228  
  8210.000000   1765559   1764295   1763261   1762210   1760952  
  8200.000000   1759398   1757618   1755783   1754144   1752917  
  8190.000000   1752257   1752178   1752562   1753174   1753713  
  8180.000000   1753887   1753475   1752385   1750660   1748475  
  8170.000000   1746075   1743713   1741575   1739741   1738185  
  8160.000000   1736808   1735504   1734205   1732921   1731711  
  8150.000000   1730671   1729849   1729236   1728730   1728185  
  8140.000000   1727460   1726474   1725245   1723866   1722482  
  8130.000000   1721207   1720096   1719117   1718176   1717160  
  8120.000000   1715997   1714685   1713307   1711998   1710893  
  8110.000000   1710078   1709554   1709243   1709009   1708710  
  8100.000000   1708243   1707578   1706759   1705892   1705097  
  8090.000000   1704470   1704045   1703778   1703568   1703274  
  8080.000000   1702774   1701979   1700871   1699491   1697929  
  8070.000000   1696292   1694682   1693183   1691850   1690727  
  8060.000000   1689842   1689224   1688884   1688822   1688987  
  8050.000000   1689297   1689622   1689823   1689773   1689390  
  8040.000000   1688665   1687652   1686469   1685242   1684093  
  8030.000000   1683080   1682199   1681378   1680505   1679467  
  8020.000000   1678194   1676690   1675039   1673400   1671962  
  8010.000000   1670903   1670333   1670264   1670605   1671182  
  8000.000000   1671788   1672231   1672391   1672230   1671800  
  7990.000000   1671207   1670585   1670042   1669655   1669444  
  7980.000000   1669392   1669449   1669551   1669638   1669651  
  7970.000000   1669553   1669321   1668961   1668500   1667987  
  7960.000000   1667480   1667031   1666672   1666404   1666196  
  7950.000000   1665998   1665751   1665419   1664986   1664476  
  7940.000000   1663940   1663444   1663053   1662807   1662715  
  7930.000000   1662729   1662771   1662718   1662456   1661893  
  7920.000000   1661002   1659842   1658559   1657363   1656482  
  7910.000000   1656108   1656345   1657175   1658462   1659969  
  7900.000000   1661425   1662568   1663217   1663292   1662838  
  7890.000000   1661998   1660986   1660035   1659348   1659057  
  7880.000000   1659202   1659739   1660546   1661478   1662390  
  7870.000000   1663176   1663767   1664140   1664283   1664192  
  7860.000000   1663858   1663277   1662476   1661519   1660516  
  7850.000000   1659600   1658890   1658462   1658314   1658386  
  7840.000000   1658575   1658785   1658948   1659047   1659088  
  7830.000000   1659083   1659020   1658864   1658575   1658139  
  7820.000000   1657600   1657058   1656643   1656462   1656551  
  7810.000000   1656850   1657213   1657460   1657439   1657085  
  7800.000000   1656431   1655598   1654735   1653980   1653408  
  7790.000000   1653038   1652836   1652756   1652743   1652755  
  7780.000000   1652743   1652650   1652411   1651964   1651279  
  7770.000000   1650372   1649303   1648160   1647030   1645970  
  7760.000000   1645009   1644153   1643415   1642832   1642453  
  7750.000000   1642329   1642453   1642757   1643094   1643294  
  7740.000000   1643218   1642812   1642136   1641332   1640562  
  7730.000000   1639935   1639462   1639048   1638557   1637875  
  7720.000000   1636985   1635981   1635035   1634320   1633928  
  7710.000000   1633836   1633906   1633959   1633848   1633523  
  7700.000000   1633050   1632570   1632233   1632118   1632199  
  7690.000000   1632350   1632408   1632234   1631787   1631129  
  7680.000000   1630406   1629773   1629336   1629108   1629007  
  7670.000000   1628898   1628654   1628207   1627579   1626874  
  7660.000000   1626239   1625809   1625659   1625777   1626073  
  7650.000000   1626406   1626638   1626671   1626481   1626120  
  7640.000000   1625692   1625328   1625136   1625177   1625452  
  7630.000000   1625897   1626410   1626865   1627150   1627179  
  7620.000000   1626911   1626346   1625532   1624554   1623525  
  7610.000000   1622573   1621818   1621356   1621237   1621455  
  7600.000000   1621950   1622622   1623350   1624013   1624512  
  7590.000000   1624781   1624801   1624607   1624284   1623954  
  7580.000000   1623759   1623823   1624223   1624957   1625939  
  7570.000000   1627004   1627957   1628619   1628894   1628787  
  7560.000000   1628410   1627931   1627524   1627309   1627332  
  7550.000000   1627562   1627930   1628371   1628860   1629419  
  7540.000000   1630090   1630904   1631842   1632823   1633730  
  7530.000000   1634443   1634899   1635106   1635158   1635192  
  7520.000000   1635351   1635727   1636343   1637149   1638050  
  7510.000000   1638944   1639760   1640473   1641102   1641684  
  7500.000000   1642262   1642853   1643457   1644051   1644622  
  7490.000000   1645171   1645733   1646368   1647153   1648158  
  7480.000000   1649420   1650933   1652639   1654447   1656251  
  7470.000000   1657948   1659471   1660784   1661895   1662827  
  7460.000000   1663618   1664299   1664907   1665472   1666043  
  7450.000000   1666670   1667412   1668307   1669372   1670584  
  7440.000000   1671890   1673229   1674551   1675843   1677133  
  7430.000000   1678475   1679936   1681556   1683345   1685264  
  7420.000000   1687254   1689241   1691166   1692988   1694697  
  7410.000000   1696298   1697813   1699271   1700711   1702171  
  7400.000000   1703687   1705279   1706940   1708634   1710302  
  7390.000000   1711887   1713355   1714720   1716042   1717415  
  7380.000000   1718932   1720649   1722558   1724585   1726621  
  7370.000000   1728553   1730301   1731842   1733213   1734486  
  7360.000000   1735745   1737051   1738432   1739879   1741358  
  7350.000000   1742828   1744257   1745633   1746968   1748298  
  7340.000000   1749665   1751117   1752684   1754380   1756184  
  7330.000000   1758047   1759906   1761694   1763364   1764899  
  7320.000000   1766317   1767657   1768960   1770253   1771541  
  7310.000000   1772817   1774073   1775323   1776599   1777954  
  7300.000000   1779429   1781034   1782724   1784404   1785953  
  7290.000000   1787256   1788245   1788918   1789347   1789651  
  7280.000000   1789966   1790412   1791071   1791978   1793113  
  7270.000000   1794423   1795832   1797265   1798662   1799988  
  7260.000000   1801239   1802437   1803627   1804838   1806095  
  7250.000000   1807376   1808642   1809823   1810876   1811777  
  7240.000000   1812574   1813356   1814255   1815393   1816862  
  7230.000000   1818687   1820836   1823216   1825733   1828285  
  7220.000000   1830822   1833312   1835779   1838244   1840748  
  7210.000000   1843303   1845923   1848589   1851294   1854024  
  7200.000000   1856794   1859626   1862567   1865654   1868913  
  7190.000000   1872328   1875854   1879396   1882859   1886144  
  7180.000000   1889208   1892045   1894717   1897308   1899921  
  7170.000000   1902634   1905509   1908564   1911810   1915231  
  7160.000000   1918817   1922540   1926379   1930292   1934249  
  7150.000000   1938209   1942165   1946119   1950113   1954181  
  7140.000000   1958374   1962704   1967182   1971785   1976510  
  7130.000000   1981340   1986288   1991337   1996480   2001656  
  7120.000000   2006813   2011878   2016834   2021699   2026564  
  7110.000000   2031535   2036725   2042197   2047967   2053985  
  7100.000000   2060183   2066471   2072792   2079088   2085323  
  7090.000000   2091443   2097400   2103148   2108689   2114077  
  7080.000000   2119439   2124930   2130695   2136800   2143206  
  7070.000000   2149768   2156285   2162571   2168521   2174143  
  7060.000000   2179546   2184891   2190330   2195957   2201785  
  7050.000000   2207763   2213803   2219821   2225761   2231595  
  7040.000000   2237318   2242933   2248442   2253860   2259207  
  7030.000000   2264528   2269871   2275279   2280768   2286326  
  7020.000000   2291902   2297446   2302908   2308277   2313560  
  7010.000000   2318786   2323973   2329128   2334224   2339227  
  7000.000000   2344092   2348795   2353318   2357671   2361867  
  6990.000000   2365939   2369920   2373868   2377832   2381872  
  6980.000000   2386007   2390233   2394481   2398665   2402676  
  6970.000000   2406447   2409943   2413200   2416271   2419236  
  6960.000000   2422133   2424985   2427770   2430480   2433104  
  6950.000000   2435668   2438195   2440712   2443199   2445610  
  6940.000000   2447864   2449902   2451696   2453287   2454757  
  6930.000000   2456228   2457793   2459522   2461415   2463444  
  6920.000000   2465547   2467676   2469778   2471820   2473761  
  6910.000000   2475561   2477175   2478575   2479758   2480756  
  6900.000000   2481629   2482446   2483262   2484112   2485001  
  6890.000000   2485929   2486889   2487898   2488972   2490132  
  6880.000000   2491368   2492653   2493930   2495149   2496275  
  6870.000000   2497309   2498282   2499231   2500182   2501128  
  6860.000000   2502033   2502850   2503544   2504116   2504601  
  6850.000000   2505070   2505588   2506209   2506944   2507779  
  6840.000000   2508670   2509576   2510455   2511280   2512033  
  6830.000000   2512702   2513279   2513767   2514173   2514518  
  6820.000000   2514821   2515099   2515353   2515575   2515749  
  6810.000000   2515870   2515945   2516003   2516070   2516173  
  6800.000000   2516313   2516478   2516644   2516801   2516955  
  6790.000000   2517134   2517365   2517659   2517983   2518268  
  6780.000000   2518423   2518377   2518104   2517644   2517090  
  6770.000000   2516556   2516133   2515860   2515715   2515633  
  6760.000000   2515540   2515386   2515161   2514894   2514630  
  6750.000000   2514409   2514250   2514150   2514096   2514082  
  6740.000000   2514114   2514204   2514361   2514572   2514805  
  6730.000000   2515010   2515143   2515181   2515139   2515060  
  6720.000000   2515002   2515018   2515129   2515327   2515574  
  6710.000000   2515821   2516020   2516139   2516162   2516087  
  6700.000000   2515920   2515677   2515374   2515040   2514705  
  6690.000000   2514405   2514162   2513992   2513877   2513789  
  6680.000000   2513670   2513468   2513129   2512623   2511937  
  6670.000000   2511089   2510116   2509067   2507985   2506903  
  6660.000000   2505827   2504747   2503638   2502489   2501304  
  6650.000000   2500128   2499017   2498044   2497244   2496621  
  6640.000000   2496118   2495651   2495120   2494452   2493614  
  6630.000000   2492618   2491503   2490313   2489071   2487780  
  6620.000000   2486426   2485007   2483537   2482065   2480645  
  6610.000000   2479326   2478114   2476975   2475835   2474619  
  6600.000000   2473271   2471784   2470192   2468558   2466941  
  6590.000000   2465376   2463864   2462384   2460911   2459432  
  6580.000000   2457956   2456505   2455097   2453731   2452384  
  6570.000000   2451021   2449608   2448138   2446632   2445138  
  6560.000000   2443705   2442364   2441116   2439925   2438739  
  6550.000000   2437504   2436190   2434792   2433333   2431846  
  6540.000000   2430362   2428897   2427454   2426022   2424595  
  6530.000000   2423174   2421771   2420409   2419107   2417877  
  6520.000000   2416715   2415599   2414497   2413374   2412207  
  6510.000000   2410990   2409739   2408484   2407260   2406091  
  6500.000000   2404982   2403912   2402841   2401727   2400543  
  6490.000000   2399291   2398001   2396725   2395515   2394400  
  6480.000000   2393377   2392407   2391432   2390394   2389257  
  6470.000000   2388020   2386707   2385362   2384024   2382720  
  6460.000000   2381456   2380223   2379009   2377805   2376611  
  6450.000000   2375433   2374276   2373142   2372028   2370927  
  6440.000000   2369841   2368774   2367742   2366757   2365837  
  6430.000000   2364979   2364184   2363433   2362717   2362021  
  6420.000000   2361344   2360685   2360053   2359457   2358916  
  6410.000000   2358449   2358081   2357832   2357716   2357727  
  6400.000000   2357843   2358017   2358195   2358320   2358346  
  6390.000000   2358245   2358013   2357663   2357227   2356740  
  6380.000000   2356247   2355785   2355385   2355066   2354826  
  6370.000000   2354648   2354499   2354349   2354169   2353956  
  6360.000000   2353722   2353496   2353302   2353157   2353046  
  6350.000000   2352936   2352774   2352513   2352119   2351587  
  6340.000000   2350938   2350215   2349467   2348740   2348057  
  6330.000000   2347429   2346838   2346258   2345652   2344991  
  6320.000000   2344249   2343428   2342540   2341618   2340690  
  6310.000000   2339781   2338891   2338006   2337090   2336113  
  6300.000000   2335055   2333927   2332758   2331594   2330470  
  6290.000000   2329406   2328389   2327388   2326359   2325269  
  6280.000000   2324099   2322856   2321557   2320228   2318885  
  6270.000000   2317544   2316207   2314881   2313569   2312280  
  6260.000000   2311011   2309759   2308503   2307223   2305897  
  6250.000000   2304518   2303090   2301629   2300148   2298658  
  6240.000000   2297159   2295644   2294108   2292558   2291010  
  6230.000000   2289488   2288007   2286574   2285174   2283785  
  6220.000000   2282385   2280967   2279540   2278129   2276758  
  6210.000000   2275441   2274173   2272927   2271674   2270387  
  6200.000000   2269058   2267694   2266315   2264938   2263579  
  6190.000000   2262242   2260935   2259670   2258470   2257361  
  6180.000000   2256362   2255472   2254667   2253903   2253134  
  6170.000000   2252320   2251448   2250528   2249587   2248648  
  6160.000000   2247727   2246824   2245929   2245027   2244117  
  6150.000000   2243205   2242304   2241425   2240569   2239729  
  6140.000000   2238891   2238050   2237207   2236375   2235567  
  6130.000000   2234785   2234019   2233240   2232426   2231557  
  6120.000000   2230645   2229721   2228833   2228026   2227333  
  6110.000000   2226759   2226295   2225914   2225595   2225320  
  6100.000000   2225086   2224889   2224729   2224597   2224488  
  6090.000000   2224395   2224326   2224290   2224308   2224389  
  6080.000000   2224541   2224750   2225003   2225275   2225562  
  6070.000000   2225855   2226168   2226503   2226876   2227287  
  6060.000000   2227749   2228268   2228867   2229560   2230369  
  6050.000000   2231292   2232322   2233428   2234591   2235790  
  6040.000000   2237036   2238351   2239779   2241351   2243091  
  6030.000000   2244985   2247009   2249111   2251250   2253387  
  6020.000000   2255508   2257602   2259682   2261750   2263824  
  6010.000000   2265906   2268009   2270129   2272274   2274429  
  6000.000000   2276593   2278751   2280911   2283084   2285306  
  5990.000000   2287610   2290036   2292596   2295287   2298073  
  5980.000000   2300917   2303773   2306622   2309457   2312301  
  5970.000000   2315175   2318110   2321115   2324206   2327375  
  5960.000000   2330633   2333972   2337399   2340896   2344449  
  5950.000000   2348020   2351583   2355115   2358623   2362134  
  5940.000000   2365695   2369358   2373160   2377115   2381209  
  5930.000000   2385405   2389649   2393888   2398064   2402132  
  5920.000000   2406045   2409766   2413269   2416539   2419581  
  5910.000000   2422417   2425080   2427608   2430032   2432392  
  5900.000000   2434714   2437046   2439429   2441919   2444550  
  5890.000000   2447348   2450292   2453343   2456429   2459488  
  5880.000000   2462458   2465307   2468014   2470576   2472981  
  5870.000000   2475219   2477274   2479144   2480844   2482415  
  5860.000000   2483912   2485392   2486893   2488438   2490023  
  5850.000000   2491647   2493311   2495041   2496872   2498839  
  5840.000000   2500959   2503215   2505560   2507928   2510257  
  5830.000000   2512501   2514650   2516716   2518730   2520718  
  5820.000000   2522700   2524679   2526663   2528653   2530667  
  5810.000000   2532725   2534842   2537032   2539281   2541583  
  5800.000000   2543904   2546244   2548581   2550931   2553275  
  5790.000000   2555612   2557885   2560042   2561981   2563614  
  5780.000000   2564824   2565532   2565657   2565177   2564092  
  5770.000000   2562470   2560403   2558033   2555493   2552926  
  5760.000000   2550421   2548057   2545852   2543829   2541978  
  5750.000000   2540308   2538808   2537482   2536305   2535252  
  5740.000000   2534287   2533373   2532487   2531610   2530736  
  5730.000000   2529850   2528938   2527974   2526942   2525832  
  5720.000000   2524667   2523486   2522347   2521297   2520365  
  5710.000000   2519544   2518802   2518089   2517365   2516604  
  5700.000000   2515802   2514975   2514144   2513331   2512548  
  5690.000000   2511812   2511130   2510522   2509992   2509544  
  5680.000000   2509148   2508764   2508322   2507760   2507014  
  5670.000000   2506049   2504840   2503386   2501687   2499754  
  5660.000000   2497600   2495259   2492778   2490233   2487701  
  5650.000000   2485257   2482945   2480787   2478763   2476849  
  5640.000000   2475010   2473231   2471506   2469840   2468237  
  5630.000000   2466693   2465201   2463746   2462332   2460964  
  5620.000000   2459663   2458441   2457306   2456238   2455212  
  5610.000000   2454187   2453142   2452064   2450973   2449893  
  5600.000000   2448855   2447878   2446969   2446122   2445324  
  5590.000000   2444563   2443831   2443120   2442421   2441720  
  5580.000000   2441004   2440264   2439501   2438728   2437963  
  5570.000000   2437219   2436497   2435780   2435039   2434242  
  5560.000000   2433367   2432411   2431390   2430330   2429256  
  5550.000000   2428187   2427130   2426083   2425042   2424007  
  5540.000000   2422982   2421968   2420963   2419957   2418938  
  5530.000000   2417902   2416856   2415824   2414837   2413923  
  5520.000000   2413095   2412342   2411635   2410929   2410185  
  5510.000000   2409373   2408482   2407515   2406483   2405401  
  5500.000000   2404283   2403147   2402010   2400893   2399804  
  5490.000000   2398745   2397689   2396601   2395435   2394162  
  5480.000000   2392768   2391275   2389719   2388148   2386594  
  5470.000000   2385069   2383563   2382056   2380522   2378954  
  5460.000000   2377351   2375723   2374074   2372405   2370710  
  5450.000000   2368982   2367226   2365459   2363708   2361999  
  5440.000000   2360353   2358771   2357251   2355782   2354364  
  5430.000000   2352996   2351685   2350420   2349187   2347948  
  5420.000000   2346683   2345373   2344053   2342770   2341610  
  5410.000000   2340631   2339877   2339328   2338946   2338666  
  5400.000000   2338452   2338275   2338156   2338113   2338183  
  5390.000000   2338366   2338669   2339064   2339553   2340126  
  5380.000000   2340818   2341639   2342623   2343755   2345040  
  5370.000000   2346437   2347952   2349562   2351307   2353184  
  5360.000000   2355241   2357461   2359875   2362457   2365254  
  5350.000000   2368269   2371593   2375253   2379342   2383851  
  5340.000000   2388828   2394212   2400025   2406199   2412770  
  5330.000000   2419684   2426997   2434665   2442757   2451242  
  5320.000000   2460219   2469680   2479741   2490383   2501705  
  5310.000000   2513644   2526263   2539478   2553357   2567846  
  5300.000000   2583052   2598962   2615708   2633287   2651813  
  5290.000000   2671242   2691619   2712822   2734807   2757399  
  5280.000000   2780546   2804136   2828221   2852813   2878044  
  5270.000000   2903943   2930540   2957708   2985278   3013012  
  5260.000000   3040723   3068299   3095730   3123086   3150426  
  5250.000000   3177784   3205056   3232103   3258672   3284613  
  5240.000000   3309761   3334157   3357810   3380891   3403436  
  5230.000000   3425558   3447170   3468253   3488622   3508230  
  5220.000000   3526940   3544813   3561834   3578176   3593878  
  5210.000000   3609108   3623832   3638097   3651748   3664753  
  5200.000000   3676948   3688368   3698958   3708858   3718074  
  5190.000000   3726740   3734816   3742358   3749270   3755593  
  5180.000000   3761256   3766346   3770833   3774809   3778227  
  5170.000000   3781136   3783466   3785267   3786505   3787278  
  5160.000000   3787590   3787541   3787103   3786323   3785130  
  5150.000000   3783545   3781516   3779099   3776283   3773143  
  5140.000000   3769668   3765911   3761848   3757521   3752922  
  5130.000000   3748111   3743103   3737959   3732681   3727300  
  5120.000000   3721796   3716186   3710461   3704655   3698784  
  5110.000000   3692889   3686989   3681113   3675265   3669466  
  5100.000000   3663719   3658040   3652429   3646889   3641401  
  5090.000000   3635949   3630508   3625068   3619624   3614191  
  5080.000000   3608777   3603395   3598041   3592702   3587354  
  5070.000000   3581980   3576559   3571091   3565569   3560003  
  5060.000000   3554382   3548704   3542950   3537113   3531180  
  5050.000000   3525152   3519025   3512804   3506483   3500064  
  5040.000000   3493541   3486928   3480245   3473530   3466823  
  5030.000000   3460168   3453596   3447119   3440736   3434428  
  5020.000000   3428176   3421957   3415767   3409606   3403497  
  5010.000000   3397460   3391533   3385733   3380092   3374606  
  5000.000000   3369288   3364113   3359084   3354176   3349405  
  4990.000000   3344768   3340308   3336037   3332006   3328212  
  4980.000000   3324686   3321399   3318363   3315540   3312957  
  4970.000000   3310595   3308504   3306683   3305187   3304001  
  4960.000000   3303164   3302640   3302455   3302568   3303012  
  4950.000000   3303751   3304829   3306213   3307950   3310008  
  4940.000000   3312432   3315193   3318337   3321829   3325708  
  4930.000000   3329927   3334517   3339427   3344692   3350276  
  4920.000000   3356226   3362521   3369204   3376249   3383681  
  4910.000000   3391463   3399604   3408065   3416847   3425909  
  4900.000000   3435234   3444765   3454453   3464229   3474028  
  4890.000000   3483793   3493468   3503022   3512407   3521612  
  4880.000000   3530584   3539312   3547728   3555815   3563488  
  4870.000000   3570725   3577433   3583596   3589139   3594082  
  4860.000000   3598389   3602122   3605280   3607940   3610104  
  4850.000000   3611837   3613132   3614053   3614606   3614875  
  4840.000000   3614895   3614760   3614511   3614220   3613904  
  4830.000000   3613598   3613297   3613014   3612742   3612489  
  4820.000000   3612257   3612055   3611890   3611768   3611702  
  4810.000000   3611699   3611777   3611944   3612220   3612610  
  4800.000000   3613131   3613785   3614582   3615518   3616598  
  4790.000000   3617811   3619154   3620610   3622172   3623823  
  4780.000000   3625560   3627366   3629232   3631130   3633036  
  4770.000000   3634911   3636730   3638469   3640130   3641726  
  4760.000000   3643285   3644836   3646399   3647980   3649566  
  4750.000000   3651139   3652675   3654162   3655596   3656994  
  4740.000000   3658368   3659739   3661112   3662487   3663852  
  4730.000000   3665192   3666493   3667745   3668947   3670100  
  4720.000000   3671213   3672292   3673354   3674409   3675485  
  4710.000000   3676601   3677796   3679095   3680540   3682150  
  4700.000000   3683957   3685969   3688201   3690645   3693301  
  4690.000000   3696149   3699178   3702357   3705671   3709082  
  4680.000000   3712563   3716066   3719553   3722969   3726284  
  4670.000000   3729460   3732499   3735402   3738212   3740966  
  4660.000000   3743721   3746522   3749417   3752442   3755630  
  4650.000000   3759006   3762588   3766386   3770391   3774584  
  4640.000000   3778922   3783356   3787827   3792285   3796681  
  4630.000000   3800988   3805175   3809233   3813141   3816892  
  4620.000000   3820455   3823817   3826936   3829794   3832348  
  4610.000000   3834592   3836503   3838112   3839430   3840527  
  4600.000000   3841438   3842238   3842941   3843585   3844136  
  4590.000000   3844588   3844879   3844993   3844878   3844539  
  4580.000000   3843953   3843142   3842098   3840844   3839373  
  4570.000000   3837707   3835843   3833810   3831616   3829297  
  4560.000000   3826867   3824361   3821788   3819176   3816533  
  4550.000000   3813881   3811226   3808584   3805955   3803347  
  4540.000000   3800754   3798176   3795613   3793066   3790541  
  4530.000000   3788042   3785576   3783137   3780729   3778334  
  4520.000000   3775959   3773585   3771239   3768911   3766654  
  4510.000000   3764475   3762452   3760612   3759053   3757808  
  4500.000000   3756983   3756595   3756733   3757384   3758617  
  4490.000000   3760399   3762803   3765801   3769480   3773818  
  4480.000000   3778897   3784677   3791214   3798442   3806399  
  4470.000000   3815011   3824313   3834232   3844794   3855917  
  4460.000000   3867604   3879756   3892355   3905298   3918561  
  4450.000000   3932057   3945767   3959626   3973620   3987708  
  4440.000000   4001880   4016114   4030399   4044719   4059046  
  4430.000000   4073360   4087601   4101741   4115700   4129456  
  4420.000000   4142926   4156103   4168907   4181328   4193273  
  4410.000000   4204710   4215518   4225653   4235004   4243563  
  4400.000000   4251285   4258245   4264483   4270144   4275317  
  4390.000000   4280161   4284760   4289247   4293674   4298132  
  4380.000000   4302634   4307227   4311889   4316632   4321426  
  4370.000000   4326273   4331157   4336090   4341073   4346117  
  4360.000000   4351220   4356387   4361594   4366849   4372102  
  4350.000000   4377367   4382570   4387736   4392791   4397792  
  4340.000000   4402695   4407562   4412307   4416851   4420893  
  4330.000000   4424067   4425829   4425670   4423138   4418054  
  4320.000000   4410530   4401043   4390305   4379180   4368457  
  4310.000000   4358777   4350483   4343687   4338261   4333997  
  4300.000000   4330650   4328031   4326026   4324562   4323626  
  4290.000000   4323163   4323163   4323544   4324297   4325358  
  4280.000000   4326733   4328387   4330311   4332466   4334804  
  4270.000000   4337281   4339834   4342406   4344884   4347118  
  4260.000000   4348869   4349862   4349787   4348407   4345587  
  4250.000000   4341379   4335992   4329805   4323237   4316732  
  4240.000000   4310614   4305117   4300293   4296115   4292449  
  4230.000000   4289158   4286091   4283135   4280209   4277256  
  4220.000000   4274268   4271235   4268218   4265255   4262461  
  4210.000000   4259908   4257713   4255920   4254589   4253698  
  4200.000000   4253237   4253135   4253346   4253793   4254440  
  4190.000000   4255220   4256122   4257092   4258140   4259224  
  4180.000000   4260366   4261537   4262771   4264052   4265433  
  4170.000000   4266922   4268598   4270495   4272706   4275268  
  4160.000000   4278261   4281688   4285590   4289928   4294718  
  4150.000000   4299903   4305496   4311445   4317778   4324453  
  4140.000000   4331513   4338926   4346749   4354952   4363594  
  4130.000000   4372640   4382133   4392018   4402320   4412985  
  4120.000000   4424043   4435465   4447313   4459592   4472381  
  4110.000000   4485689   4499572   4513999   4528963   4544377  
  4100.000000   4560183   4576268   4592562   4608976   4625474  
  4090.000000   4642019   4658609   4675247   4691940   4708710  
  4080.000000   4725552   4742481   4759459   4776468   4793405  
  4070.000000   4810196   4826676   4842749   4858257   4873159  
  4060.000000   4887372   4900940   4913835   4926136   4937811  
  4050.000000   4948940   4959486   4969546   4979092   4988221  
  4040.000000   4996876   5005107   5012801   5019973   5026509  
  4030.000000   5032456   5037750   5042470   5046572   5050104  
  4020.000000   5052976   5055222   5056813   5057814   5058195  
  4010.000000   5058085   5057555   5056619   5055075   5052964  
  4000.000000   5050564  
##END= 
