##TITLE= Sample 026 By ssteindl date Dienstag, November 20 2018
##JCAMP-DX= 4.24
##DATA TYPE= INFRARED SPECTRUM
##ORIGIN= Exported PE Spectrum Data File
##OWNER= Sandra Steindl
##DATE= 18/11/20
##TIME= 17:20:12.00
##SPECTROMETER/DATA SYSTEM= PERKIN-ELMER Frontier FT-IR/NIR IR
##INSTRUMENT PARAMETERS=
  APODIZATION=stark
  DETECTOR=INGAAS
##RESOLUTION= 16.000000
##DELTAX= -2.000000
##XUNITS= 1/CM
##YUNITS= A
##XFACTOR= 1.00
##YFACTOR= 0.00000011920928955078
##FIRSTX= 10000.00
##LASTX= 4000.00
##NPOINTS= 3001
##FIRSTY= 0.301532
##MAXY= 0.661331
##MINY= 0.222437
##XYDATA= (X++(Y..Y))
 10000.000000   2529434   2526918   2524996   2524503   2525521  
  9990.000000   2527421   2529457   2531140   2532302   2533012  
  9980.000000   2533447   2533572   2533003   2531092   2527369  
  9970.000000   2521850   2515264   2508874   2504012   2501570  
  9960.000000   2501571   2503248   2505320   2506625   2506556  
  9950.000000   2505275   2503552   2502278   2502022   2502672  
  9940.000000   2503513   2503524   2501888   2498373   2493487  
  9930.000000   2488309   2484104   2481922   2482230   2484853  
  9920.000000   2489000   2493535   2497277   2499247   2498931  
  9910.000000   2496291   2491802   2486249   2480537   2475443  
  9900.000000   2471458   2468720   2467113   2466406   2466425  
  9890.000000   2467138   2468582   2470764   2473470   2476239  
  9880.000000   2478447   2479511   2479156   2477539   2475233  
  9870.000000   2473011   2471522   2471061   2471499   2472418  
  9860.000000   2473406   2474243   2474972   2475717   2476440  
  9850.000000   2476752   2475972   2473387   2468706   2462357  
  9840.000000   2455569   2450027   2447253   2448041   2452009  
  9830.000000   2457831   2463645   2467888   2469828   2469802  
  9820.000000   2468928   2468474   2469193   2470919   2472614  
  9810.000000   2472840   2470429   2465049   2457400   2449002  
  9800.000000   2441578   2436499   2434233   2434360   2435730  
  9790.000000   2436978   2436969   2435069   2431241   2425857  
  9780.000000   2419518   2412847   2406412   2400695   2396156  
  9770.000000   2393171   2392042   2392827   2395288   2398845  
  9760.000000   2402644   2405800   2407589   2407704   2406320  
  9750.000000   2404025   2401644   2399927   2399346   2399872  
  9740.000000   2401059   2402120   2402307   2401075   2398324  
  9730.000000   2394338   2389658   2384889   2380497   2376791  
  9720.000000   2373929   2372045   2371343   2372093   2374530  
  9710.000000   2378657   2384073   2389940   2395147   2398638  
  9700.000000   2399777   2398576   2395717   2392313   2389535  
  9690.000000   2388234   2388687   2390598   2393234   2395754  
  9680.000000   2397416   2397798   2396751   2394385   2390901  
  9670.000000   2386570   2381696   2376631   2371784   2367524  
  9660.000000   2364118   2361595   2359741   2358175   2356490  
  9650.000000   2354469   2352162   2349913   2348220   2347518  
  9640.000000   2348013   2349548   2351680   2353790   2355325  
  9630.000000   2355934   2355572   2354474   2353034   2351676  
  9620.000000   2350702   2350264   2350346   2350794   2351378  
  9610.000000   2351798   2351782   2351078   2349530   2347063  
  9600.000000   2343705   2339592   2334981   2330264   2325933  
  9590.000000   2322529   2320507   2320166   2321513   2324284  
  9580.000000   2327929   2331773   2335140   2337531   2338703  
  9570.000000   2338675   2337650   2335891   2333657   2331135  
  9560.000000   2328492   2325885   2323486   2321461   2319874  
  9550.000000   2318664   2317595   2316353   2314655   2312369  
  9540.000000   2309606   2306632   2303804   2301361   2299366  
  9530.000000   2297674   2296067   2294435   2292903   2291896  
  9520.000000   2291949   2293539   2296789   2301413   2306729  
  9510.000000   2311849   2315966   2318470   2319155   2318054  
  9500.000000   2315446   2311621   2306874   2301482   2295760  
  9490.000000   2290199   2285396   2282070   2280775   2281835  
  9480.000000   2285107   2290079   2295874   2301474   2305851  
  9470.000000   2308142   2307825   2304767   2299380   2292469  
  9460.000000   2285189   2278707   2273979   2271465   2271023  
  9450.000000   2272002   2273444   2274497   2274637   2273908  
  9440.000000   2272763   2271874   2271749   2272517   2273887  
  9430.000000   2275257   2276041   2275830   2274594   2272583  
  9420.000000   2270220   2267882   2265759   2263851   2262027  
  9410.000000   2260206   2258412   2256820   2255630   2254989  
  9400.000000   2254848   2255002   2255117   2254884   2254124  
  9390.000000   2252822   2251128   2249208   2247210   2245155  
  9380.000000   2243008   2240689   2238178   2235548   2232992  
  9370.000000   2230789   2229234   2228575   2228912   2230213  
  9360.000000   2232248   2234674   2237048   2238947   2240068  
  9350.000000   2240284   2239707   2238557   2237135   2235622  
  9340.000000   2234077   2232348   2230179   2227323   2223705  
  9330.000000   2219571   2215439   2212027   2209959   2209665  
  9320.000000   2211170   2214159   2217955   2221740   2224696  
  9310.000000   2226230   2226091   2224378   2221500   2218002  
  9300.000000   2214458   2211248   2208503   2206037   2203498  
  9290.000000   2200519   2196919   2192817   2188585   2184781  
  9280.000000   2181898   2180244   2179791   2180230   2181125  
  9270.000000   2182072   2182881   2183531   2184122   2184678  
  9260.000000   2185088   2185086   2184427   2182985   2180965  
  9250.000000   2178824   2177214   2176649   2177308   2178916  
  9240.000000   2180830   2182318   2182792   2182110   2180588  
  9230.000000   2178955   2178025   2178411   2180260   2183264  
  9220.000000   2186767   2189966   2192098   2192632   2191367  
  9210.000000   2188451   2184289   2179461   2174627   2170406  
  9200.000000   2167278   2165405   2164623   2164428   2164167  
  9190.000000   2163197   2161117   2157950   2154174   2150604  
  9180.000000   2148124   2147434   2148870   2152310   2157220  
  9170.000000   2162810   2168240   2172847   2176222   2178275  
  9160.000000   2179140   2179143   2178675   2178090   2177601  
  9150.000000   2177222   2176788   2175964   2174340   2171569  
  9140.000000   2167492   2162233   2156156   2149835   2143901  
  9130.000000   2138915   2135216   2132882   2131748   2131492  
  9120.000000   2131753   2132222   2132725   2133227   2133813  
  9110.000000   2134590   2135649   2136963   2138445   2139905  
  9100.000000   2141184   2142148   2142781   2143176   2143479  
  9090.000000   2143850   2144350   2144973   2145630   2146220  
  9080.000000   2146656   2146892   2146888   2146565   2145730  
  9070.000000   2144117   2141457   2137653   2132892   2127702  
  9060.000000   2122853   2119145   2117126   2116896   2118031  
  9050.000000   2119721   2121051   2121326   2120319   2118304  
  9040.000000   2115927   2113915   2112819   2112813   2113714  
  9030.000000   2115084   2116500   2117656   2118482   2119040  
  9020.000000   2119445   2119744   2119852   2119640   2118990  
  9010.000000   2117934   2116654   2115463   2114686   2114554  
  9000.000000   2115118   2116235   2117597   2118791   2119377  
  8990.000000   2118975   2117371   2114541   2110723   2106395  
  8980.000000   2102223   2098896   2096905   2096427   2097240  
  8970.000000   2098842   2100599   2102006   2102844   2103251  
  8960.000000   2103570   2104153   2105119   2106266   2107139  
  8950.000000   2107213   2106181   2104082   2101370   2098682  
  8940.000000   2096608   2095413   2094930   2094649   2093918  
  8930.000000   2092269   2089590   2086224   2082817   2080136  
  8920.000000   2078784   2079046   2080794   2083571   2086733  
  8910.000000   2089591   2091574   2092280   2091579   2089560  
  8900.000000   2086558   2083032   2079537   2076550   2074422  
  8890.000000   2073248   2072899   2073072   2073411   2073654  
  8880.000000   2073673   2073557   2073511   2073808   2074649  
  8870.000000   2076097   2078063   2080293   2082475   2084259  
  8860.000000   2085382   2085664   2085071   2083712   2081838  
  8850.000000   2079802   2077980   2076703   2076181   2076461  
  8840.000000   2077403   2078730   2080078   2081108   2081552  
  8830.000000   2081302   2080418   2079126   2077786   2076784  
  8820.000000   2076456   2076951   2078183   2079825   2081390  
  8810.000000   2082402   2082558   2081878   2080698   2079581  
  8800.000000   2079071   2079509   2080855   2082701   2084409  
  8790.000000   2085356   2085187   2083926   2081951   2079799  
  8780.000000   2077944   2076605   2075694   2074892   2073852  
  8770.000000   2072369   2070511   2068578   2066977   2066059  
  8760.000000   2065965   2066636   2067837   2069317   2070897  
  8750.000000   2072512   2074193   2075953   2077764   2079466  
  8740.000000   2080858   2081704   2081862   2081284   2080074  
  8730.000000   2078417   2076573   2074829   2073480   2072830  
  8720.000000   2073102   2074425   2076711   2079681   2082865  
  8710.000000   2085745   2087881   2089037   2089248   2088752  
  8700.000000   2087902   2086980   2086121   2085272   2084289  
  8690.000000   2083055   2081599   2080143   2079017   2078557  
  8680.000000   2078923   2080047   2081618   2083192   2084346  
  8670.000000   2084797   2084511   2083651   2082542   2081503  
  8660.000000   2080793   2080526   2080707   2081252   2082058  
  8650.000000   2083028   2084116   2085319   2086662   2088184  
  8640.000000   2089885   2091733   2093633   2095454   2097069  
  8630.000000   2098393   2099452   2100351   2101267   2102329  
  8620.000000   2103568   2104838   2105849   2106266   2105848  
  8610.000000   2104595   2102793   2100995   2099840   2099876  
  8600.000000   2101326   2104054   2107569   2111224   2114397  
  8590.000000   2116675   2117937   2118310   2118061   2117458  
  8580.000000   2116679   2115806   2114867   2113913   2113054  
  8570.000000   2112468   2112319   2112704   2113549   2114652  
  8560.000000   2115708   2116425   2116604   2116179   2115241  
  8550.000000   2113942   2112472   2110981   2109603   2108437  
  8540.000000   2107577   2107126   2107180   2107805   2108992  
  8530.000000   2110663   2112671   2114850   2117027   2119055  
  8520.000000   2120826   2122241   2123225   2123700   2123643  
  8510.000000   2123081   2122131   2120971   2119819   2118874  
  8500.000000   2118255   2118004   2118070   2118372   2118816  
  8490.000000   2119343   2119918   2120519   2121106   2121601  
  8480.000000   2121918   2121978   2121788   2121423   2121060  
  8470.000000   2120887   2121078   2121705   2122736   2124039  
  8460.000000   2125444   2126805   2128040   2129156   2130224  
  8450.000000   2131340   2132584   2133978   2135496   2137057  
  8440.000000   2138570   2139940   2141097   2142006   2142676  
  8430.000000   2143169   2143569   2143998   2144554   2145327  
  8420.000000   2146325   2147509   2148768   2149992   2151078  
  8410.000000   2151965   2152617   2153015   2153123   2152883  
  8400.000000   2152212   2151063   2149459   2147554   2145595  
  8390.000000   2143896   2142722   2142237   2142412   2143059  
  8380.000000   2143863   2144504   2144736   2144447   2143666  
  8370.000000   2142506   2141127   2139653   2138177   2136740  
  8360.000000   2135390   2134175   2133161   2132412   2131960  
  8350.000000   2131802   2131884   2132152   2132561   2133100  
  8340.000000   2133768   2134542   2135350   2136045   2136438  
  8330.000000   2136338   2135642   2134376   2132723   2130964  
  8320.000000   2129405   2128279   2127680   2127541   2127645  
  8310.000000   2127730   2127556   2127009   2126097   2124973  
  8300.000000   2123855   2122994   2122577   2122680   2123227  
  8290.000000   2124000   2124698   2124981   2124570   2123304  
  8280.000000   2121213   2118511   2115554   2112747   2110436  
  8270.000000   2108837   2107980   2107743   2107892   2108197  
  8260.000000   2108482   2108694   2108853   2109034   2109277  
  8250.000000   2109560   2109784   2109780   2109391   2108496  
  8240.000000   2107086   2105240   2103120   2100916   2098791  
  8230.000000   2096867   2095182   2093740   2092495   2091417  
  8220.000000   2090478   2089674   2088997   2088423   2087887  
  8210.000000   2087278   2086455   2085287   2083698   2081713  
  8200.000000   2079458   2077152   2075045   2073359   2072221  
  8190.000000   2071622   2071414   2071342   2071107   2070444  
  8180.000000   2069185   2067299   2064889   2062173   2059422  
  8170.000000   2056919   2054886   2053444   2052581   2052153  
  8160.000000   2051921   2051604   2050952   2049806   2048131  
  8150.000000   2046018   2043648   2041226   2038925   2036839  
  8140.000000   2034996   2033369   2031937   2030698   2029678  
  8130.000000   2028905   2028367   2027994   2027653   2027189  
  8120.000000   2026476   2025473   2024256   2022985   2021861  
  8110.000000   2021033   2020551   2020329   2020189   2019911  
  8100.000000   2019318   2018319   2016944   2015306   2013562  
  8090.000000   2011854   2010261   2008812   2007480   2006245  
  8080.000000   2005096   2004064   2003191   2002512   2002022  
  8070.000000   2001656   2001300   2000798   2000008   1998824  
  8060.000000   1997227   1995280   1993140   1991015   1989125  
  8050.000000   1987650   1986684   1986224   1986159   1986319  
  8040.000000   1986497   1986519   1986264   1985692   1984838  
  8030.000000   1983782   1982631   1981461   1980333   1979248  
  8020.000000   1978189   1977113   1975982   1974782   1973528  
  8010.000000   1972286   1971150   1970246   1969690   1969567  
  8000.000000   1969886   1970567   1971432   1972241   1972737  
  7990.000000   1972705   1972040   1970759   1969014   1967038  
  7980.000000   1965087   1963363   1961967   1960882   1960002  
  7970.000000   1959183   1958312   1957347   1956331   1955363  
  7960.000000   1954548   1953945   1953530   1953206   1952844  
  7950.000000   1952343   1951694   1950982   1950383   1950077  
  7940.000000   1950185   1950692   1951443   1952169   1952580  
  7930.000000   1952454   1951718   1950470   1948956   1947487  
  7920.000000   1946353   1945744   1945705   1946142   1946863  
  7910.000000   1947636   1948244   1948538   1948449   1948000  
  7900.000000   1947286   1946449   1945644   1944998   1944581  
  7890.000000   1944377   1944298   1944204   1943955   1943462  
  7880.000000   1942721   1941822   1940911   1940150   1939639  
  7870.000000   1939401   1939363   1939403   1939398   1939284  
  7860.000000   1939071   1938837   1938677   1938657   1938764  
  7850.000000   1938907   1938944   1938729   1938175   1937275  
  7840.000000   1936114   1934827   1933562   1932423   1931451  
  7830.000000   1930619   1929858   1929088   1928260   1927374  
  7820.000000   1926487   1925700   1925128   1924862   1924942  
  7810.000000   1925335   1925933   1926578   1927100   1927366  
  7800.000000   1927319   1926994   1926508   1926015   1925653  
  7790.000000   1925500   1925542   1925690   1925807   1925770  
  7780.000000   1925501   1925002   1924327   1923565   1922785  
  7770.000000   1922016   1921230   1920371   1919376   1918217  
  7760.000000   1916912   1915528   1914155   1912880   1911756  
  7750.000000   1910794   1909961   1909202   1908456   1907679  
  7740.000000   1906851   1905977   1905086   1904212   1903398  
  7730.000000   1902682   1902096   1901654   1901356   1901171  
  7720.000000   1901050   1900920   1900710   1900359   1899841  
  7710.000000   1899172   1898409   1897635   1896942   1896398  
  7700.000000   1896032   1895823   1895705   1895585   1895368  
  7690.000000   1894984   1894406   1893660   1892811   1891950  
  7680.000000   1891158   1890489   1889952   1889518   1889128  
  7670.000000   1888723   1888263   1887747   1887204   1886688  
  7660.000000   1886254   1885929   1885710   1885545   1885365  
  7650.000000   1885087   1884657   1884044   1883265   1882360  
  7640.000000   1881391   1880430   1879545   1878809   1878290  
  7630.000000   1878050   1878127   1878517   1879157   1879925  
  7620.000000   1880656   1881182   1881372   1881171   1880612  
  7610.000000   1879802   1878885   1877997   1877221   1876578  
  7600.000000   1876037   1875545   1875063   1874574   1874084  
  7590.000000   1873594   1873082   1872491   1871753   1870813  
  7580.000000   1869686   1868458   1867300   1866402   1865933  
  7570.000000   1865974   1866496   1867365   1868394   1869405  
  7560.000000   1870282   1870987   1871556   1872050   1872530  
  7550.000000   1873012   1873479   1873882   1874185   1874367  
  7540.000000   1874454   1874482   1874502   1874549   1874638  
  7530.000000   1874770   1874944   1875163   1875441   1875796  
  7520.000000   1876237   1876757   1877332   1877927   1878519  
  7510.000000   1879096   1879675   1880281   1880952   1881706  
  7500.000000   1882555   1883485   1884479   1885513   1886577  
  7490.000000   1887661   1888763   1889872   1890974   1892040  
  7480.000000   1893045   1893969   1894814   1895598   1896367  
  7470.000000   1897172   1898066   1899082   1900229   1901483  
  7460.000000   1902805   1904144   1905462   1906747   1908015  
  7450.000000   1909307   1910673   1912140   1913716   1915356  
  7440.000000   1916996   1918547   1919947   1921160   1922205  
  7430.000000   1923140   1924064   1925085   1926305   1927799  
  7420.000000   1929604   1931718   1934094   1936647   1939259  
  7410.000000   1941801   1944153   1946222   1947964   1949386  
  7400.000000   1950554   1951557   1952500   1953472   1954541  
  7390.000000   1955744   1957092   1958578   1960178   1961861  
  7380.000000   1963581   1965299   1966979   1968613   1970219  
  7370.000000   1971845   1973551   1975383   1977356   1979436  
  7360.000000   1981552   1983613   1985542   1987298   1988884  
  7350.000000   1990344   1991740   1993126   1994534   1995966  
  7340.000000   1997408   1998834   2000223   2001553   2002803  
  7330.000000   2003958   2005005   2005961   2006875   2007839  
  7320.000000   2008959   2010335   2012015   2013980   2016123  
  7310.000000   2018291   2020322   2022097   2023572   2024776  
  7300.000000   2025783   2026676   2027508   2028294   2029027  
  7290.000000   2029707   2030363   2031063   2031891   2032920  
  7280.000000   2034165   2035578   2037048   2038439   2039631  
  7270.000000   2040555   2041220   2041696   2042105   2042572  
  7260.000000   2043207   2044068   2045173   2046482   2047927  
  7250.000000   2049408   2050832   2052116   2053229   2054187  
  7240.000000   2055071   2055987   2057060   2058369   2059956  
  7230.000000   2061780   2063779   2065856   2067949   2070018  
  7220.000000   2072074   2074137   2076246   2078414   2080658  
  7210.000000   2082976   2085386   2087902   2090562   2093384  
  7200.000000   2096380   2099517   2102754   2106023   2109278  
  7190.000000   2112482   2115645   2118782   2121939   2125142  
  7180.000000   2128418   2131767   2135189   2138665   2142192  
  7170.000000   2145749   2149337   2152940   2156559   2160183  
  7160.000000   2163822   2167473   2171156   2174877   2178666  
  7150.000000   2182545   2186567   2190772   2195219   2199922  
  7140.000000   2204879   2210026   2215286   2220558   2225789  
  7130.000000   2230951   2236094   2241276   2246588   2252063  
  7120.000000   2257716   2263487   2269324   2275164   2281003  
  7110.000000   2286867   2292823   2298919   2305189   2311608  
  7100.000000   2318135   2324707   2331298   2337895   2344532  
  7090.000000   2351231   2358012   2364851   2371716   2378557  
  7080.000000   2385360   2392131   2398913   2405750   2412680  
  7070.000000   2419702   2426793   2433908   2441013   2448086  
  7060.000000   2455127   2462134   2469099   2475999   2482807  
  7050.000000   2489505   2496105   2502649   2509194   2515790  
  7040.000000   2522452   2529159   2535856   2542493   2549047  
  7030.000000   2555540   2562028   2568580   2575228   2581969  
  7020.000000   2588737   2595455   2602038   2608455   2614706  
  7010.000000   2620835   2626879   2632861   2638761   2644540  
  7000.000000   2650134   2655505   2660624   2665498   2670136  
  6990.000000   2674575   2678841   2682995   2687094   2691227  
  6980.000000   2695459   2699845   2704364   2708959   2713507  
  6970.000000   2717900   2722035   2725892   2729496   2732937  
  6960.000000   2736296   2739647   2742999   2746335   2749591  
  6950.000000   2752715   2755658   2758413   2760982   2763397  
  6940.000000   2765682   2767875   2770000   2772089   2774153  
  6930.000000   2776203   2778222   2780201   2782117   2783980  
  6920.000000   2785805   2787638   2789515   2791460   2793446  
  6910.000000   2795417   2797283   2798964   2800407   2801606  
  6900.000000   2802593   2803432   2804183   2804899   2805608  
  6890.000000   2806340   2807113   2807965   2808918   2809990  
  6880.000000   2811160   2812378   2813572   2814673   2815637  
  6870.000000   2816461   2817182   2817853   2818528   2819237  
  6860.000000   2819988   2820778   2821602   2822468   2823390  
  6850.000000   2824376   2825418   2826484   2827521   2828483  
  6840.000000   2829342   2830103   2830795   2831461   2832125  
  6830.000000   2832795   2833452   2834076   2834646   2835176  
  6820.000000   2835681   2836189   2836697   2837182   2837588  
  6810.000000   2837860   2837956   2837877   2837649   2837327  
  6800.000000   2836960   2836582   2836203   2835826   2835449  
  6790.000000   2835094   2834786   2834556   2834414   2834346  
  6780.000000   2834309   2834256   2834148   2833979   2833768  
  6770.000000   2833552   2833366   2833220   2833098   2832966  
  6760.000000   2832787   2832541   2832230   2831873   2831501  
  6750.000000   2831137   2830793   2830476   2830191   2829947  
  6740.000000   2829755   2829625   2829550   2829512   2829479  
  6730.000000   2829425   2829340   2829240   2829156   2829128  
  6720.000000   2829176   2829293   2829434   2829538   2829537  
  6710.000000   2829384   2829057   2828565   2827938   2827218  
  6700.000000   2826446   2825670   2824925   2824249   2823659  
  6690.000000   2823163   2822736   2822346   2821937   2821467  
  6680.000000   2820897   2820216   2819422   2818525   2817531  
  6670.000000   2816447   2815274   2814025   2812718   2811389  
  6660.000000   2810067   2808778   2807522   2806290   2805060  
  6650.000000   2803822   2802575   2801341   2800134   2798967  
  6640.000000   2797821   2796666   2795460   2794179   2792818  
  6630.000000   2791407   2789979   2788563   2787153   2785716  
  6620.000000   2784191   2782529   2780703   2778733   2776669  
  6610.000000   2774583   2772531   2770554   2768654   2766822  
  6600.000000   2765040   2763302   2761606   2759954   2758334  
  6590.000000   2756722   2755084   2753389   2751624   2749797  
  6580.000000   2747934   2746066   2744216   2742390   2740585  
  6570.000000   2738793   2737019   2735280   2733601   2732001  
  6560.000000   2730479   2729017   2727578   2726128   2724650  
  6550.000000   2723145   2721633   2720126   2718624   2717097  
  6540.000000   2715505   2713811   2712003   2710107   2708179  
  6530.000000   2706289   2704496   2702832   2701296   2699863  
  6520.000000   2698503   2697189   2695912   2694665   2693446  
  6510.000000   2692242   2691034   2689800   2688530   2687228  
  6500.000000   2685915   2684620   2683368   2682175   2681040  
  6490.000000   2679954   2678903   2677873   2676842   2675792  
  6480.000000   2674695   2673528   2672279   2670957   2669594  
  6470.000000   2668234   2666916   2665658   2664442   2663224  
  6460.000000   2661953   2660599   2659168   2657710   2656295  
  6450.000000   2654988   2653817   2652767   2651789   2650815  
  6440.000000   2649801   2648730   2647624   2646513   2645427  
  6430.000000   2644369   2643325   2642268   2641194   2640120  
  6420.000000   2639101   2638195   2637446   2636855   2636385  
  6410.000000   2635961   2635514   2634993   2634398   2633761  
  6400.000000   2633145   2632603   2632171   2631851   2631620  
  6390.000000   2631440   2631270   2631080   2630849   2630570  
  6380.000000   2630239   2629866   2629463   2629048   2628637  
  6370.000000   2628234   2627830   2627396   2626895   2626300  
  6360.000000   2625599   2624816   2623993   2623192   2622460  
  6350.000000   2621827   2621287   2620815   2620366   2619904  
  6340.000000   2619399   2618841   2618226   2617559   2616842  
  6330.000000   2616078   2615267   2614416   2613531   2612621  
  6320.000000   2611686   2610728   2609733   2608695   2607607  
  6310.000000   2606475   2605309   2604127   2602939   2601751  
  6300.000000   2600558   2599351   2598115   2596841   2595517  
  6290.000000   2594142   2592710   2591230   2589707   2588167  
  6280.000000   2586633   2585137   2583693   2582305   2580948  
  6270.000000   2579584   2578163   2576649   2575019   2573277  
  6260.000000   2571438   2569528   2567564   2565558   2563513  
  6250.000000   2561437   2559340   2557248   2555183   2553168  
  6240.000000   2551206   2549291   2547404   2545529   2543655  
  6230.000000   2541785   2539927   2538085   2536253   2534415  
  6220.000000   2532549   2530641   2528692   2526722   2524763  
  6210.000000   2522845   2520991   2519201   2517461   2515748  
  6200.000000   2514043   2512334   2510622   2508909   2507202  
  6190.000000   2505498   2503797   2502099   2500411   2498745  
  6180.000000   2497115   2495526   2493972   2492440   2490913  
  6170.000000   2489383   2487858   2486360   2484916   2483543  
  6160.000000   2482239   2480979   2479723   2478430   2477075  
  6150.000000   2475654   2474190   2472714   2471257   2469836  
  6140.000000   2468457   2467115   2465807   2464532   2463303  
  6130.000000   2462129   2461018   2459964   2458953   2457962  
  6120.000000   2456977   2455985   2454995   2454014   2453062  
  6110.000000   2452149   2451287   2450475   2449717   2449005  
  6100.000000   2448336   2447697   2447080   2446471   2445868  
  6090.000000   2445274   2444714   2444213   2443806   2443512  
  6080.000000   2443342   2443281   2443315   2443410   2443551  
  6070.000000   2443714   2443896   2444082   2444274   2444459  
  6060.000000   2444653   2444867   2445146   2445526   2446060  
  6050.000000   2446766   2447653   2448687   2449834   2451044  
  6040.000000   2452297   2453580   2454921   2456339   2457868  
  6030.000000   2459514   2461279   2463139   2465077   2467067  
  6020.000000   2469104   2471172   2473270   2475379   2477492  
  6010.000000   2479591   2481677   2483747   2485825   2487927  
  6000.000000   2490082   2492300   2494597   2496965   2499407  
  5990.000000   2501905   2504454   2507034   2509639   2512253  
  5980.000000   2514882   2517529   2520230   2523009   2525912  
  5970.000000   2528956   2532157   2535495   2538954   2542492  
  5960.000000   2546091   2549725   2553394   2557086   2560807  
  5950.000000   2564548   2568315   2572110   2575959   2579887  
  5940.000000   2583932   2588115   2592448   2596912   2601471  
  5930.000000   2606078   2610681   2615242   2619730   2624122  
  5920.000000   2628401   2632545   2636534   2640349   2643983  
  5910.000000   2647445   2650755   2653945   2657048   2660100  
  5900.000000   2663131   2666181   2669280   2672474   2675788  
  5890.000000   2679245   2682835   2686535   2690292   2694056  
  5880.000000   2697769   2701387   2704873   2708199   2711337  
  5870.000000   2714267   2716978   2719474   2721789   2723975  
  5860.000000   2726100   2728227   2730398   2732630   2734914  
  5850.000000   2737237   2739579   2741944   2744341   2746789  
  5840.000000   2749292   2751843   2754412   2756963   2759467  
  5830.000000   2761911   2764303   2766663   2769012   2771358  
  5820.000000   2773694   2776002   2778258   2780451   2782584  
  5810.000000   2784679   2786760   2788864   2791002   2793204  
  5800.000000   2795458   2797785   2800160   2802584   2805006  
  5790.000000   2807391   2809643   2811690   2813412   2814724  
  5780.000000   2815517   2815729   2815296   2814215   2812504  
  5770.000000   2810255   2807578   2804638   2801578   2798547  
  5760.000000   2795626   2792875   2790290   2787874   2785603  
  5750.000000   2783484   2781517   2779715   2778078   2776590  
  5740.000000   2775227   2773956   2772760   2771620   2770543  
  5730.000000   2769520   2768552   2767616   2766700   2765780  
  5720.000000   2764861   2763953   2763088   2762288   2761574  
  5710.000000   2760942   2760383   2759877   2759416   2758997  
  5700.000000   2758627   2758308   2758031   2757779   2757520  
  5690.000000   2757240   2756930   2756614   2756315   2756064  
  5680.000000   2755855   2755663   2755419   2755054   2754484  
  5670.000000   2753659   2752541   2751128   2749423   2747449  
  5660.000000   2745229   2742810   2740244   2737607   2734971  
  5650.000000   2732405   2729945   2727603   2725358   2723185  
  5640.000000   2721053   2718954   2716892   2714881   2712936  
  5630.000000   2711059   2709248   2707491   2705790   2704149  
  5620.000000   2702587   2701113   2699738   2698445   2697220  
  5610.000000   2696032   2694870   2693728   2692618   2691548  
  5600.000000   2690529   2689554   2688610   2687680   2686757  
  5590.000000   2685841   2684945   2684077   2683240   2682420  
  5580.000000   2681593   2680735   2679832   2678882   2677896  
  5570.000000   2676889   2675870   2674837   2673779   2672688  
  5560.000000   2671562   2670415   2669264   2668129   2667013  
  5550.000000   2665906   2664784   2663628   2662424   2661183  
  5540.000000   2659924   2658671   2657438   2656223   2655012  
  5530.000000   2653790   2652550   2651305   2650076   2648889  
  5520.000000   2647753   2646659   2645580   2644484   2643348  
  5510.000000   2642166   2640949   2639720   2638494   2637278  
  5500.000000   2636064   2634842   2633600   2632342   2631072  
  5490.000000   2629800   2628519   2627210   2625843   2624392  
  5480.000000   2622842   2621208   2619514   2617801   2616094  
  5470.000000   2614408   2612731   2611046   2609333   2607585  
  5460.000000   2605797   2603970   2602094   2600154   2598128  
  5450.000000   2596005   2593795   2591530   2589265   2587055  
  5440.000000   2584938   2582927   2581011   2579166   2577373  
  5430.000000   2575617   2573901   2572218   2570563   2568910  
  5420.000000   2567247   2565563   2563891   2562276   2560801  
  5410.000000   2559515   2558459   2557606   2556916   2556319  
  5400.000000   2555786   2555293   2554873   2554554   2554386  
  5390.000000   2554378   2554543   2554857   2555326   2555939  
  5380.000000   2556730   2557700   2558871   2560204   2561682  
  5370.000000   2563241   2564870   2566537   2568284   2570113  
  5360.000000   2572094   2574229   2576583   2579155   2582028  
  5350.000000   2585224   2588845   2592906   2597477   2602508  
  5340.000000   2608015   2613911   2620222   2626893   2633998  
  5330.000000   2641505   2649493   2657905   2666799   2676112  
  5320.000000   2685932   2696241   2707187   2718780   2731164  
  5310.000000   2744303   2758277   2772989   2788487   2804685  
  5300.000000   2821673   2839424   2858082   2877650   2898264  
  5290.000000   2919878   2942541   2966108   2990517   3015566  
  5280.000000   3041190   3067267   3093859   3120988   3148808  
  5270.000000   3177367   3206706   3236698   3267162   3297835  
  5260.000000   3328498   3359016   3389358   3419594   3449783  
  5250.000000   3479970   3510047   3539874   3569170   3597765  
  5240.000000   3625457   3652275   3678213   3703458   3728052  
  5230.000000   3752143   3775651   3798576   3820715   3842019  
  5220.000000   3862317   3881671   3900046   3917631   3934463  
  5210.000000   3950727   3966378   3981463   3995798   4009343  
  5200.000000   4021914   4033559   4044231   4054106   4063213  
  5190.000000   4071725   4079608   4086940   4093617   4099682  
  5180.000000   4105046   4109791   4113867   4117365   4120220  
  5170.000000   4122486   4124086   4125084   4125449   4125293  
  5160.000000   4124622   4123542   4122024   4120118   4117757  
  5150.000000   4114980   4111753   4108159   4104211   4099999  
  5140.000000   4095527   4090846   4085928   4080805   4075458  
  5130.000000   4069938   4064247   4058438   4052506   4046476  
  5120.000000   4040325   4034065   4027686   4021214   4014655  
  5110.000000   4008039   4001367   3994656   3987904   3981131  
  5100.000000   3974346   3967583   3960855   3954183   3947559  
  5090.000000   3940978   3934418   3927877   3921351   3914858  
  5080.000000   3908407   3902012   3895662   3889343   3883019  
  5070.000000   3876664   3870250   3863767   3857206   3850574  
  5060.000000   3843868   3837095   3830256   3823363   3816421  
  5050.000000   3809448   3802451   3795435   3788392   3781315  
  5040.000000   3774190   3767014   3759796   3752554   3745315  
  5030.000000   3738104   3730945   3723853   3716843   3709922  
  5020.000000   3703110   3696414   3689854   3683426   3677134  
  5010.000000   3670954   3664881   3658889   3652988   3647175  
  5000.000000   3641491   3635948   3630597   3625444   3620529  
  4990.000000   3615842   3611417   3607235   3603328   3599673  
  4980.000000   3596300   3593180   3590345   3587772   3585506  
  4970.000000   3583537   3581925   3580656   3579780   3579262  
  4960.000000   3579128   3579327   3579884   3580759   3581998  
  4950.000000   3583578   3585558   3587910   3590679   3593820  
  4940.000000   3597365   3601263   3605550   3610182   3615199  
  4930.000000   3620563   3626311   3632403   3638876   3645696  
  4920.000000   3652902   3660463   3668411   3676706   3685359  
  4910.000000   3694322   3703592   3713126   3722922   3732943  
  4900.000000   3743182   3753600   3764171   3774849   3785593  
  4890.000000   3796362   3807106   3817791   3828359   3838779  
  4880.000000   3848981   3858938   3868575   3877875   3886763  
  4870.000000   3895223   3903173   3910603   3917435   3923680  
  4860.000000   3929295   3934331   3938781   3942721   3946156  
  4850.000000   3949157   3951721   3953916   3955744   3957281  
  4840.000000   3958549   3959635   3960566   3961420   3962211  
  4830.000000   3962990   3963755   3964529   3965299   3966071  
  4820.000000   3966829   3967573   3968299   3969020   3969751  
  4810.000000   3970513   3971329   3972208   3973154   3974152  
  4800.000000   3975194   3976267   3977380   3978548   3979803  
  4790.000000   3981171   3982678   3984323   3986094   3987961  
  4780.000000   3989892   3991856   3993836   3995820   3997808  
  4770.000000   3999798   4001786   4003763   4005717   4007634  
  4760.000000   4009502   4011310   4013048   4014711   4016285  
  4750.000000   4017772   4019163   4020467   4021689   4022843  
  4740.000000   4023932   4024968   4025943   4026858   4027704  
  4730.000000   4028481   4029187   4029831   4030417   4030949  
  4720.000000   4031428   4031852   4032221   4032538   4032822  
  4710.000000   4033093   4033392   4033755   4034227   4034836  
  4700.000000   4035615   4036570   4037715   4039043   4040558  
  4690.000000   4042253   4044134   4046193   4048431   4050828  
  4680.000000   4053362   4055983   4058643   4061270   4063810  
  4670.000000   4066202   4068425   4070461   4072339   4074089  
  4660.000000   4075775   4077450   4079182   4081022   4083020  
  4650.000000   4085207   4087604   4090215   4093030   4096029  
  4640.000000   4099182   4102460   4105830   4109265   4112733  
  4630.000000   4116209   4119651   4123026   4126284   4129384  
  4620.000000   4132275   4134923   4137286   4139347   4141083  
  4610.000000   4142504   4143613   4144461   4145081   4145551  
  4600.000000   4145911   4146225   4146496   4146742   4146917  
  4590.000000   4147001   4146934   4146696   4146243   4145575  
  4580.000000   4144671   4143544   4142188   4140627   4138873  
  4570.000000   4136967   4134937   4132833   4130675   4128495  
  4560.000000   4126288   4124060   4121791   4119486   4117135  
  4550.000000   4114752   4112339   4109904   4107441   4104941  
  4540.000000   4102393   4099792   4097147   4094475   4091807  
  4530.000000   4089165   4086574   4084031   4081545   4079095  
  4520.000000   4076693   4074330   4072047   4069849   4067798  
  4510.000000   4065896   4064210   4062739   4061565   4060698  
  4500.000000   4060245   4060226   4060760   4061852   4063608  
  4490.000000   4066012   4069161   4073030   4077718   4083194  
  4480.000000   4089543   4096708   4104745   4113567   4123208  
  4470.000000   4133575   4144699   4156493   4168986   4182088  
  4460.000000   4195807   4210037   4224763   4239875   4255347  
  4450.000000   4271083   4287059   4303202   4319493   4335882  
  4440.000000   4352347   4368854   4385368   4401863   4418288  
  4430.000000   4434627   4450812   4466835   4482613   4498135  
  4420.000000   4513295   4528067   4542320   4556015   4569014  
  4410.000000   4581278   4592684   4603218   4612788   4621423  
  4400.000000   4629088   4635873   4641815   4647065   4651720  
  4390.000000   4655968   4659924   4663759   4667558   4671432  
  4380.000000   4675412   4679549   4683840   4688317   4692987  
  4370.000000   4697895   4703073   4708563   4714385   4720550  
  4360.000000   4727030   4733795   4740776   4747931   4755164  
  4350.000000   4762440   4769641   4776743   4783622   4790275  
  4340.000000   4796599   4802589   4808107   4813041   4817093  
  4330.000000   4819945   4821147   4820324   4817167   4811636  
  4320.000000   4803927   4794553   4784193   4773643   4763599  
  4310.000000   4754625   4747015   4740868   4736075   4732453  
  4300.000000   4729778   4727863   4726580   4725832   4725590  
  4290.000000   4725793   4726449   4727505   4728981   4730840  
  4280.000000   4733092   4735701   4738635   4741835   4745221  
  4270.000000   4748720   4752218   4755606   4758702   4761300  
  4260.000000   4763116   4763869   4763280   4761185   4757533  
  4250.000000   4752472   4746271   4739348   4732116   4725006  
  4240.000000   4718307   4712237   4706834   4702083   4697855  
  4230.000000   4694031   4690465   4687046   4683687   4680322  
  4220.000000   4676936   4673509   4670090   4666704   4663454  
  4210.000000   4660399   4657652   4655261   4653301   4651768  
  4200.000000   4650669   4649946   4649561   4649430   4649513  
  4190.000000   4649736   4650089   4650522   4651059   4651667  
  4180.000000   4652387   4653197   4654143   4655213   4656472  
  4170.000000   4657930   4659676   4661742   4664225   4667149  
  4160.000000   4670587   4674519   4678977   4683903   4689311  
  4150.000000   4695136   4701404   4708066   4715171   4722682  
  4140.000000   4730654   4739046   4747907   4757180   4766900  
  4130.000000   4777002   4787516   4798384   4809650   4821282  
  4120.000000   4833354   4845864   4858902   4872483   4886684  
  4110.000000   4901499   4916966   4933033   4949677   4966797  
  4100.000000   4984325   5002143   5020180   5038352   5056628  
  4090.000000   5074978   5093405   5111907   5130480   5149122  
  4080.000000   5167804   5186520   5205221   5223895   5242455  
  4070.000000   5260858   5278970   5296723   5313974   5330692  
  4060.000000   5346784   5362287   5377151   5391438   5405092  
  4050.000000   5418178   5430634   5442548   5453876   5464717  
  4040.000000   5475001   5484780   5493926   5502450   5510215  
  4030.000000   5517264   5523514   5529051   5533829   5537918  
  4020.000000   5541233   5543842   5545731   5546990   5547582  
  4010.000000   5547648   5547258   5546405   5544833   5542579  
  4000.000000   5539978  
##END= 
