##TITLE= Sample 011 By ssteindl date Dienstag, November 20 2018
##JCAMP-DX= 4.24
##DATA TYPE= INFRARED SPECTRUM
##ORIGIN= Exported PE Spectrum Data File
##OWNER= Sandra Steindl
##DATE= 18/11/20
##TIME= 17:04:18.00
##SPECTROMETER/DATA SYSTEM= PERKIN-ELMER Frontier FT-IR/NIR IR
##INSTRUMENT PARAMETERS=
  APODIZATION=stark
  DETECTOR=INGAAS
##RESOLUTION= 16.000000
##DELTAX= -2.000000
##XUNITS= 1/CM
##YUNITS= A
##XFACTOR= 1.00
##YFACTOR= 0.00000011920928955078
##FIRSTX= 10000.00
##LASTX= 4000.00
##NPOINTS= 3001
##FIRSTY= 0.352357
##MAXY= 0.635463
##MINY= 0.277649
##XYDATA= (X++(Y..Y))
 10000.000000   2955788   2964766   2973863   2982601   2989506  
  9990.000000   2993485   2994793   2994854   2994882   2995435  
  9980.000000   2996287   2996775   2995878   2992951   2988009  
  9970.000000   2981900   2975720   2970509   2966709   2964193  
  9960.000000   2962275   2960242   2957538   2954066   2950040  
  9950.000000   2945836   2941760   2937908   2934265   2930728  
  9940.000000   2927350   2924175   2921312   2918600   2915743  
  9930.000000   2912261   2907905   2902832   2897796   2893985  
  9920.000000   2892633   2894600   2899970   2908045   2917548  
  9910.000000   2927111   2935693   2942793   2948407   2952705  
  9900.000000   2955794   2957469   2957393   2955220   2951019  
  9890.000000   2945284   2938970   2933105   2928482   2925410  
  9880.000000   2923644   2922699   2922047   2921540   2921355  
  9870.000000   2921985   2923865   2927212   2931861   2937350  
  9860.000000   2943061   2948371   2952807   2956028   2957887  
  9850.000000   2958343   2957511   2955638   2953088   2950329  
  9840.000000   2947776   2945735   2944252   2943163   2942152  
  9830.000000   2940965   2939496   2937857   2936215   2934669  
  9820.000000   2933080   2931127   2928435   2924862   2920657  
  9810.000000   2916514   2913336   2911924   2912598   2915053  
  9800.000000   2918415   2921543   2923419   2923422   2921480  
  9790.000000   2917941   2913403   2908442   2903507   2898864  
  9780.000000   2894698   2891166   2888474   2886784   2886163  
  9770.000000   2886463   2887324   2888265   2888824   2888739  
  9760.000000   2887987   2886777   2885457   2884391   2883932  
  9750.000000   2884335   2885781   2888261   2891566   2895188  
  9740.000000   2898421   2900471   2900721   2898950   2895440  
  9730.000000   2890960   2886531   2883159   2881549   2881923  
  9720.000000   2884033   2887246   2890802   2893965   2896176  
  9710.000000   2897076   2896502   2894513   2891419   2887844  
  9700.000000   2884668   2882883   2883305   2886292   2891551  
  9690.000000   2898169   2904837   2910253   2913482   2914192  
  9680.000000   2912672   2909604   2905829   2902035   2898682  
  9670.000000   2895974   2893951   2892621   2891931   2891865  
  9660.000000   2892294   2893122   2894188   2895471   2896963  
  9650.000000   2898739   2900717   2902616   2903873   2903763  
  9640.000000   2901699   2897449   2891412   2884463   2877734  
  9630.000000   2872101   2867867   2864620   2861483   2857577  
  9620.000000   2852507   2846659   2841082   2837144   2835913  
  9610.000000   2837787   2842274   2848217   2854237   2859165  
  9600.000000   2862455   2864116   2864624   2864459   2863931  
  9590.000000   2862991   2861441   2859105   2856121   2852936  
  9580.000000   2850202   2848514   2848114   2848898   2850373  
  9570.000000   2852028   2853438   2854505   2855372   2856321  
  9560.000000   2857543   2859010   2860391   2861161   2860779  
  9550.000000   2858916   2855646   2851418   2846959   2842971  
  9540.000000   2839930   2837904   2836579   2835371   2833680  
  9530.000000   2831091   2827587   2823565   2819749   2816955  
  9520.000000   2815808   2816568   2819050   2822752   2827041  
  9510.000000   2831373   2835419   2839080   2842399   2845417  
  9500.000000   2848071   2850156   2851411   2851612   2850704  
  9490.000000   2848807   2846186   2843145   2839915   2836653  
  9480.000000   2833424   2830315   2827441   2824969   2823034  
  9470.000000   2821641   2820632   2819680   2818448   2816693  
  9460.000000   2814427   2811896   2809537   2807831   2807166  
  9450.000000   2807776   2809684   2812788   2816852   2821629  
  9440.000000   2826805   2832035   2836874   2840816   2843371  
  9430.000000   2844171   2843102   2840278   2836031   2830729  
  9420.000000   2824772   2818488   2812222   2806312   2801075  
  9410.000000   2796799   2793598   2791485   2790234   2789607  
  9400.000000   2789335   2789393   2789971   2791462   2794233  
  9390.000000   2798314   2803279   2808161   2811822   2813180  
  9380.000000   2811665   2807277   2800674   2792908   2785217  
  9370.000000   2778703   2774136   2771870   2771838   2773700  
  9360.000000   2776831   2780510   2783901   2786325   2787369  
  9350.000000   2787082   2785955   2784712   2784088   2784445  
  9340.000000   2785686   2787163   2787932   2787091   2784180  
  9330.000000   2779469   2773892   2768764   2765269   2764126  
  9320.000000   2765339   2768249   2771691   2774383   2775302  
  9310.000000   2773972   2770586   2765835   2760742   2756306  
  9300.000000   2753344   2752183   2752652   2754051   2755479  
  9290.000000   2756107   2755515   2753849   2751756   2750249  
  9280.000000   2750313   2752611   2757175   2763400   2770253  
  9270.000000   2776594   2781528   2784561   2785654   2785066  
  9260.000000   2783221   2780511   2777277   2773795   2770379  
  9250.000000   2767364   2765038   2763565   2762851   2762667  
  9240.000000   2762663   2762655   2762623   2762852   2763705  
  9230.000000   2765464   2768057   2770990   2773486   2774729  
  9220.000000   2774242   2772020   2768580   2764691   2761084  
  9210.000000   2758175   2755958   2754129   2752324   2750374  
  9200.000000   2748427   2746865   2746089   2746297   2747306  
  9190.000000   2748602   2749495   2749465   2748373   2746551  
  9180.000000   2744653   2743404   2743356   2744672   2747102  
  9170.000000   2750006   2752611   2754167   2754197   2752482  
  9160.000000   2749116   2744473   2739172   2734000   2729732  
  9150.000000   2727058   2726432   2728001   2731495   2736321  
  9140.000000   2741636   2746587   2750411   2752604   2752963  
  9130.000000   2751619   2749002   2745667   2742205   2739077  
  9120.000000   2736579   2734745   2733352   2732034   2730426  
  9110.000000   2728330   2725756   2722961   2720331   2718259  
  9100.000000   2716966   2716409   2716307   2716259   2715941  
  9090.000000   2715230   2714283   2713472   2713251   2713966  
  9080.000000   2715696   2718206   2721019   2723537   2725253  
  9070.000000   2725851   2725333   2723939   2722072   2720144  
  9060.000000   2718449   2717122   2716117   2715311   2714588  
  9050.000000   2713942   2713493   2713434   2713899   2714887  
  9040.000000   2716160   2717296   2717773   2717205   2715501  
  9030.000000   2712968   2710228   2708053   2707081   2707576  
  9020.000000   2709289   2711546   2713494   2714341   2713632  
  9010.000000   2711319   2707788   2703619   2699395   2695534  
  9000.000000   2692278   2689726   2687914   2686907   2686797  
  8990.000000   2687668   2689469   2692021   2695002   2698033  
  8980.000000   2700743   2702858   2704241   2704822   2704587  
  8970.000000   2703518   2701687   2699246   2696481   2693768  
  8960.000000   2691491   2689925   2689094   2688773   2688566  
  8950.000000   2688074   2687070   2685583   2683882   2682334  
  8940.000000   2681227   2680649   2680446   2680387   2680283  
  8930.000000   2680187   2680351   2681198   2683065   2686037  
  8920.000000   2689778   2693604   2696663   2698140   2697521  
  8910.000000   2694654   2689832   2683589   2676601   2669510  
  8900.000000   2662897   2657223   2652818   2649904   2648549  
  8890.000000   2648679   2649980   2652046   2654405   2656700  
  8880.000000   2658722   2660458   2662066   2663697   2665441  
  8870.000000   2667165   2668625   2669457   2669380   2668267  
  8860.000000   2666271   2663765   2661256   2659225   2657989  
  8850.000000   2657636   2657985   2658701   2659375   2659698  
  8840.000000   2659529   2658965   2658266   2657786   2657818  
  8830.000000   2658497   2659746   2661287   2662746   2663740  
  8820.000000   2664025   2663519   2662335   2660704   2658902  
  8810.000000   2657180   2655717   2654627   2653965   2653757  
  8800.000000   2653996   2654636   2655579   2656674   2657737  
  8790.000000   2658597   2659138   2659326   2659218   2658924  
  8780.000000   2658578   2658290   2658133   2658149   2658354  
  8770.000000   2658762   2659361   2660112   2660900   2661561  
  8760.000000   2661889   2661717   2660965   2659686   2658067  
  8750.000000   2656361   2654833   2653648   2652851   2652341  
  8740.000000   2651928   2651415   2650650   2649613   2648399  
  8730.000000   2647236   2646407   2646192   2646773   2648174  
  8720.000000   2650214   2652524   2654614   2655987   2656298  
  8710.000000   2655445   2653633   2651288   2648937   2647029  
  8700.000000   2645800   2645216   2645037   2644940   2644697  
  8690.000000   2644259   2643775   2643493   2643617   2644190  
  8680.000000   2645034   2645843   2646307   2646283   2645856  
  8670.000000   2645342   2645146   2645622   2646910   2648890  
  8660.000000   2651204   2653374   2654941   2655574   2655130  
  8650.000000   2653637   2651261   2648246   2644880   2641480  
  8640.000000   2638378   2635873   2634178   2633364   2633337  
  8630.000000   2633865   2634633   2635352   2635844   2636084  
  8620.000000   2636190   2636337   2636694   2637334   2638245  
  8610.000000   2639339   2640528   2641757   2643031   2644387  
  8600.000000   2645855   2647405   2648935   2650268   2651208  
  8590.000000   2651575   2651251   2650211   2648533   2646401  
  8580.000000   2644083   2641916   2640247   2639372   2639437  
  8570.000000   2640395   2641971   2643742   2645213   2645995  
  8560.000000   2645902   2645037   2643738   2642480   2641704  
  8550.000000   2641676   2642419   2643698   2645141   2646333  
  8540.000000   2646976   2646907   2646123   2644736   2642923  
  8530.000000   2640887   2638819   2636922   2635401   2634459  
  8520.000000   2634237   2634790   2636047   2637813   2639776  
  8510.000000   2641582   2642914   2643542   2643386   2642488  
  8500.000000   2641044   2639301   2637552   2636032   2634924  
  8490.000000   2634300   2634119   2634260   2634553   2634888  
  8480.000000   2635224   2635655   2636333   2637443   2639089  
  8470.000000   2641220   2643603   2645851   2647562   2648394  
  8460.000000   2648202   2647047   2645206   2643064   2640993  
  8450.000000   2639281   2638072   2637408   2637232   2637483  
  8440.000000   2638085   2638988   2640090   2641251   2642257  
  8430.000000   2642880   2642928   2642299   2641046   2639342  
  8420.000000   2637480   2635745   2634364   2633429   2632896  
  8410.000000   2632632   2632460   2632255   2631973   2631678  
  8400.000000   2631494   2631545   2631890   2632475   2633144  
  8390.000000   2633666   2633834   2633512   2632724   2631626  
  8380.000000   2630489   2629601   2629174   2629298   2629899  
  8370.000000   2630807   2631793   2632676   2633349   2633808  
  8360.000000   2634106   2634298   2634391   2634316   2633948  
  8350.000000   2633151   2631842   2630028   2627823   2625435  
  8340.000000   2623120   2621134   2619658   2618797   2618528  
  8330.000000   2618740   2619222   2619740   2620071   2620075  
  8320.000000   2619717   2619072   2618290   2617530   2616898  
  8310.000000   2616384   2615892   2615259   2614366   2613177  
  8300.000000   2611783   2610357   2609084   2608087   2607367  
  8290.000000   2606827   2606326   2605772   2605177   2604669  
  8280.000000   2604414   2604534   2605012   2605681   2606273  
  8270.000000   2606526   2606298   2605615   2604668   2603703  
  8260.000000   2602902   2602297   2601753   2601053   2599989  
  8250.000000   2598495   2596670   2594772   2593090   2591858  
  8240.000000   2591132   2590814   2590675   2590465   2589985  
  8230.000000   2589129   2587893   2586330   2584521   2582539  
  8220.000000   2580454   2578347   2576305   2574423   2572770  
  8210.000000   2571377   2570228   2569273   2568457   2567737  
  8200.000000   2567083   2566458   2565790   2564957   2563825  
  8190.000000   2562291   2560371   2558213   2556102   2554348  
  8180.000000   2553193   2552698   2552723   2552972   2553107  
  8170.000000   2552881   2552221   2551249   2550193   2549285  
  8160.000000   2548644   2548242   2547929   2547516   2546872  
  8150.000000   2545967   2544877   2543725   2542609   2541554  
  8140.000000   2540502   2539366   2538076   2536630   2535095  
  8130.000000   2533580   2532190   2530985   2529975   2529140  
  8120.000000   2528452   2527900   2527475   2527155   2526876  
  8110.000000   2526541   2526045   2525327   2524400   2523367  
  8100.000000   2522373   2521559   2520983   2520592   2520233  
  8090.000000   2519704   2518832   2517529   2515815   2513797  
  8080.000000   2511620   2509428   2507330   2505406   2503712  
  8070.000000   2502290   2501167   2500333   2499730   2499246  
  8060.000000   2498743   2498101   2497266   2496278   2495259  
  8050.000000   2494365   2493728   2493396   2493321   2493368  
  8040.000000   2493372   2493182   2492705   2491921   2490871  
  8030.000000   2489640   2488324   2487025   2485824   2484787  
  8020.000000   2483940   2483268   2482707   2482160   2481524  
  8010.000000   2480716   2479705   2478502   2477152   2475695  
  8000.000000   2474155   2472529   2470824   2469081   2467409  
  7990.000000   2465967   2464929   2464412   2464417   2464812  
  7980.000000   2465353   2465769   2465855   2465534   2464895  
  7970.000000   2464122   2463440   2462990   2462803   2462768  
  7960.000000   2462705   2462427   2461823   2460897   2459762  
  7950.000000   2458607   2457622   2456958   2456672   2456729  
  7940.000000   2457005   2457327   2457503   2457372   2456830  
  7930.000000   2455870   2454576   2453114   2451694   2450509  
  7920.000000   2449688   2449250   2449104   2449068   2448925  
  7910.000000   2448492   2447669   2446473   2445032   2443545  
  7900.000000   2442232   2441261   2440711   2440546   2440630  
  7890.000000   2440768   2440770   2440499   2439929   2439134  
  7880.000000   2438271   2437518   2437017   2436823   2436897  
  7870.000000   2437125   2437366   2437509   2437501   2437366  
  7860.000000   2437162   2436965   2436815   2436720   2436648  
  7850.000000   2436552   2436384   2436095   2435633   2434932  
  7840.000000   2433922   2432551   2430824   2428831   2426745  
  7830.000000   2424801   2423216   2422143   2421610   2421531  
  7820.000000   2421740   2422052   2422324   2422470   2422458  
  7810.000000   2422266   2421860   2421178   2420169   2418829  
  7800.000000   2417253   2415624   2414180   2413134   2412594  
  7790.000000   2412529   2412765   2413063   2413188   2412996  
  7780.000000   2412458   2411645   2410681   2409679   2408708  
  7770.000000   2407783   2406890   2406016   2405167   2404370  
  7760.000000   2403652   2403026   2402472   2401960   2401446  
  7750.000000   2400919   2400381   2399856   2399363   2398898  
  7740.000000   2398429   2397903   2397266   2396481   2395533  
  7730.000000   2394428   2393186   2391833   2390403   2388953  
  7720.000000   2387563   2386331   2385350   2384669   2384270  
  7710.000000   2384056   2383878   2383581   2383054   2382272  
  7700.000000   2381301   2380264   2379305   2378524   2377962  
  7690.000000   2377581   2377300   2377011   2376621   2376064  
  7680.000000   2375314   2374381   2373307   2372160   2371027  
  7670.000000   2370000   2369150   2368509   2368059   2367733  
  7660.000000   2367437   2367085   2366625   2366056   2365410  
  7650.000000   2364734   2364060   2363385   2362685   2361925  
  7640.000000   2361093   2360204   2359302   2358431   2357624  
  7630.000000   2356882   2356186   2355518   2354880   2354302  
  7620.000000   2353824   2353473   2353238   2353067   2352886  
  7610.000000   2352635   2352301   2351921   2351568   2351294  
  7600.000000   2351096   2350896   2350569   2349995   2349119  
  7590.000000   2347995   2346769   2345641   2344777   2344255  
  7580.000000   2344023   2343937   2343817   2343514   2342961  
  7570.000000   2342176   2341240   2340242   2339252   2338293  
  7560.000000   2337372   2336487   2335667   2334956   2334407  
  7550.000000   2334052   2333884   2333865   2333936   2334059  
  7540.000000   2334219   2334441   2334759   2335197   2335748  
  7530.000000   2336353   2336926   2337356   2337552   2337442  
  7520.000000   2336996   2336213   2335143   2333871   2332524  
  7510.000000   2331252   2330199   2329474   2329116   2329087  
  7500.000000   2329274   2329538   2329754   2329862   2329872  
  7490.000000   2329854   2329903   2330095   2330468   2331002  
  7480.000000   2331656   2332363   2333081   2333766   2334390  
  7470.000000   2334910   2335276   2335442   2335386   2335137  
  7460.000000   2334776   2334435   2334257   2334364   2334813  
  7450.000000   2335590   2336612   2337750   2338854   2339783  
  7440.000000   2340422   2340709   2340644   2340289   2339769  
  7430.000000   2339246   2338888   2338821   2339087   2339628  
  7420.000000   2340307   2340955   2341426   2341659   2341688  
  7410.000000   2341637   2341660   2341886   2342370   2343074  
  7400.000000   2343881   2344641   2345221   2345536   2345573  
  7390.000000   2345378   2345045   2344679   2344384   2344231  
  7380.000000   2344260   2344462   2344790   2345167   2345518  
  7370.000000   2345798   2346016   2346234   2346553   2347076  
  7360.000000   2347862   2348899   2350099   2351321   2352431  
  7350.000000   2353327   2353985   2354446   2354797   2355125  
  7340.000000   2355484   2355884   2356300   2356706   2357093  
  7330.000000   2357476   2357886   2358347   2358855   2359378  
  7320.000000   2359866   2360275   2360587   2360823   2361031  
  7310.000000   2361267   2361575   2361968   2362433   2362942  
  7300.000000   2363470   2364006   2364551   2365112   2365686  
  7290.000000   2366256   2366797   2367282   2367698   2368045  
  7280.000000   2368341   2368599   2368825   2369008   2369125  
  7270.000000   2369152   2369082   2368936   2368762   2368622  
  7260.000000   2368578   2368665   2368887   2369206   2369563  
  7250.000000   2369887   2370131   2370277   2370364   2370468  
  7240.000000   2370698   2371151   2371895   2372927   2374193  
  7230.000000   2375577   2376963   2378245   2379384   2380385  
  7220.000000   2381321   2382267   2383301   2384454   2385736  
  7210.000000   2387117   2388580   2390103   2391698   2393371  
  7200.000000   2395138   2396984   2398888   2400810   2402733  
  7190.000000   2404655   2406614   2408652   2410817   2413121  
  7180.000000   2415544   2418031   2420525   2422975   2425372  
  7170.000000   2427723   2430065   2432414   2434775   2437114  
  7160.000000   2439397   2441586   2443688   2445736   2447817  
  7150.000000   2450024   2452462   2455195   2458254   2461604  
  7140.000000   2465180   2468873   2472595   2476261   2479851  
  7130.000000   2483366   2486866   2490408   2494068   2497880  
  7120.000000   2501867   2506004   2510267   2514615   2519037  
  7110.000000   2523521   2528081   2532709   2537402   2542125  
  7100.000000   2546857   2551577   2556308   2561085   2565969  
  7090.000000   2570999   2576185   2581491   2586856   2592211  
  7080.000000   2597515   2602759   2607981   2613225   2618525  
  7070.000000   2623868   2629202   2634442   2639509   2644357  
  7060.000000   2648994   2653480   2657909   2662384   2666989  
  7050.000000   2671780   2676774   2681958   2687285   2692696  
  7040.000000   2698115   2703472   2708709   2713798   2718744  
  7030.000000   2723580   2728355   2733106   2737843   2742546  
  7020.000000   2747170   2751676   2756038   2760277   2764426  
  7010.000000   2768543   2772656   2776776   2780874   2784922  
  7000.000000   2788892   2792786   2796617   2800414   2804175  
  6990.000000   2807880   2811475   2814918   2818180   2821294  
  6980.000000   2824324   2827367   2830494   2833743   2837077  
  6970.000000   2840428   2843692   2846793   2849683   2852365  
  6960.000000   2854865   2857230   2859485   2861660   2863760  
  6950.000000   2865810   2867828   2869856   2871916   2874034  
  6940.000000   2876195   2878376   2880520   2882578   2884493  
  6930.000000   2886229   2887756   2889072   2890185   2891137  
  6920.000000   2891975   2892771   2893576   2894432   2895333  
  6910.000000   2896253   2897136   2897945   2898655   2899286  
  6900.000000   2899877   2900484   2901138   2901853   2902603  
  6890.000000   2903359   2904093   2904801   2905498   2906208  
  6880.000000   2906940   2907679   2908379   2908980   2909426  
  6870.000000   2909694   2909794   2909775   2909703   2909646  
  6860.000000   2909654   2909755   2909951   2910233   2910575  
  6850.000000   2910954   2911345   2911734   2912116   2912501  
  6840.000000   2912902   2913336   2913791   2914235   2914603  
  6830.000000   2914825   2914843   2914647   2914273   2913808  
  6820.000000   2913349   2912981   2912729   2912572   2912440  
  6810.000000   2912263   2911990   2911619   2911179   2910720  
  6800.000000   2910275   2909858   2909453   2909042   2908619  
  6790.000000   2908207   2907843   2907564   2907373   2907235  
  6780.000000   2907074   2906810   2906384   2905786   2905055  
  6770.000000   2904264   2903485   2902765   2902108   2901493  
  6760.000000   2900883   2900253   2899598   2898930   2898260  
  6750.000000   2897587   2896896   2896165   2895381   2894554  
  6740.000000   2893718   2892920   2892198   2891566   2891010  
  6730.000000   2890495   2889985   2889460   2888920   2888383  
  6720.000000   2887861   2887354   2886838   2886284   2885666  
  6710.000000   2884992   2884296   2883642   2883082   2882650  
  6700.000000   2882325   2882046   2881714   2881236   2880532  
  6690.000000   2879573   2878369   2876978   2875473   2873943  
  6680.000000   2872453   2871055   2869759   2868549   2867381  
  6670.000000   2866204   2864965   2863642   2862228   2860750  
  6660.000000   2859238   2857724   2856221   2854726   2853224  
  6650.000000   2851707   2850178   2848658   2847171   2845734  
  6640.000000   2844340   2842960   2841550   2840075   2838518  
  6630.000000   2836897   2835247   2833612   2832014   2830452  
  6620.000000   2828896   2827309   2825660   2823943   2822169  
  6610.000000   2820371   2818569   2816773   2814972   2813145  
  6600.000000   2811272   2809351   2807393   2805426   2803471  
  6590.000000   2801547   2799656   2797798   2795968   2794173  
  6580.000000   2792423   2790726   2789083   2787480   2785890  
  6570.000000   2784285   2782638   2780939   2779185   2777383  
  6560.000000   2775543   2773675   2771795   2769928   2768110  
  6550.000000   2766384   2764786   2763327   2761982   2760694  
  6540.000000   2759386   2757988   2756461   2754804   2753056  
  6530.000000   2751271   2749502   2747779   2746111   2744488  
  6520.000000   2742902   2741354   2739855   2738422   2737063  
  6510.000000   2735772   2734527   2733302   2732077   2730851  
  6500.000000   2729639   2728460   2727328   2726235   2725157  
  6490.000000   2724060   2722913   2721699   2720422   2719098  
  6480.000000   2717744   2716367   2714963   2713517   2712019  
  6470.000000   2710466   2708874   2707270   2705686   2704151  
  6460.000000   2702683   2701291   2699976   2698730   2697539  
  6450.000000   2696385   2695242   2694084   2692890   2691653  
  6440.000000   2690384   2689106   2687850   2686637   2685472  
  6430.000000   2684339   2683215   2682078   2680924   2679769  
  6420.000000   2678647   2677587   2676607   2675696   2674828  
  6410.000000   2673959   2673061   2672119   2671150   2670183  
  6400.000000   2669256   2668398   2667626   2666938   2666325  
  6390.000000   2665768   2665252   2664758   2664269   2663773  
  6380.000000   2663263   2662743   2662228   2661742   2661304  
  6370.000000   2660920   2660572   2660222   2659819   2659316  
  6360.000000   2658686   2657930   2657067   2656134   2655159  
  6350.000000   2654165   2653156   2652137   2651107   2650078  
  6340.000000   2649061   2648071   2647103   2646150   2645186  
  6330.000000   2644196   2643170   2642124   2641078   2640062  
  6320.000000   2639090   2638156   2637227   2636261   2635215  
  6310.000000   2634065   2632812   2631482   2630116   2628757  
  6300.000000   2627436   2626171   2624953   2623770   2622589  
  6290.000000   2621385   2620131   2618817   2617435   2615998  
  6280.000000   2614514   2612999   2611452   2609868   2608223  
  6270.000000   2606495   2604665   2602731   2600709   2598636  
  6260.000000   2596548   2594486   2592470   2590517   2588624  
  6250.000000   2586793   2585017   2583296   2581618   2579966  
  6240.000000   2578312   2576625   2574882   2573077   2571220  
  6230.000000   2569334   2567445   2565564   2563694   2561821  
  6220.000000   2559933   2558028   2556121   2554240   2552414  
  6210.000000   2550659   2548967   2547309   2545647   2543951  
  6200.000000   2542214   2540455   2538713   2537031   2535437  
  6190.000000   2533938   2532516   2531139   2529772   2528386  
  6180.000000   2526966   2525506   2524008   2522480   2520940  
  6170.000000   2519406   2517907   2516464   2515093   2513790  
  6160.000000   2512533   2511283   2510004   2508668   2507271  
  6150.000000   2505830   2504378   2502948   2501564   2500236  
  6140.000000   2498963   2497733   2496538   2495370   2494221  
  6130.000000   2493074   2491910   2490703   2489435   2488102  
  6120.000000   2486726   2485341   2483997   2482733   2481578  
  6110.000000   2480538   2479608   2478770   2478012   2477320  
  6100.000000   2476685   2476091   2475519   2474941   2474342  
  6090.000000   2473708   2473055   2472403   2471790   2471238  
  6080.000000   2470768   2470375   2470056   2469795   2469592  
  6070.000000   2469440   2469344   2469292   2469272   2469259  
  6060.000000   2469245   2469223   2469221   2469271   2469422  
  6050.000000   2469698   2470114   2470652   2471289   2471990  
  6040.000000   2472743   2473537   2474386   2475293   2476265  
  6030.000000   2477290   2478362   2479471   2480631   2481855  
  6020.000000   2483171   2484583   2486088   2487644   2489207  
  6010.000000   2490722   2492164   2493523   2494829   2496117  
  6000.000000   2497438   2498825   2500310   2501901   2503611  
  5990.000000   2505434   2507372   2509406   2511523   2513694  
  5980.000000   2515903   2518134   2520398   2522708   2525093  
  5970.000000   2527560   2530114   2532721   2535355   2537969  
  5960.000000   2540553   2543097   2545627   2548164   2550742  
  5950.000000   2553370   2556065   2558827   2561672   2564619  
  5940.000000   2567699   2570938   2574350   2577929   2581645  
  5930.000000   2585451   2589293   2593119   2596886   2600556  
  5920.000000   2604108   2607521   2610789   2613910   2616895  
  5910.000000   2619758   2622519   2625189   2627776   2630287  
  5900.000000   2632731   2635135   2637535   2639984   2642525  
  5890.000000   2645194   2647987   2650884   2653837   2656799  
  5880.000000   2659728   2662598   2665393   2668100   2670704  
  5870.000000   2673180   2675508   2677679   2679708   2681637  
  5860.000000   2683524   2685430   2687400   2689461   2691615  
  5850.000000   2693855   2696170   2698554   2701001   2703498  
  5840.000000   2706015   2708506   2710924   2713231   2715417  
  5830.000000   2717508   2719559   2721633   2723788   2726046  
  5820.000000   2728406   2730836   2733301   2735768   2738221  
  5810.000000   2740658   2743073   2745472   2747840   2750181  
  5800.000000   2752478   2754756   2757012   2759283   2761553  
  5790.000000   2763823   2766022   2768090   2769903   2771360  
  5780.000000   2772318   2772678   2772337   2771269   2769481  
  5770.000000   2767080   2764208   2761075   2757864   2754747  
  5760.000000   2751808   2749088   2746553   2744172   2741904  
  5750.000000   2739751   2737726   2735861   2734168   2732635  
  5740.000000   2731233   2729917   2728664   2727460   2726326  
  5730.000000   2725273   2724321   2723451   2722641   2721846  
  5720.000000   2721047   2720231   2719423   2718644   2717927  
  5710.000000   2717277   2716692   2716156   2715658   2715200  
  5700.000000   2714796   2714465   2714214   2714037   2713905  
  5690.000000   2713792   2713667   2713531   2713382   2713241  
  5680.000000   2713097   2712936   2712701   2712338   2711783  
  5670.000000   2710998   2709953   2708650   2707083   2705264  
  5660.000000   2703191   2700886   2698380   2695740   2693039  
  5650.000000   2690369   2687796   2685367   2683087   2680946  
  5640.000000   2678914   2676970   2675097   2673290   2671546  
  5630.000000   2669857   2668215   2666606   2665035   2663503  
  5620.000000   2662035   2660639   2659330   2658094   2656920  
  5610.000000   2655783   2654675   2653593   2652556   2651578  
  5600.000000   2650674   2649836   2649049   2648287   2647533  
  5590.000000   2646777   2646021   2645272   2644527   2643774  
  5580.000000   2642991   2642161   2641273   2640339   2639380  
  5570.000000   2638426   2637489   2636564   2635625   2634639  
  5560.000000   2633576   2632427   2631202   2629929   2628637  
  5550.000000   2627349   2626073   2624812   2623564   2622335  
  5540.000000   2621135   2619980   2618873   2617809   2616767  
  5530.000000   2615724   2614658   2613562   2612444   2611319  
  5520.000000   2610200   2609095   2607995   2606889   2605761  
  5510.000000   2604605   2603418   2602208   2600978   2599730  
  5500.000000   2598461   2597173   2595869   2594566   2593273  
  5490.000000   2591997   2590724   2589430   2588074   2586627  
  5480.000000   2585070   2583414   2581683   2579921   2578156  
  5470.000000   2576414   2574694   2572996   2571308   2569627  
  5460.000000   2567951   2566274   2564581   2562849   2561050  
  5450.000000   2559166   2557197   2555163   2553104   2551059  
  5440.000000   2549063   2547129   2545262   2543457   2541720  
  5430.000000   2540056   2538478   2536977   2535537   2534116  
  5420.000000   2532682   2531210   2529721   2528252   2526882  
  5410.000000   2525662   2524636   2523787   2523090   2522492  
  5400.000000   2521981   2521544   2521219   2521022   2520982  
  5390.000000   2521073   2521279   2521549   2521883   2522281  
  5380.000000   2522807   2523502   2524428   2525579   2526954  
  5370.000000   2528487   2530156   2531908   2533768   2535728  
  5360.000000   2537851   2540137   2542648   2545378   2548395  
  5350.000000   2551704   2555391   2559457   2563973   2568899  
  5340.000000   2574269   2580014   2586179   2592717   2599705  
  5330.000000   2607108   2615000   2623326   2632141   2641388  
  5320.000000   2651155   2661429   2672352   2683930   2696297  
  5310.000000   2709409   2723337   2737976   2753367   2769418  
  5300.000000   2786214   2803723   2822088   2841318   2861556  
  5290.000000   2882779   2905052   2928250   2952325   2977080  
  5280.000000   3002443   3028278   3054622   3081478   3108977  
  5270.000000   3137152   3166040   3195520   3225425   3255515  
  5260.000000   3285596   3315553   3345368   3375117   3404852  
  5250.000000   3434611   3464270   3493678   3522541   3550685  
  5240.000000   3577901   3604216   3629618   3654290   3678272  
  5230.000000   3701706   3724517   3746710   3768091   3788620  
  5220.000000   3808135   3826699   3844278   3861058   3877078  
  5210.000000   3892528   3907374   3921678   3935269   3948117  
  5200.000000   3960037   3971069   3981152   3990448   3998972  
  5190.000000   4006891   4014172   4020896   4026966   4032425  
  5180.000000   4037190   4041342   4044835   4047761   4050062  
  5170.000000   4051799   4052900   4053429   4053356   4052784  
  5160.000000   4051717   4050258   4048384   4046153   4043510  
  5150.000000   4040496   4037078   4033322   4029223   4024848  
  5140.000000   4020180   4015260   4010056   4004608   3998910  
  5130.000000   3993028   3986979   3980824   3974566   3968233  
  5120.000000   3961806   3955300   3948705   3942044   3935317  
  5110.000000   3928539   3921699   3914801   3907836   3900824  
  5100.000000   3893789   3886782   3879844   3873014   3866299  
  5090.000000   3859695   3853170   3846700   3840256   3833831  
  5080.000000   3827417   3821019   3814630   3808245   3801847  
  5070.000000   3795425   3788968   3782474   3775941   3769372  
  5060.000000   3762760   3756103   3749390   3742622   3735797  
  5050.000000   3728926   3722012   3715063   3708072   3701039  
  5040.000000   3693957   3686834   3679686   3672541   3665429  
  5030.000000   3658378   3651404   3644508   3637683   3630915  
  5020.000000   3624200   3617534   3610930   3604393   3597944  
  5010.000000   3591580   3585315   3579138   3573065   3567094  
  5000.000000   3561257   3555560   3550048   3544723   3539624  
  4990.000000   3534740   3530098   3525676   3521494   3517525  
  4980.000000   3513791   3510266   3506985   3503935   3501171  
  4970.000000   3498695   3496569   3494790   3493402   3492373  
  4960.000000   3491724   3491404   3491429   3491754   3492413  
  4950.000000   3493370   3494669   3496273   3498220   3500469  
  4940.000000   3503058   3505958   3509218   3512820   3516814  
  4930.000000   3521172   3525926   3531030   3536499   3542283  
  4920.000000   3548400   3554805   3561517   3568496   3575752  
  4910.000000   3583243   3590975   3598914   3607067   3615413  
  4900.000000   3623954   3632665   3641533   3650526   3659611  
  4890.000000   3668755   3677911   3687044   3696095   3705022  
  4880.000000   3713755   3722254   3730450   3738323   3745815  
  4870.000000   3752923   3759592   3765830   3771588   3776887  
  4860.000000   3781700   3786075   3790006   3793558   3796730  
  4850.000000   3799580   3802099   3804333   3806275   3807970  
  4840.000000   3809421   3810680   3811756   3812702   3813538  
  4830.000000   3814317   3815070   3815849   3816681   3817593  
  4820.000000   3818582   3819637   3820731   3821841   3822952  
  4810.000000   3824067   3825205   3826387   3827636   3828959  
  4800.000000   3830355   3831805   3833300   3834830   3836401  
  4790.000000   3838021   3839703   3841450   3843254   3845097  
  4780.000000   3846958   3848820   3850675   3852526   3854377  
  4770.000000   3856232   3858079   3859902   3861672   3863368  
  4760.000000   3864970   3866477   3867887   3869216   3870460  
  4750.000000   3871625   3872697   3873672   3874538   3875302  
  4740.000000   3875965   3876547   3877055   3877504   3877895  
  4730.000000   3878235   3878523   3878770   3878983   3879174  
  4720.000000   3879349   3879511   3879659   3879788   3879902  
  4710.000000   3880006   3880123   3880275   3880501   3880823  
  4700.000000   3881272   3881863   3882614   3883531   3884628  
  4690.000000   3885909   3887380   3889029   3890840   3892775  
  4680.000000   3894794   3896840   3898871   3900834   3902708  
  4670.000000   3904464   3906105   3907628   3909059   3910415  
  4660.000000   3911736   3913057   3914433   3915908   3917534  
  4650.000000   3919348   3921374   3923616   3926061   3928678  
  4640.000000   3931425   3934260   3937143   3940049   3942955  
  4630.000000   3945850   3948714   3951531   3954264   3956879  
  4620.000000   3959326   3961571   3963575   3965331   3966827  
  4610.000000   3968089   3969130   3969999   3970717   3971336  
  4600.000000   3971869   3972354   3972782   3973165   3973468  
  4590.000000   3973681   3973755   3973679   3973413   3972962  
  4580.000000   3972309   3971479   3970469   3969308   3967997  
  4570.000000   3966556   3964978   3963279   3961445   3959489  
  4560.000000   3957398   3955189   3952857   3950424   3947902  
  4550.000000   3945319   3942691   3940043   3937382   3934714  
  4540.000000   3932031   3929329   3926600   3923847   3921081  
  4530.000000   3918318   3915588   3912907   3910312   3907808  
  4520.000000   3905427   3903162   3901044   3899060   3897245  
  4510.000000   3895582   3894125   3892866   3891886   3891196  
  4500.000000   3890897   3891004   3891618   3892732   3894428  
  4490.000000   3896678   3899557   3903034   3907192   3912004  
  4480.000000   3917553   3923800   3930808   3938515   3946960  
  4470.000000   3956066   3965855   3976242   3987234   3998736  
  4460.000000   4010739   4023140   4035921   4048983   4062311  
  4450.000000   4075829   4089530   4103366   4117345   4131445  
  4440.000000   4145674   4160024   4174483   4189031   4203623  
  4430.000000   4218226   4232769   4247223   4261515   4275637  
  4420.000000   4289517   4303148   4316438   4329357   4341779  
  4410.000000   4353646   4364817   4375243   4384812   4393525  
  4400.000000   4401343   4408342   4414560   4420135   4425154  
  4390.000000   4429779   4434108   4438282   4442375   4446484  
  4380.000000   4450642   4454902   4459279   4463810   4468520  
  4370.000000   4473455   4478656   4484164   4490009   4496204  
  4360.000000   4502745   4509615   4516772   4524189   4531781  
  4350.000000   4539514   4547262   4554995   4562588   4570056  
  4340.000000   4577320   4584419   4591242   4597680   4603396  
  4330.000000   4607981   4610850   4611473   4609401   4604496  
  4320.000000   4596930   4587271   4576308   4564989   4554153  
  4310.000000   4544483   4536334   4529832   4524846   4521166  
  4300.000000   4518533   4516743   4515654   4515165   4515234  
  4290.000000   4515778   4516773   4518126   4519826   4521813  
  4280.000000   4524098   4526657   4529491   4532581   4535890  
  4270.000000   4539392   4543015   4546685   4550237   4553459  
  4260.000000   4556028   4557593   4557788   4556349   4553154  
  4250.000000   4548306   4542089   4534973   4527463   4520083  
  4240.000000   4513213   4507128   4501892   4497479   4493733  
  4230.000000   4490491   4487567   4484815   4482127   4479427  
  4220.000000   4476700   4473932   4471189   4468512   4466021  
  4210.000000   4463784   4461918   4460459   4459464   4458900  
  4200.000000   4458744   4458908   4459328   4459904   4460589  
  4190.000000   4461311   4462073   4462847   4463681   4464576  
  4180.000000   4465593   4466732   4468044   4469513   4471187  
  4170.000000   4473055   4475180   4477575   4480322   4483441  
  4160.000000   4487007   4491013   4495506   4500446   4505855  
  4150.000000   4511679   4517936   4524569   4531602   4538986  
  4140.000000   4546762   4554893   4563441   4572382   4581781  
  4130.000000   4591604   4601892   4612587   4623708   4635194  
  4120.000000   4647076   4659330   4672021   4685161   4698828  
  4110.000000   4713025   4727790   4743071   4758837   4774978  
  4100.000000   4791416   4808030   4824755   4841521   4858318  
  4090.000000   4875142   4892021   4908979   4926028   4943180  
  4080.000000   4960415   4977732   4995088   5012475   5029823  
  4070.000000   5047098   5064184   5081018   5097466   5113489  
  4060.000000   5128990   5143987   5158426   5172357   5185727  
  4050.000000   5198588   5210881   5222676   5233923   5244708  
  4040.000000   5254966   5264752   5273957   5282601   5290559  
  4030.000000   5297866   5304426   5310292   5315394   5319776  
  4020.000000   5323345   5326163   5328227   5329642   5330396  
  4010.000000   5330649   5330486   5329917   5328706   5326884  
  4000.000000   5324745  
##END= 
