##TITLE= Sample 010 By ssteindl date Dienstag, November 20 2018
##JCAMP-DX= 4.24
##DATA TYPE= INFRARED SPECTRUM
##ORIGIN= Exported PE Spectrum Data File
##OWNER= Sandra Steindl
##DATE= 18/11/20
##TIME= 17:03:08.00
##SPECTROMETER/DATA SYSTEM= PERKIN-ELMER Frontier FT-IR/NIR IR
##INSTRUMENT PARAMETERS=
  APODIZATION=stark
  DETECTOR=INGAAS
##RESOLUTION= 16.000000
##DELTAX= -2.000000
##XUNITS= 1/CM
##YUNITS= A
##XFACTOR= 1.00
##YFACTOR= 0.00000011920928955078
##FIRSTX= 10000.00
##LASTX= 4000.00
##NPOINTS= 3001
##FIRSTY= 0.292069
##MAXY= 0.629205
##MINY= 0.232805
##XYDATA= (X++(Y..Y))
 10000.000000   2450053   2447865   2446488   2446403   2446641  
  9990.000000   2445749   2443393   2440464   2438205   2437706  
  9980.000000   2439782   2444620   2451498   2459029   2465793  
  9970.000000   2470754   2473504   2474263   2473684   2472518  
  9960.000000   2471336   2470459   2469958   2469846   2470107  
  9950.000000   2470772   2471746   2472832   2473574   2473529  
  9940.000000   2472278   2469751   2466158   2461969   2457693  
  9930.000000   2453635   2449852   2446077   2441945   2437102  
  9920.000000   2431394   2424919   2418004   2411167   2405012  
  9910.000000   2400216   2397415   2397136   2399583   2404494  
  9900.000000   2411052   2417957   2423794   2427357   2428149  
  9890.000000   2426388   2423023   2419206   2415960   2413732  
  9880.000000   2412392   2411394   2410185   2408561   2406837  
  9870.000000   2405753   2406101   2408344   2412298   2417161  
  9860.000000   2421751   2424953   2426094   2425114   2422570  
  9850.000000   2419357   2416487   2414764   2414664   2416243  
  9840.000000   2419184   2422881   2426564   2429475   2431011  
  9830.000000   2430952   2429477   2427249   2425134   2424030  
  9820.000000   2424457   2426443   2429461   2432661   2435176  
  9810.000000   2436407   2436162   2434581   2431956   2428494  
  9800.000000   2424262   2419203   2413367   2407020   2400755  
  9790.000000   2395336   2391497   2389699   2389957   2391900  
  9780.000000   2394889   2398324   2401771   2405096   2408314  
  9770.000000   2411483   2414550   2417339   2419647   2421325  
  9760.000000   2422393   2422955   2423128   2422872   2421932  
  9750.000000   2419921   2416471   2411510   2405336   2398662  
  9740.000000   2392365   2387240   2383715   2381746   2380863  
  9730.000000   2380376   2379604   2378101   2375722   2372656  
  9720.000000   2369304   2366203   2363894   2362851   2363404  
  9710.000000   2365625   2369284   2373768   2378187   2381498  
  9700.000000   2382808   2381605   2377978   2372579   2366501  
  9690.000000   2360905   2356732   2354415   2353820   2354335  
  9680.000000   2355114   2355390   2354734   2353197   2351249  
  9670.000000   2349593   2348866   2349408   2351132   2353543  
  9660.000000   2355970   2357757   2358590   2358526   2358024  
  9650.000000   2357699   2358058   2359288   2361139   2363079  
  9640.000000   2364516   2365116   2364942   2364464   2364297  
  9630.000000   2364946   2366495   2368585   2370511   2371509  
  9620.000000   2371072   2369073   2365837   2361910   2357872  
  9610.000000   2354112   2350750   2347740   2344993   2342587  
  9600.000000   2340776   2339973   2340537   2342641   2346124  
  9590.000000   2350523   2355162   2359311   2362352   2363858  
  9580.000000   2363705   2362014   2359184   2355767   2352406  
  9570.000000   2349700   2348050   2347581   2348074   2349073  
  9560.000000   2350019   2350476   2350230   2349338   2348017  
  9550.000000   2346498   2344919   2343257   2341441   2339425  
  9540.000000   2337356   2335546   2334402   2334251   2335171  
  9530.000000   2336981   2339262   2341596   2343658   2345385  
  9520.000000   2346863   2348263   2349645   2350905   2351790  
  9510.000000   2351989   2351289   2349615   2347048   2343720  
  9500.000000   2339725   2335105   2329868   2324158   2318293  
  9490.000000   2312846   2308441   2305620   2304536   2304937  
  9480.000000   2306160   2307413   2308008   2307565   2306106  
  9470.000000   2303895   2301352   2298749   2296236   2293718  
  9460.000000   2291080   2288207   2285150   2282078   2279264  
  9450.000000   2277006   2275572   2275210   2276090   2278312  
  9440.000000   2281785   2286182   2290911   2295198   2298325  
  9430.000000   2299796   2299574   2298004   2295770   2293542  
  9420.000000   2291818   2290694   2289929   2289119   2287939  
  9410.000000   2286397   2284799   2283719   2283669   2284988  
  9400.000000   2287638   2291295   2295393   2299316   2302497  
  9390.000000   2304498   2305068   2304109   2301757   2298331  
  9380.000000   2294357   2290452   2287156   2284773   2283231  
  9370.000000   2282175   2281126   2279767   2278108   2276517  
  9360.000000   2275539   2275618   2276812   2278652   2280290  
  9350.000000   2280793   2279642   2276945   2273509   2270503  
  9340.000000   2269029   2269704   2272402   2276374   2280534  
  9330.000000   2283953   2286185   2287352   2287947   2288507  
  9320.000000   2289314   2290258   2290890   2290645   2289131  
  9310.000000   2286326   2282617   2278683   2275205   2272723  
  9300.000000   2271376   2271041   2271308   2271748   2271994  
  9290.000000   2271816   2271148   2269977   2268346   2266206  
  9280.000000   2263451   2259908   2255489   2250311   2244789  
  9270.000000   2239621   2235646   2233709   2234365   2237717  
  9260.000000   2243233   2249880   2256363   2261448   2264295  
  9250.000000   2264569   2262544   2258844   2254320   2249667  
  9240.000000   2245425   2241851   2239098   2237229   2236249  
  9230.000000   2236153   2236813   2238110   2239819   2241809  
  9220.000000   2244018   2246562   2249632   2253289   2257330  
  9210.000000   2261174   2264047   2265137   2263930   2260412  
  9200.000000   2255177   2249292   2243954   2240175   2238449  
  9190.000000   2238742   2240502   2242938   2245219   2246739  
  9180.000000   2247174   2246470   2244720   2242110   2238891  
  9170.000000   2235372   2231923   2228886   2226598   2225247  
  9160.000000   2224887   2225331   2226214   2227097   2227597  
  9150.000000   2227492   2226730   2225463   2224023   2222833  
  9140.000000   2222312   2222767   2224337   2226912   2230134  
  9130.000000   2233452   2236269   2238107   2238738   2238232  
  9120.000000   2236928   2235312   2233877   2232948   2232593  
  9110.000000   2232628   2232715   2232534   2231866   2230722  
  9100.000000   2229276   2227876   2226875   2226574   2227066  
  9090.000000   2228237   2229742   2231105   2231815   2231470  
  9080.000000   2229899   2227214   2223807   2220234   2217058  
  9070.000000   2214649   2213078   2212094   2211257   2210106  
  9060.000000   2208349   2205984   2203293   2200745   2198807  
  9050.000000   2197801   2197807   2198648   2199978   2201392  
  9040.000000   2202566   2203289   2203495   2203222   2202617  
  9030.000000   2201853   2201129   2200576   2200273   2200176  
  9020.000000   2200155   2200008   2199532   2198652   2197424  
  9010.000000   2196111   2195043   2194586   2194978   2196255  
  9000.000000   2198216   2200454   2202495   2203835   2204068  
  8990.000000   2202922   2200370   2196592   2191991   2187174  
  8980.000000   2182876   2179828   2178533   2179181   2181561  
  8970.000000   2185130   2189121   2192783   2195575   2197262  
  8960.000000   2197888   2197666   2196861   2195661   2194176  
  8950.000000   2192478   2190729   2189187   2188169   2187930  
  8940.000000   2188506   2189673   2190922   2191678   2191458  
  8930.000000   2190094   2187762   2184928   2182177   2179981  
  8920.000000   2178576   2177889   2177646   2177488   2177143  
  8910.000000   2176490   2175576   2174557   2173609   2172891  
  8900.000000   2172504   2172511   2172938   2173770   2174954  
  8890.000000   2176348   2177747   2178898   2179592   2179710  
  8880.000000   2179278   2178420   2177341   2176221   2175211  
  8870.000000   2174374   2173717   2173229   2172893   2172730  
  8860.000000   2172737   2172936   2173321   2173922   2174775  
  8850.000000   2175938   2177454   2179262   2181183   2182862  
  8840.000000   2183893   2183881   2182633   2180221   2177029  
  8830.000000   2173663   2170770   2168900   2168332   2169102  
  8820.000000   2170989   2173663   2176728   2179816   2182589  
  8810.000000   2184739   2185985   2186095   2184969   2182683  
  8800.000000   2179554   2176066   2172795   2170239   2168718  
  8790.000000   2168304   2168821   2169938   2171253   2172413  
  8780.000000   2173160   2173369   2173025   2172210   2171094  
  8770.000000   2169892   2168867   2168241   2168188   2168739  
  8760.000000   2169815   2171201   2172646   2173916   2174859  
  8750.000000   2175448   2175735   2175850   2175926   2176104  
  8740.000000   2176492   2177189   2178256   2179703   2181440  
  8730.000000   2183256   2184825   2185777   2185801   2184741  
  8720.000000   2182662   2179841   2176692   2173645   2171029  
  8710.000000   2169012   2167606   2166725   2166252   2166107  
  8700.000000   2166236   2166609   2167154   2167756   2168264  
  8690.000000   2168552   2168598   2168478   2168379   2168476  
  8680.000000   2168892   2169583   2170389   2171049   2171348  
  8670.000000   2171178   2170616   2169877   2169238   2168930  
  8660.000000   2169057   2169590   2170406   2171372   2172417  
  8650.000000   2173544   2174817   2176278   2177886   2179489  
  8640.000000   2180847   2181735   2182033   2181806   2181311  
  8630.000000   2180916   2180979   2181723   2183135   2184967  
  8620.000000   2186794   2188166   2188740   2188404   2187298  
  8610.000000   2185761   2184217   2183042   2182450   2182456  
  8600.000000   2182891   2183484   2183978   2184211   2184177  
  8590.000000   2184000   2183871   2183962   2184342   2184965  
  8580.000000   2185684   2186337   2186836   2187216   2187642  
  8570.000000   2188333   2189478   2191115   2193085   2195038  
  8560.000000   2196528   2197158   2196717   2195282   2193213  
  8550.000000   2191062   2189403   2188669   2189008   2190270  
  8540.000000   2192031   2193766   2194993   2195434   2195071  
  8530.000000   2194129   2192968   2191949   2191322   2191145  
  8520.000000   2191312   2191580   2191706   2191501   2190924  
  8510.000000   2190063   2189105   2188279   2187776   2187720  
  8500.000000   2188141   2188992   2190193   2191640   2193241  
  8490.000000   2194899   2196518   2197982   2199168   2199974  
  8480.000000   2200366   2200406   2200264   2200184   2200416  
  8470.000000   2201138   2202362   2203932   2205541   2206846  
  8460.000000   2207574   2207618   2207073   2206193   2205300  
  8450.000000   2204653   2204363   2204365   2204474   2204493  
  8440.000000   2204307   2203969   2203660   2203654   2204163  
  8430.000000   2205284   2206927   2208865   2210804   2212459  
  8420.000000   2213643   2214272   2214352   2213933   2213069  
  8410.000000   2211832   2210328   2208726   2207247   2206137  
  8400.000000   2205593   2205693   2206328   2207239   2208072  
  8390.000000   2208514   2208369   2207638   2206499   2205249  
  8380.000000   2204193   2203553   2203408   2203701   2204276  
  8370.000000   2204943   2205523   2205891   2205974   2205755  
  8360.000000   2205248   2204495   2203564   2202537   2201498  
  8350.000000   2200509   2199596   2198747   2197925   2197100  
  8340.000000   2196282   2195526   2194919   2194537   2194400  
  8330.000000   2194423   2194440   2194235   2193644   2192610  
  8320.000000   2191240   2189773   2188531   2187807   2187771  
  8310.000000   2188414   2189547   2190880   2192104   2192996  
  8300.000000   2193464   2193564   2193447   2193287   2193202  
  8290.000000   2193213   2193241   2193148   2192787   2192069  
  8280.000000   2191000   2189695   2188331   2187109   2186161  
  8270.000000   2185540   2185173   2184908   2184549   2183931  
  8260.000000   2182967   2181674   2180160   2178581   2177083  
  8250.000000   2175761   2174634   2173664   2172783   2171947  
  8240.000000   2171152   2170443   2169877   2169498   2169284  
  8230.000000   2169149   2168945   2168510   2167721   2166524  
  8220.000000   2164960   2163139   2161207   2159307   2157535  
  8210.000000   2155942   2154524   2153277   2152188   2151270  
  8200.000000   2150530   2149965   2149527   2149124   2148623  
  8190.000000   2147874   2146755   2145199   2143228   2140943  
  8180.000000   2138517   2136144   2134010   2132242   2130896  
  8170.000000   2129941   2129269   2128728   2128152   2127424  
  8160.000000   2126496   2125424   2124337   2123407   2122786  
  8150.000000   2122548   2122652   2122927   2123116   2122932  
  8140.000000   2122158   2120695   2118615   2116127   2113528  
  8130.000000   2111119   2109122   2107635   2106616   2105923  
  8120.000000   2105359   2104759   2104025   2103168   2102282  
  8110.000000   2101504   2100951   2100663   2100583   2100547  
  8100.000000   2100354   2099796   2098765   2097258   2095423  
  8090.000000   2093485   2091696   2090255   2089243   2088641  
  8080.000000   2088338   2088221   2088211   2088313   2088579  
  8070.000000   2089080   2089818   2090701   2091524   2092020  
  8060.000000   2091937   2091107   2089518   2087303   2084714  
  8050.000000   2082039   2079532   2077367   2075604   2074230  
  8040.000000   2073162   2072314   2071591   2070927   2070265  
  8030.000000   2069579   2068860   2068121   2067394   2066703  
  8020.000000   2066065   2065455   2064830   2064120   2063287  
  8010.000000   2062327   2061300   2060306   2059450   2058804  
  8000.000000   2058371   2058085   2057836   2057512   2057044  
  7990.000000   2056413   2055662   2054839   2053990   2053112  
  7980.000000   2052183   2051168   2050065   2048927   2047856  
  7970.000000   2046985   2046425   2046246   2046449   2046974  
  7960.000000   2047726   2048583   2049423   2050113   2050519  
  7950.000000   2050508   2049982   2048908   2047356   2045507  
  7940.000000   2043632   2042030   2040948   2040510   2040673  
  7930.000000   2041244   2041927   2042422   2042496   2042053  
  7920.000000   2041143   2039930   2038643   2037497   2036647  
  7910.000000   2036146   2035953   2035957   2036025   2036042  
  7900.000000   2035953   2035770   2035562   2035418   2035402  
  7890.000000   2035522   2035715   2035866   2035855   2035602  
  7880.000000   2035111   2034475   2033847   2033393   2033218  
  7870.000000   2033339   2033662   2034020   2034221   2034116  
  7860.000000   2033634   2032798   2031703   2030478   2029249  
  7850.000000   2028106   2027100   2026249   2025546   2024984  
  7840.000000   2024545   2024223   2024001   2023881   2023857  
  7830.000000   2023948   2024162   2024505   2024947   2025421  
  7820.000000   2025819   2026006   2025866   2025314   2024338  
  7810.000000   2022983   2021350   2019551   2017690   2015854  
  7800.000000   2014103   2012502   2011120   2010049   2009374  
  7790.000000   2009154   2009373   2009935   2010656   2011306  
  7780.000000   2011666   2011581   2011013   2010035   2008827  
  7770.000000   2007601   2006556   2005815   2005408   2005271  
  7760.000000   2005281   2005303   2005222   2004984   2004579  
  7750.000000   2004050   2003448   2002827   2002217   2001632  
  7740.000000   2001070   2000523   1999982   1999434   1998859  
  7730.000000   1998223   1997485   1996599   1995536   1994288  
  7720.000000   1992882   1991377   1989854   1988405   1987112  
  7710.000000   1986046   1985253   1984757   1984548   1984587  
  7700.000000   1984802   1985084   1985308   1985342   1985084  
  7690.000000   1984471   1983515   1982280   1980895   1979507  
  7680.000000   1978263   1977273   1976597   1976236   1976132  
  7670.000000   1976194   1976308   1976369   1976294   1976044  
  7660.000000   1975619   1975061   1974432   1973799   1973220  
  7650.000000   1972727   1972336   1972035   1971802   1971600  
  7640.000000   1971375   1971067   1970610   1969957   1969101  
  7630.000000   1968092   1967043   1966103   1965413   1965056  
  7620.000000   1965018   1965187   1965381   1965421   1965192  
  7610.000000   1964696   1964051   1963447   1963065   1963002  
  7600.000000   1963224   1963575   1963843   1963823   1963400  
  7590.000000   1962571   1961447   1960201   1959008   1957993  
  7580.000000   1957212   1956656   1956284   1956051   1955926  
  7570.000000   1955899   1955961   1956100   1956290   1956492  
  7560.000000   1956669   1956780   1956802   1956703   1956475  
  7550.000000   1956102   1955596   1954986   1954335   1953725  
  7540.000000   1953239   1952953   1952910   1953127   1953588  
  7530.000000   1954254   1955075   1955978   1956875   1957650  
  7520.000000   1958188   1958376   1958169   1957597   1956800  
  7510.000000   1955980   1955366   1955139   1955386   1956081  
  7500.000000   1957098   1958266   1959422   1960461   1961344  
  7490.000000   1962086   1962722   1963279   1963767   1964186  
  7480.000000   1964552   1964896   1965280   1965760   1966372  
  7470.000000   1967091   1967842   1968518   1969020   1969297  
  7460.000000   1969369   1969319   1969278   1969374   1969705  
  7450.000000   1970313   1971189   1972281   1973516   1974810  
  7440.000000   1976089   1977287   1978362   1979291   1980082  
  7430.000000   1980764   1981394   1982033   1982743   1983561  
  7420.000000   1984511   1985591   1986791   1988085   1989438  
  7410.000000   1990803   1992122   1993334   1994390   1995272  
  7400.000000   1996011   1996677   1997368   1998168   1999123  
  7390.000000   2000215   2001368   2002475   2003436   2004202  
  7380.000000   2004789   2005278   2005780   2006405   2007219  
  7370.000000   2008229   2009391   2010625   2011843   2012973  
  7360.000000   2013974   2014838   2015586   2016266   2016932  
  7350.000000   2017645   2018457   2019401   2020481   2021670  
  7340.000000   2022916   2024153   2025311   2026335   2027188  
  7330.000000   2027857   2028354   2028711   2028987   2029251  
  7320.000000   2029582   2030043   2030674   2031480   2032421  
  7310.000000   2033439   2034470   2035484   2036493   2037550  
  7300.000000   2038722   2040051   2041521   2043041   2044470  
  7290.000000   2045648   2046464   2046886   2046984   2046894  
  7280.000000   2046781   2046783   2046981   2047389   2047969  
  7270.000000   2048661   2049415   2050209   2051037   2051898  
  7260.000000   2052775   2053630   2054417   2055097   2055680  
  7250.000000   2056213   2056796   2057530   2058504   2059736  
  7240.000000   2061186   2062746   2064297   2065728   2066991  
  7230.000000   2068093   2069111   2070135   2071262   2072544  
  7220.000000   2074007   2075628   2077385   2079242   2081193  
  7210.000000   2083233   2085378   2087632   2090000   2092462  
  7200.000000   2095008   2097619   2100301   2103058   2105906  
  7190.000000   2108834   2111822   2114807   2117732   2120531  
  7180.000000   2123184   2125702   2128152   2130612   2133174  
  7170.000000   2135895   2138808   2141898   2145144   2148500  
  7160.000000   2151942   2155437   2158968   2162504   2166025  
  7150.000000   2169511   2172981   2176471   2180068   2183847  
  7140.000000   2187880   2192161   2196641   2201191   2205694  
  7130.000000   2210042   2214214   2218250   2222276   2226433  
  7120.000000   2230870   2235677   2240899   2246504   2252439  
  7110.000000   2258612   2264937   2271304   2277617   2283768  
  7100.000000   2289684   2295316   2300688   2305867   2310979  
  7090.000000   2316142   2321463   2326987   2332715   2338602  
  7080.000000   2344593   2350638   2356714   2362816   2368948  
  7070.000000   2375104   2381266   2387395   2393460   2399433  
  7060.000000   2405318   2411141   2416953   2422806   2428752  
  7050.000000   2434823   2441023   2447327   2453681   2460010  
  7040.000000   2466232   2472277   2478104   2483714   2489146  
  7030.000000   2494466   2499745   2505044   2510391   2515798  
  7020.000000   2521255   2526760   2532306   2537902   2543531  
  7010.000000   2549164   2554733   2560165   2565390   2570381  
  7000.000000   2575150   2579759   2584275   2588756   2593207  
  6990.000000   2597605   2601894   2606043   2610047   2613959  
  6980.000000   2617842   2621766   2625738   2629728   2633645  
  6970.000000   2637406   2640938   2644233   2647320   2650269  
  6960.000000   2653133   2655955   2658732   2661463   2664130  
  6950.000000   2666747   2669325   2671895   2674449   2676968  
  6940.000000   2679395   2681683   2683790   2685723   2687509  
  6930.000000   2689202   2690843   2692462   2694055   2695621  
  6920.000000   2697148   2698654   2700153   2701666   2703184  
  6910.000000   2704677   2706086   2707360   2708461   2709399  
  6900.000000   2710212   2710966   2711716   2712501   2713325  
  6890.000000   2714178   2715038   2715899   2716757   2717619  
  6880.000000   2718481   2719332   2720146   2720904   2721594  
  6870.000000   2722234   2722851   2723479   2724137   2724822  
  6860.000000   2725508   2726164   2726762   2727291   2727755  
  6850.000000   2728169   2728546   2728900   2729238   2729575  
  6840.000000   2729931   2730332   2730788   2731292   2731798  
  6830.000000   2732245   2732570   2732738   2732756   2732682  
  6820.000000   2732591   2732555   2732602   2732716   2732838  
  6810.000000   2732912   2732896   2732797   2732648   2732501  
  6800.000000   2732383   2732289   2732177   2731995   2731699  
  6790.000000   2731286   2730786   2730249   2729723   2729230  
  6780.000000   2728763   2728296   2727802   2727278   2726738  
  6770.000000   2726218   2725746   2725338   2724983   2724657  
  6760.000000   2724328   2723975   2723586   2723156   2722684  
  6750.000000   2722157   2721570   2720918   2720222   2719519  
  6740.000000   2718860   2718295   2717851   2717531   2717308  
  6730.000000   2717150   2717023   2716910   2716801   2716689  
  6720.000000   2716554   2716358   2716055   2715608   2715001  
  6710.000000   2714252   2713402   2712505   2711598   2710705  
  6700.000000   2709822   2708947   2708071   2707212   2706382  
  6690.000000   2705600   2704860   2704137   2703386   2702573  
  6680.000000   2701673   2700700   2699683   2698662   2697660  
  6670.000000   2696682   2695701   2694695   2693640   2692544  
  6660.000000   2691421   2690301   2689188   2688072   2686912  
  6650.000000   2685663   2684284   2682761   2681101   2679334  
  6640.000000   2677493   2675613   2673723   2671861   2670061  
  6630.000000   2668367   2666808   2665394   2664095   2662856  
  6620.000000   2661600   2660269   2658830   2657298   2655713  
  6610.000000   2654125   2652565   2651033   2649498   2647926  
  6600.000000   2646297   2644627   2642956   2641340   2639809  
  6590.000000   2638360   2636940   2635474   2633878   2632096  
  6580.000000   2630111   2627947   2625661   2623326   2621016  
  6570.000000   2618801   2616734   2614855   2613178   2611685  
  6560.000000   2610327   2609031   2607714   2606316   2604812  
  6550.000000   2603220   2601596   2599995   2598463   2597000  
  6540.000000   2595579   2594147   2592666   2591119   2589524  
  6530.000000   2587920   2586349   2584832   2583365   2581924  
  6520.000000   2580482   2579027   2577573   2576155   2574814  
  6510.000000   2573579   2572457   2571426   2570443   2569457  
  6500.000000   2568427   2567325   2566144   2564894   2563599  
  6490.000000   2562289   2560996   2559741   2558531   2557349  
  6480.000000   2556164   2554932   2553617   2552202   2550697  
  6470.000000   2549143   2547594   2546101   2544701   2543409  
  6460.000000   2542218   2541117   2540089   2539128   2538228  
  6450.000000   2537375   2536548   2535713   2534838   2533894  
  6440.000000   2532880   2531806   2530703   2529592   2528491  
  6430.000000   2527398   2526310   2525228   2524175   2523186  
  6420.000000   2522307   2521568   2520975   2520495   2520074  
  6410.000000   2519645   2519163   2518606   2517984   2517326  
  6400.000000   2516668   2516037   2515454   2514930   2514473  
  6390.000000   2514091   2513786   2513548   2513351   2513161  
  6380.000000   2512936   2512650   2512297   2511894   2511468  
  6370.000000   2511040   2510606   2510141   2509608   2508979  
  6360.000000   2508253   2507465   2506674   2505942   2505301  
  6350.000000   2504749   2504237   2503708   2503105   2502408  
  6340.000000   2501631   2500820   2500027   2499292   2498624  
  6330.000000   2498002   2497383   2496719   2495967   2495102  
  6320.000000   2494114   2493014   2491822   2490575   2489308  
  6310.000000   2488065   2486873   2485748   2484675   2483628  
  6300.000000   2482563   2481448   2480257   2478992   2477659  
  6290.000000   2476276   2474849   2473382   2471872   2470326  
  6280.000000   2468758   2467199   2465675   2464203   2462772  
  6270.000000   2461355   2459906   2458392   2456794   2455130  
  6260.000000   2453434   2451746   2450089   2448467   2446853  
  6250.000000   2445219   2443537   2441804   2440032   2438245  
  6240.000000   2436463   2434691   2432918   2431131   2429320  
  6230.000000   2427491   2425665   2423872   2422132   2420453  
  6220.000000   2418824   2417224   2415628   2414020   2412392  
  6210.000000   2410748   2409093   2407430   2405767   2404111  
  6200.000000   2402480   2400892   2399369   2397918   2396529  
  6190.000000   2395169   2393801   2392389   2390919   2389400  
  6180.000000   2387867   2386358   2384908   2383530   2382219  
  6170.000000   2380958   2379726   2378509   2377304   2376112  
  6160.000000   2374932   2373760   2372586   2371403   2370210  
  6150.000000   2369017   2367837   2366682   2365549   2364420  
  6140.000000   2363269   2362073   2360823   2359532   2358230  
  6130.000000   2356952   2355728   2354566   2353459   2352389  
  6120.000000   2351344   2350320   2349332   2348402   2347554  
  6110.000000   2346793   2346118   2345508   2344944   2344401  
  6100.000000   2343872   2343346   2342828   2342313   2341810  
  6090.000000   2341321   2340866   2340463   2340139   2339911  
  6080.000000   2339791   2339770   2339835   2339961   2340136  
  6070.000000   2340345   2340591   2340864   2341167   2341483  
  6060.000000   2341812   2342147   2342509   2342922   2343432  
  6050.000000   2344068   2344854   2345782   2346835   2347974  
  6040.000000   2349174   2350413   2351696   2353023   2354412  
  6030.000000   2355855   2357353   2358885   2360446   2362024  
  6020.000000   2363630   2365263   2366934   2368633   2370350  
  6010.000000   2372067   2373775   2375472   2377176   2378905  
  6000.000000   2380688   2382535   2384458   2386446   2388493  
  5990.000000   2390582   2392707   2394851   2397012   2399177  
  5980.000000   2401348   2403528   2405746   2408032   2410431  
  5970.000000   2412971   2415672   2418512   2421459   2424452  
  5960.000000   2427447   2430400   2433306   2436169   2439023  
  5950.000000   2441895   2444822   2447825   2450929   2454145  
  5940.000000   2457486   2460955   2464545   2468234   2471988  
  5930.000000   2475766   2479524   2483226   2486848   2490378  
  5920.000000   2493813   2497154   2500403   2503557   2506612  
  5910.000000   2509564   2512406   2515138   2517761   2520287  
  5900.000000   2522737   2525153   2527578   2530066   2532656  
  5890.000000   2535375   2538218   2541162   2544161   2547170  
  5880.000000   2550144   2553051   2555868   2558572   2561144  
  5870.000000   2563562   2565814   2567900   2569844   2571689  
  5860.000000   2573490   2575301   2577162   2579097   2581112  
  5850.000000   2583212   2585398   2587682   2590068   2592552  
  5840.000000   2595105   2597681   2600224   2602685   2605044  
  5830.000000   2607309   2609523   2611734   2613984   2616288  
  5820.000000   2618636   2620998   2623344   2625655   2627932  
  5810.000000   2630195   2632457   2634738   2637027   2639329  
  5800.000000   2641621   2643918   2646214   2648539   2650876  
  5790.000000   2653220   2655498   2657648   2659547   2661101  
  5780.000000   2662186   2662727   2662642   2661910   2660531  
  5770.000000   2658573   2656134   2653367   2650417   2647442  
  5760.000000   2644539   2641785   2639194   2636782   2634539  
  5750.000000   2632488   2630643   2629033   2627661   2626507  
  5740.000000   2625519   2624627   2623765   2622875   2621941  
  5730.000000   2620953   2619939   2618917   2617921   2616965  
  5720.000000   2616074   2615260   2614537   2613902   2613345  
  5710.000000   2612837   2612350   2611858   2611353   2610844  
  5700.000000   2610356   2609913   2609527   2609188   2608873  
  5690.000000   2608557   2608222   2607878   2607545   2607261  
  5680.000000   2607033   2606861   2606691   2606464   2606094  
  5670.000000   2605518   2604684   2603573   2602177   2600516  
  5660.000000   2598607   2596490   2594210   2591830   2589416  
  5650.000000   2587039   2584749   2582582   2580545   2578631  
  5640.000000   2576820   2575095   2573439   2571839   2570286  
  5630.000000   2568766   2567273   2565799   2564355   2562952  
  5620.000000   2561611   2560341   2559147   2558008   2556905  
  5610.000000   2555811   2554718   2553628   2552562   2551543  
  5600.000000   2550588   2549696   2548856   2548047   2547254  
  5590.000000   2546470   2545698   2544945   2544215   2543501  
  5580.000000   2542786   2542049   2541273   2540453   2539590  
  5570.000000   2538693   2537766   2536808   2535812   2534772  
  5560.000000   2533688   2532572   2531440   2530313   2529197  
  5550.000000   2528093   2526988   2525872   2524740   2523604  
  5540.000000   2522482   2521398   2520362   2519372   2518411  
  5530.000000   2517459   2516501   2515531   2514558   2513592  
  5520.000000   2512640   2511698   2510751   2509783   2508777  
  5510.000000   2507733   2506652   2505545   2504412   2503251  
  5500.000000   2502049   2500800   2499501   2498170   2496825  
  5490.000000   2495492   2494176   2492878   2491577   2490255  
  5480.000000   2488894   2487497   2486067   2484614   2483137  
  5470.000000   2481627   2480060   2478421   2476699   2474905  
  5460.000000   2473060   2471189   2469308   2467421   2465524  
  5450.000000   2463609   2461678   2459746   2457834   2455967  
  5440.000000   2454157   2452402   2450696   2449023   2447385  
  5430.000000   2445782   2444225   2442705   2441214   2439716  
  5420.000000   2438192   2436627   2435054   2433521   2432111  
  5410.000000   2430881   2429873   2429071   2428452   2427961  
  5400.000000   2427582   2427299   2427138   2427107   2427223  
  5390.000000   2427459   2427799   2428198   2428666   2429207  
  5380.000000   2429883   2430727   2431789   2433051   2434503  
  5370.000000   2436078   2437759   2439503   2441345   2443284  
  5360.000000   2445385   2447651   2450142   2452851   2455848  
  5350.000000   2459141   2462819   2466888   2471415   2476361  
  5340.000000   2481753   2487519   2493697   2500238   2507212  
  5330.000000   2514585   2522424   2530672   2539381   2548490  
  5320.000000   2558086   2568157   2578846   2590164   2602253  
  5310.000000   2615082   2628734   2643116   2658280   2674136  
  5300.000000   2690765   2708124   2726340   2745404   2765446  
  5290.000000   2786433   2808432   2831330   2855092   2879541  
  5280.000000   2904625   2930223   2956383   2983116   3010555  
  5270.000000   3038729   3067670   3097240   3127255   3157455  
  5260.000000   3187628   3217649   3247495   3277242   3306953  
  5250.000000   3336670   3366283   3395646   3424478   3452614  
  5240.000000   3479857   3506242   3531767   3556613   3580812  
  5230.000000   3604497   3627573   3650035   3671685   3692492  
  5220.000000   3712304   3731199   3749146   3766325   3782752  
  5210.000000   3798587   3813770   3828347   3842155   3855184  
  5200.000000   3867286   3878536   3888894   3898527   3907441  
  5190.000000   3915773   3923463   3930562   3936958   3942692  
  5180.000000   3947692   3952057   3955767   3958935   3961521  
  5170.000000   3963595   3965089   3966058   3966459   3966377  
  5160.000000   3965796   3964805   3963367   3961538   3959262  
  5150.000000   3956588   3953485   3950025   3946201   3942076  
  5140.000000   3937629   3932896   3927849   3922533   3916953  
  5130.000000   3911185   3905255   3899232   3893116   3886935  
  5120.000000   3880661   3874307   3867859   3861349   3854785  
  5110.000000   3848202   3841605   3835008   3828406   3821809  
  5100.000000   3815221   3808660   3802132   3795644   3789184  
  5090.000000   3782740   3776288   3769824   3763346   3756871  
  5080.000000   3750411   3743979   3737567   3731162   3724735  
  5070.000000   3718272   3711758   3705202   3698611   3692003  
  5060.000000   3685379   3678738   3672058   3665326   3658520  
  5050.000000   3651639   3644680   3637658   3630582   3623472  
  5040.000000   3616336   3609190   3602043   3594910   3587799  
  5030.000000   3580719   3573673   3566662   3559686   3552746  
  5020.000000   3545851   3539008   3532241   3525558   3518986  
  5010.000000   3512528   3506206   3500015   3493973   3488069  
  5000.000000   3482322   3476714   3471267   3465965   3460837  
  4990.000000   3455879   3451133   3446596   3442315   3438279  
  4980.000000   3434523   3431023   3427812   3424864   3422218  
  4970.000000   3419853   3417812   3416070   3414665   3413561  
  4960.000000   3412796   3412342   3412250   3412507   3413171  
  4950.000000   3414223   3415704   3417565   3419821   3422409  
  4940.000000   3425349   3428594   3432185   3436093   3440365  
  4930.000000   3444961   3449909   3455157   3460728   3466584  
  4920.000000   3472762   3479244   3486075   3493234   3500743  
  4910.000000   3508565   3516697   3525094   3533746   3542610  
  4900.000000   3551671   3560886   3570228   3579656   3589136  
  4890.000000   3598641   3608137   3617601   3626985   3636254  
  4880.000000   3645330   3654166   3662678   3670832   3678564  
  4870.000000   3685874   3692718   3699117   3705036   3710503  
  4860.000000   3715490   3720036   3724126   3727810   3731083  
  4850.000000   3734003   3736568   3738839   3740822   3742584  
  4840.000000   3744140   3745552   3746834   3748033   3749150  
  4830.000000   3750217   3751230   3752214   3753176   3754140  
  4820.000000   3755116   3756122   3757165   3758251   3759384  
  4810.000000   3760567   3761805   3763101   3764463   3765889  
  4800.000000   3767384   3768945   3770577   3772277   3774053  
  4790.000000   3775903   3777826   3779812   3781847   3783913  
  4780.000000   3785994   3788076   3790151   3792216   3794268  
  4770.000000   3796303   3798310   3800280   3802196   3804046  
  4760.000000   3805819   3807512   3809120   3810648   3812091  
  4750.000000   3813456   3814738   3815946   3817078   3818149  
  4740.000000   3819162   3820129   3821051   3821935   3822773  
  4730.000000   3823566   3824306   3824992   3825620   3826193  
  4720.000000   3826715   3827192   3827635   3828056   3828473  
  4710.000000   3828904   3829377   3829914   3830548   3831301  
  4700.000000   3832200   3833258   3834488   3835884   3837444  
  4690.000000   3839150   3840987   3842934   3844978   3847095  
  4680.000000   3849267   3851463   3853656   3855802   3857871  
  4670.000000   3859823   3861649   3863339   3864920   3866419  
  4660.000000   3867892   3869387   3870962   3872661   3874528  
  4650.000000   3876585   3878847   3881316   3883978   3886812  
  4640.000000   3889787   3892874   3896039   3899256   3902492  
  4630.000000   3905723   3908907   3912007   3914969   3917749  
  4620.000000   3920296   3922581   3924576   3926283   3927698  
  4610.000000   3928849   3929743   3930418   3930886   3931197  
  4600.000000   3931366   3931449   3931456   3931430   3931356  
  4590.000000   3931243   3931048   3930750   3930296   3929667  
  4580.000000   3928825   3927774   3926503   3925040   3923395  
  4570.000000   3921607   3919693   3917691   3915615   3913491  
  4560.000000   3911319   3909108   3906846   3904534   3902157  
  4550.000000   3899722   3897225   3894678   3892088   3889467  
  4540.000000   3886826   3884178   3881537   3878921   3876352  
  4530.000000   3873841   3871407   3869042   3866749   3864501  
  4520.000000   3862303   3860128   3858006   3855932   3853967  
  4510.000000   3852122   3850480   3849059   3847953   3847180  
  4500.000000   3846843   3846952   3847607   3848799   3850610  
  4490.000000   3853014   3856085   3859793   3864219   3869336  
  4480.000000   3875226   3881849   3889261   3897396   3906279  
  4470.000000   3915819   3926021   3936785   3948110   3959898  
  4460.000000   3972144   3984758   3997734   4010990   4024518  
  4450.000000   4038244   4052155   4066186   4080320   4094511  
  4440.000000   4108744   4123000   4137269   4151548   4165818  
  4430.000000   4180079   4194281   4208413   4222398   4236215  
  4420.000000   4249769   4263040   4275930   4288416   4300389  
  4410.000000   4311815   4322568   4332607   4341815   4350177  
  4400.000000   4357633   4364241   4370028   4375128   4379636  
  4390.000000   4383729   4387524   4391184   4394801   4398485  
  4380.000000   4402274   4406216   4410304   4414557   4418971  
  4370.000000   4423577   4428407   4433510   4438925   4444679  
  4360.000000   4450772   4457181   4463849   4470727   4477714  
  4350.000000   4484768   4491770   4498705   4505474   4512106  
  4340.000000   4518542   4524825   4530859   4536552   4541602  
  4330.000000   4545647   4548160   4548662   4546734   4542235  
  4320.000000   4535302   4526432   4516334   4505870   4495813  
  4310.000000   4486806   4479196   4473116   4468463   4465048  
  4300.000000   4462621   4460975   4459948   4459416   4459317  
  4290.000000   4459569   4460163   4461047   4462256   4463776  
  4280.000000   4465648   4467854   4470374   4473151   4476108  
  4270.000000   4479183   4482291   4485365   4488271   4490839  
  4260.000000   4492801   4493860   4493699   4492096   4488955  
  4250.000000   4484384   4478652   4472181   4465415   4458798  
  4240.000000   4452634   4447132   4442326   4438187   4434586  
  4230.000000   4431404   4428503   4425772   4423122   4420473  
  4220.000000   4417795   4415057   4412312   4409599   4407045  
  4210.000000   4404730   4402780   4401241   4400168   4399530  
  4200.000000   4399304   4399406   4399783   4400347   4401063  
  4190.000000   4401864   4402751   4403684   4404690   4405746  
  4180.000000   4406891   4408101   4409417   4410820   4412361  
  4170.000000   4414047   4415962   4418142   4420693   4423651  
  4160.000000   4427099   4431031   4435481   4440395   4445778  
  4150.000000   4451558   4457744   4464275   4471182   4478422  
  4140.000000   4486051   4494042   4502466   4511300   4520609  
  4130.000000   4530354   4540574   4551210   4562289   4573762  
  4120.000000   4585671   4598004   4610830   4624156   4638047  
  4110.000000   4652492   4667515   4683058   4699091   4715515  
  4100.000000   4732263   4749224   4766331   4783504   4800713  
  4090.000000   4817930   4835161   4852414   4869699   4887033  
  4080.000000   4904408   4921839   4939296   4956784   4974237  
  4070.000000   4991628   5008839   5025812   5042409   5058585  
  4060.000000   5074234   5089362   5103902   5117895   5131285  
  4050.000000   5144136   5156409   5168205   5179502   5190408  
  4040.000000   5200867   5210928   5220454   5229433   5237701  
  4030.000000   5245264   5252008   5257989   5263147   5267549  
  4020.000000   5271120   5273935   5275983   5277359   5278035  
  4010.000000   5278156   5277795   5276979   5275507   5273439  
  4000.000000   5271068  
##END= 
