##TITLE= Sample 009 By ssteindl date Dienstag, November 20 2018
##JCAMP-DX= 4.24
##DATA TYPE= INFRARED SPECTRUM
##ORIGIN= Exported PE Spectrum Data File
##OWNER= Sandra Steindl
##DATE= 18/11/20
##TIME= 17:01:49.00
##SPECTROMETER/DATA SYSTEM= PERKIN-ELMER Frontier FT-IR/NIR IR
##INSTRUMENT PARAMETERS=
  APODIZATION=stark
  DETECTOR=INGAAS
##RESOLUTION= 16.000000
##DELTAX= -2.000000
##XUNITS= 1/CM
##YUNITS= A
##XFACTOR= 1.00
##YFACTOR= 0.00000011920928955078
##FIRSTX= 10000.00
##LASTX= 4000.00
##NPOINTS= 3001
##FIRSTY= 0.205460
##MAXY= 0.606112
##MINY= 0.173273
##XYDATA= (X++(Y..Y))
 10000.000000   1723525   1715110   1706732   1698835   1692428  
  9990.000000   1688376   1686941   1687772   1690435   1694386  
  9980.000000   1698905   1702988   1705696   1706236   1704361  
  9970.000000   1700385   1695395   1690777   1687860   1687304  
  9960.000000   1688950   1691820   1694619   1696247   1696281  
  9950.000000   1695128   1693741   1693224   1694210   1696717  
  9940.000000   1700071   1703397   1705970   1707589   1708570  
  9930.000000   1709477   1710766   1712425   1713915   1714280  
  9920.000000   1712547   1708065   1700847   1691558   1681382  
  9910.000000   1671683   1663686   1658283   1655869   1656418  
  9900.000000   1659458   1664268   1669924   1675539   1680319  
  9890.000000   1683792   1685801   1686547   1686501   1686170  
  9880.000000   1686038   1686259   1686763   1687110   1686719  
  9870.000000   1684927   1681236   1675478   1667956   1659496  
  9860.000000   1651315   1644812   1641164   1641029   1644221  
  9850.000000   1649798   1656243   1662006   1665947   1667708  
  9840.000000   1667761   1667123   1666941   1667927   1670139  
  9830.000000   1672866   1675030   1675543   1673834   1670022  
  9820.000000   1664892   1659609   1655276   1652667   1651982  
  9810.000000   1652961   1654982   1657353   1659451   1660867  
  9800.000000   1661397   1661045   1659966   1658454   1656880  
  9790.000000   1655627   1654982   1655034   1655619   1656350  
  9780.000000   1656742   1656388   1655096   1652982   1650392  
  9770.000000   1647804   1645590   1643918   1642637   1641394  
  9760.000000   1639764   1637478   1634557   1631325   1628299  
  9750.000000   1625967   1624577   1624008   1623791   1623249  
  9740.000000   1621779   1619059   1615250   1610916   1606895  
  9730.000000   1603959   1602585   1602767   1604087   1605853  
  9720.000000   1607422   1608368   1608651   1608521   1608392  
  9710.000000   1608607   1609322   1610459   1611829   1613250  
  9700.000000   1614650   1616077   1617593   1619193   1620724  
  9690.000000   1621936   1622628   1622741   1622459   1622053  
  9680.000000   1621753   1621511   1620971   1619588   1616890  
  9670.000000   1612828   1607921   1603279   1600232   1599944  
  9660.000000   1602900   1608730   1616233   1623759   1629725  
  9650.000000   1633044   1633421   1631273   1627528   1623217  
  9640.000000   1619205   1616020   1613863   1612727   1612508  
  9630.000000   1613098   1614345   1616074   1617975   1619722  
  9620.000000   1620927   1621339   1620816   1619406   1617287  
  9610.000000   1614705   1611948   1609266   1606894   1604977  
  9600.000000   1603569   1602558   1601677   1600547   1598785  
  9590.000000   1596174   1592746   1588860   1585084   1582074  
  9580.000000   1580346   1580148   1581385   1583655   1586390  
  9570.000000   1588965   1590869   1591722   1591339   1589686  
  9560.000000   1586897   1583262   1579223   1575323   1572115  
  9550.000000   1570021   1569242   1569675   1570980   1572642  
  9540.000000   1574113   1574904   1574677   1573263   1570718  
  9530.000000   1567291   1563484   1559948   1557427   1556553  
  9520.000000   1557646   1560585   1564749   1569230   1573083  
  9510.000000   1575697   1576971   1577313   1577417   1577890  
  9500.000000   1578984   1580403   1581491   1581444   1579758  
  9490.000000   1576428   1572019   1567469   1563687   1561337  
  9480.000000   1560552   1561144   1562651   1564684   1566975  
  9470.000000   1569435   1572027   1574598   1576788   1578025  
  9460.000000   1577705   1575382   1571012   1564964   1558021  
  9450.000000   1551117   1545173   1540873   1538548   1538164  
  9440.000000   1539310   1541363   1543577   1545327   1546215  
  9430.000000   1546200   1545558   1544785   1544399   1544730  
  9420.000000   1545808   1547284   1548642   1549322   1549049  
  9410.000000   1547833   1546009   1543990   1542107   1540450  
  9400.000000   1538876   1537155   1535138   1532980   1531105  
  9390.000000   1530163   1530687   1532945   1536717   1541425  
  9380.000000   1546257   1550435   1553380   1554775   1554562  
  9370.000000   1552807   1549685   1545406   1540303   1534818  
  9360.000000   1529526   1525003   1521698   1519784   1519069  
  9350.000000   1519110   1519319   1519276   1518803   1518067  
  9340.000000   1517439   1517340   1518075   1519682   1521963  
  9330.000000   1524481   1526764   1528371   1529036   1528651  
  9320.000000   1527287   1525161   1522638   1520202   1518356  
  9310.000000   1517512   1517835   1519195   1521142   1523053  
  9300.000000   1524286   1524417   1523385   1521492   1519293  
  9290.000000   1517332   1515968   1515226   1514840   1514379  
  9280.000000   1513480   1512058   1510395   1509061   1508660  
  9270.000000   1509625   1511978   1515344   1518977   1522041  
  9260.000000   1523850   1524092   1522924   1520853   1518571  
  9250.000000   1516683   1515512   1514976   1514647   1513933  
  9240.000000   1512358   1509732   1506258   1502461   1499020  
  9230.000000   1496554   1495377   1495460   1496425   1497755  
  9220.000000   1498968   1499815   1500337   1500819   1501612  
  9210.000000   1502962   1504853   1506995   1508896   1510012  
  9200.000000   1509954   1508584   1506112   1502974   1499729  
  9190.000000   1496853   1494618   1493024   1491829   1490699  
  9180.000000   1489341   1487643   1485693   1483802   1482385  
  9170.000000   1481853   1482431   1484102   1486588   1489407  
  9160.000000   1491997   1493824   1494540   1494031   1492463  
  9150.000000   1490197   1487721   1485506   1483905   1483057  
  9140.000000   1482849   1482979   1483041   1482684   1481706  
  9130.000000   1480166   1478337   1476629   1475400   1474829  
  9120.000000   1474848   1475153   1475338   1475037   1474104  
  9110.000000   1472638   1470958   1469457   1468462   1468119  
  9100.000000   1468367   1469000   1469777   1470514   1471133  
  9090.000000   1471641   1472082   1472471   1472776   1472947  
  9080.000000   1472961   1472853   1472713   1472623   1472616  
  9070.000000   1472611   1472464   1472017   1471213   1470134  
  9060.000000   1468973   1467985   1467337   1467080   1467092  
  9050.000000   1467223   1467392   1467673   1468274   1469415  
  9040.000000   1471175   1473317   1475279   1476309   1475754  
  9030.000000   1473307   1469182   1464118   1459192   1455483  
  9020.000000   1453701   1454021   1456052   1459015   1461979  
  9010.000000   1464161   1465132   1464837   1463530   1461617  
  9000.000000   1459557   1457704   1456286   1455347   1454850  
  8990.000000   1454667   1454679   1454800   1455027   1455459  
  8980.000000   1456230   1457487   1459268   1461477   1463874  
  8970.000000   1466136   1467979   1469238   1469925   1470190  
  8960.000000   1470220   1470163   1470047   1469810   1469378  
  8950.000000   1468744   1468031   1467437   1467125   1467102  
  8940.000000   1467132   1466823   1465749   1463703   1460822  
  8930.000000   1457647   1454954   1453517   1453798   1455777  
  8920.000000   1458927   1462395   1465297   1466965   1467172  
  8910.000000   1466097   1464250   1462212   1460469   1459285  
  8900.000000   1458716   1458678   1459059   1459780   1460840  
  8890.000000   1462264   1464046   1466111   1468287   1470346  
  8880.000000   1472028   1473118   1473521   1473279   1472605  
  8870.000000   1471822   1471316   1471415   1472291   1473889  
  8860.000000   1475916   1477909   1479376   1479957   1479557  
  8850.000000   1478370   1476792   1475298   1474268   1473905  
  8840.000000   1474190   1474969   1476062   1477352   1478813  
  8830.000000   1480464   1482284   1484140   1485779   1486890  
  8820.000000   1487222   1486696   1485480   1483943   1482560  
  8810.000000   1481750   1481763   1482612   1484101   1485906  
  8800.000000   1487675   1489119   1490043   1490377   1490150  
  8790.000000   1489499   1488636   1487843   1487423   1487625  
  8780.000000   1488580   1490217   1492283   1494363   1496019  
  8770.000000   1496883   1496788   1495791   1494164   1492300  
  8760.000000   1490619   1489470   1489078   1489542   1490846  
  8750.000000   1492898   1495523   1498510   1501579   1504461  
  8740.000000   1506904   1508741   1509930   1510533   1510731  
  8730.000000   1510695   1510574   1510391   1510082   1509536  
  8720.000000   1508674   1507552   1506358   1505426   1505102  
  8710.000000   1505670   1507204   1509554   1512348   1515092  
  8700.000000   1517319   1518691   1519115   1518713   1517797  
  8690.000000   1516730   1515852   1515395   1515458   1516035  
  8680.000000   1517045   1518404   1520026   1521857   1523819  
  8670.000000   1525810   1527687   1529280   1530439   1531044  
  8660.000000   1531068   1530553   1529653   1528551   1527473  
  8650.000000   1526617   1526155   1526190   1526750   1527786  
  8640.000000   1529190   1530827   1532565   1534326   1536105  
  8630.000000   1537966   1540005   1542297   1544849   1547571  
  8620.000000   1550293   1552809   1554967   1556698   1558056  
  8610.000000   1559162   1560161   1561141   1562094   1562929  
  8600.000000   1563513   1563763   1563696   1563463   1563309  
  8590.000000   1563514   1564277   1565669   1567575   1569761  
  8580.000000   1571912   1573756   1575119   1575986   1576485  
  8570.000000   1576839   1577279   1577965   1578926   1580055  
  8560.000000   1581152   1581977   1582356   1582215   1581646  
  8550.000000   1580840   1580044   1579458   1579190   1579217  
  8540.000000   1579431   1579701   1579977   1580333   1580970  
  8530.000000   1582151   1584091   1586875   1590379   1594304  
  8520.000000   1598240   1601792   1604698   1606865   1608393  
  8510.000000   1609477   1610346   1611137   1611881   1612484  
  8500.000000   1612812   1612746   1612257   1611449   1610533  
  8490.000000   1609810   1609546   1609960   1611111   1612938  
  8480.000000   1615245   1617776   1620292   1622597   1624589  
  8470.000000   1626215   1627482   1628391   1628946   1629144  
  8460.000000   1629028   1628720   1628446   1628496   1629138  
  8450.000000   1630555   1632742   1635513   1638500   1641299  
  8440.000000   1643563   1645114   1645958   1646251   1646219  
  8430.000000   1646063   1645894   1645726   1645522   1645256  
  8420.000000   1644955   1644707   1644612   1644752   1645112  
  8410.000000   1645613   1646102   1646454   1646594   1646546  
  8400.000000   1646401   1646275   1646258   1646373   1646577  
  8390.000000   1646780   1646884   1646821   1646552   1646094  
  8380.000000   1645487   1644811   1644149   1643613   1643309  
  8370.000000   1643319   1643652   1644213   1644814   1645193  
  8360.000000   1645088   1644305   1642795   1640681   1638239  
  8350.000000   1635820   1633764   1632327   1631628   1631648  
  8340.000000   1632232   1633157   1634177   1635083   1635731  
  8330.000000   1636050   1636054   1635801   1635380   1634857  
  8320.000000   1634273   1633618   1632892   1632111   1631363  
  8310.000000   1630782   1630518   1630678   1631247   1632074  
  8300.000000   1632881   1633375   1633349   1632801   1631946  
  8290.000000   1631160   1630831   1631223   1632346   1633953  
  8280.000000   1635589   1636775   1637149   1636608   1635284  
  8270.000000   1633497   1631603   1629889   1628485   1627353  
  8260.000000   1626352   1625300   1624064   1622570   1620809  
  8250.000000   1618811   1616626   1614350   1612109   1610094  
  8240.000000   1608508   1607549   1607319   1607804   1608841  
  8230.000000   1610166   1611472   1612496   1613076   1613155  
  8220.000000   1612772   1611994   1610891   1609496   1607834  
  8210.000000   1605941   1603897   1601840   1599928   1598315  
  8200.000000   1597076   1596212   1595615   1595141   1594618  
  8190.000000   1593928   1593011   1591882   1590607   1589272  
  8180.000000   1587955   1586703   1585527   1584398   1583269  
  8170.000000   1582078   1580778   1579347   1577802   1576200  
  8160.000000   1574613   1573127   1571800   1570666   1569719  
  8150.000000   1568934   1568273   1567697   1567174   1566659  
  8140.000000   1566091   1565380   1564430   1563159   1561548  
  8130.000000   1559654   1557624   1555649   1553928   1552597  
  8120.000000   1551694   1551147   1550797   1550459   1549980  
  8110.000000   1549295   1548434   1547514   1546685   1546078  
  8100.000000   1545766   1545727   1545864   1546003   1545964  
  8090.000000   1545575   1544738   1543430   1541732   1539804  
  8080.000000   1537856   1536117   1534772   1533949   1533671  
  8070.000000   1533884   1534456   1535223   1536011   1536666  
  8060.000000   1537062   1537104   1536727   1535898   1534630  
  8050.000000   1532980   1531074   1529073   1527165   1525516  
  8040.000000   1524237   1523357   1522814   1522493   1522244  
  8030.000000   1521952   1521546   1521033   1520469   1519933  
  8020.000000   1519492   1519168   1518934   1518715   1518418  
  8010.000000   1517951   1517259   1516323   1515178   1513890  
  8000.000000   1512550   1511246   1510054   1509016   1508144  
  7990.000000   1507415   1506784   1506200   1505623   1505043  
  7980.000000   1504484   1504007   1503686   1503592   1503765  
  7970.000000   1504186   1504789   1505449   1506027   1506388  
  7960.000000   1506446   1506171   1505610   1504857   1504042  
  7950.000000   1503290   1502697   1502315   1502142   1502147  
  7940.000000   1502267   1502444   1502623   1502771   1502864  
  7930.000000   1502887   1502832   1502682   1502431   1502064  
  7920.000000   1501587   1501000   1500324   1499583   1498817  
  7910.000000   1498083   1497450   1497009   1496852   1497060  
  7900.000000   1497673   1498667   1499949   1501349   1502669  
  7890.000000   1503706   1504317   1504441   1504120   1503484  
  7880.000000   1502718   1502026   1501581   1501513   1501878  
  7870.000000   1502675   1503826   1505201   1506614   1507848  
  7860.000000   1508680   1508933   1508517   1507465   1505947  
  7850.000000   1504223   1502598   1501328   1500563   1500316  
  7840.000000   1500476   1500869   1501318   1501711   1502014  
  7830.000000   1502262   1502513   1502814   1503166   1503535  
  7820.000000   1503876   1504162   1504408   1504659   1504964  
  7810.000000   1505350   1505785   1506200   1506499   1506616  
  7800.000000   1506533   1506299   1505995   1505707   1505471  
  7790.000000   1505268   1505018   1504630   1504033   1503218  
  7780.000000   1502242   1501208   1500222   1499368   1498667  
  7770.000000   1498101   1497616   1497170   1496742   1496348  
  7760.000000   1496026   1495814   1495729   1495751   1495825  
  7750.000000   1495872   1495809   1495566   1495106   1494422  
  7740.000000   1493549   1492547   1491495   1490474   1489554  
  7730.000000   1488781   1488168   1487693   1487312   1486965  
  7720.000000   1486598   1486179   1485699   1485177   1484655  
  7710.000000   1484177   1483790   1483522   1483388   1483381  
  7700.000000   1483478   1483644   1483843   1484040   1484208  
  7690.000000   1484334   1484410   1484434   1484400   1484293  
  7680.000000   1484098   1483797   1483390   1482892   1482344  
  7670.000000   1481803   1481326   1480966   1480747   1480672  
  7660.000000   1480711   1480818   1480935   1481005   1480981  
  7650.000000   1480836   1480572   1480213   1479815   1479439  
  7640.000000   1479149   1478981   1478939   1478985   1479058  
  7630.000000   1479087   1479033   1478893   1478709   1478550  
  7620.000000   1478483   1478547   1478744   1479040   1479392  
  7610.000000   1479766   1480157   1480587   1481089   1481684  
  7600.000000   1482358   1483070   1483758   1484365   1484863  
  7590.000000   1485251   1485554   1485793   1485971   1486064  
  7580.000000   1486028   1485831   1485473   1485008   1484537  
  7570.000000   1484183   1484055   1484210   1484636   1485255  
  7560.000000   1485952   1486605   1487128   1487471   1487652  
  7550.000000   1487720   1487758   1487844   1488046   1488391  
  7540.000000   1488880   1489480   1490155   1490865   1491598  
  7530.000000   1492371   1493223   1494200   1495330   1496599  
  7520.000000   1497955   1499303   1500548   1501608   1502460  
  7510.000000   1503118   1503647   1504108   1504553   1504993  
  7500.000000   1505416   1505797   1506133   1506454   1506828  
  7490.000000   1507339   1508066   1509050   1510287   1511729  
  7480.000000   1513301   1514923   1516535   1518097   1519596  
  7470.000000   1521031   1522419   1523773   1525121   1526478  
  7460.000000   1527867   1529283   1530710   1532099   1533400  
  7450.000000   1534561   1535569   1536442   1537246   1538072  
  7440.000000   1539014   1540139   1541480   1543029   1544756  
  7430.000000   1546622   1548601   1550670   1552817   1555018  
  7420.000000   1557241   1559427   1561520   1563469   1565265  
  7410.000000   1566928   1568525   1570133   1571834   1573675  
  7400.000000   1575659   1577746   1579860   1581920   1583858  
  7390.000000   1585650   1587320   1588935   1590581   1592339  
  7380.000000   1594249   1596298   1598416   1600500   1602449  
  7370.000000   1604191   1605712   1607051   1608285   1609500  
  7360.000000   1610758   1612086   1613477   1614911   1616379  
  7350.000000   1617902   1619527   1621306   1623256   1625343  
  7340.000000   1627466   1629493   1631292   1632788   1633993  
  7330.000000   1635005   1635978   1637066   1638370   1639909  
  7320.000000   1641605   1643327   1644935   1646332   1647498  
  7310.000000   1648490   1649416   1650389   1651490   1652742  
  7300.000000   1654118   1655558   1657006   1658436   1659854  
  7290.000000   1661290   1662773   1664317   1665903   1667497  
  7280.000000   1669057   1670559   1672004   1673408   1674799  
  7270.000000   1676190   1677574   1678926   1680221   1681449  
  7260.000000   1682633   1683816   1685051   1686371   1687773  
  7250.000000   1689209   1690620   1691954   1693214   1694454  
  7240.000000   1695785   1697313   1699109   1701148   1703337  
  7230.000000   1705516   1707554   1709371   1711003   1712568  
  7220.000000   1714249   1716202   1718527   1721215   1724180  
  7210.000000   1727271   1730354   1733331   1736185   1738953  
  7200.000000   1741721   1744569   1747562   1750715   1754022  
  7190.000000   1757440   1760926   1764413   1767849   1771163  
  7180.000000   1774309   1777250   1779998   1782599   1785150  
  7170.000000   1787753   1790517   1793498   1796718   1800128  
  7160.000000   1803659   1807228   1810790   1814333   1817904  
  7150.000000   1821565   1825404   1829472   1833802   1838363  
  7140.000000   1843103   1847928   1852766   1857544   1862246  
  7130.000000   1866873   1871479   1876117   1880867   1885777  
  7120.000000   1890892   1896200   1901678   1907252   1912854  
  7110.000000   1918405   1923868   1929232   1934548   1939887  
  7100.000000   1945356   1951033   1956969   1963139   1969472  
  7090.000000   1975836   1982111   1988197   1994068   1999760  
  7080.000000   2005374   2011025   2016812   2022781   2028919  
  7070.000000   2035162   2041432   2047661   2053818   2059903  
  7060.000000   2065937   2071940   2077919   2083866   2089769  
  7050.000000   2095627   2101459   2107301   2113189   2119147  
  7040.000000   2125163   2131201   2137206   2143131   2148943  
  7030.000000   2154638   2160226   2165726   2171146   2176492  
  7020.000000   2181759   2186961   2192114   2197255   2202406  
  7010.000000   2207592   2212801   2218016   2223201   2228340  
  7000.000000   2233416   2238430   2243367   2248204   2252887  
  6990.000000   2257364   2261591   2265579   2269375   2273083  
  6980.000000   2276802   2280616   2284536   2288525   2292491  
  6970.000000   2296350   2300031   2303527   2306864   2310109  
  6960.000000   2313316   2316538   2319787   2323075   2326384  
  6950.000000   2329705   2333000   2336229   2339318   2342198  
  6940.000000   2344804   2347122   2349184   2351083   2352926  
  6930.000000   2354822   2356826   2358951   2361148   2363363  
  6920.000000   2365527   2367611   2369591   2371465   2373218  
  6910.000000   2374837   2376299   2377606   2378784   2379894  
  6900.000000   2381005   2382179   2383441   2384784   2386168  
  6890.000000   2387560   2388940   2390323   2391732   2393185  
  6880.000000   2394660   2396102   2397430   2398576   2399514  
  6870.000000   2400277   2400946   2401616   2402357   2403184  
  6860.000000   2404063   2404930   2405726   2406427   2407057  
  6850.000000   2407673   2408335   2409087   2409935   2410860  
  6840.000000   2411833   2412838   2413873   2414954   2416086  
  6830.000000   2417255   2418418   2419513   2420476   2421269  
  6820.000000   2421882   2422344   2422701   2423009   2423311  
  6810.000000   2423636   2423992   2424379   2424777   2425162  
  6800.000000   2425491   2425725   2425828   2425792   2425639  
  6790.000000   2425427   2425227   2425111   2425122   2425267  
  6780.000000   2425511   2425810   2426118   2426418   2426718  
  6770.000000   2427047   2427431   2427882   2428384   2428896  
  6760.000000   2429370   2429756   2430021   2430143   2430121  
  6750.000000   2429969   2429718   2429418   2429134   2428941  
  6740.000000   2428903   2429059   2429405   2429898   2430464  
  6730.000000   2431023   2431516   2431923   2432259   2432563  
  6720.000000   2432880   2433237   2433639   2434067   2434492  
  6710.000000   2434888   2435238   2435538   2435783   2435979  
  6700.000000   2436121   2436220   2436280   2436325   2436366  
  6690.000000   2436416   2436461   2436476   2436417   2436248  
  6680.000000   2435947   2435521   2434999   2434430   2433856  
  6670.000000   2433314   2432818   2432369   2431951   2431553  
  6660.000000   2431153   2430738   2430287   2429794   2429250  
  6650.000000   2428671   2428075   2427494   2426944   2426431  
  6640.000000   2425930   2425402   2424798   2424084   2423247  
  6630.000000   2422304   2421284   2420223   2419140   2418041  
  6620.000000   2416919   2415773   2414604   2413433   2412280  
  6610.000000   2411161   2410072   2408996   2407901   2406769  
  6600.000000   2405591   2404379   2403147   2401901   2400624  
  6590.000000   2399286   2397850   2396303   2394662   2392980  
  6580.000000   2391326   2389760   2388308   2386954   2385646  
  6570.000000   2384327   2382952   2381515   2380040   2378572  
  6560.000000   2377150   2375795   2374502   2373252   2372027  
  6550.000000   2370823   2369648   2368520   2367445   2366416  
  6540.000000   2365403   2364370   2363287   2362135   2360917  
  6530.000000   2359643   2358326   2356969   2355572   2354134  
  6520.000000   2352667   2351201   2349779   2348441   2347214  
  6510.000000   2346103   2345086   2344130   2343202   2342285  
  6500.000000   2341374   2340480   2339609   2338762   2337926  
  6490.000000   2337079   2336202   2335281   2334310   2333288  
  6480.000000   2332217   2331095   2329922   2328703   2327456  
  6470.000000   2326203   2324972   2323777   2322616   2321469  
  6460.000000   2320307   2319114   2317897   2316691   2315553  
  6450.000000   2314535   2313668   2312943   2312315   2311712  
  6440.000000   2311070   2310339   2309513   2308609   2307672  
  6430.000000   2306740   2305844   2304995   2304196   2303445  
  6420.000000   2302753   2302138   2301630   2301258   2301039  
  6410.000000   2300973   2301039   2301192   2301382   2301548  
  6400.000000   2301645   2301642   2301539   2301352   2301122  
  6390.000000   2300888   2300686   2300524   2300397   2300279  
  6380.000000   2300146   2299988   2299810   2299636   2299494  
  6370.000000   2299405   2299368   2299366   2299366   2299343  
  6360.000000   2299279   2299175   2299040   2298882   2298693  
  6350.000000   2298456   2298146   2297744   2297251   2296692  
  6340.000000   2296105   2295535   2295009   2294543   2294120  
  6330.000000   2293722   2293319   2292895   2292435   2291935  
  6320.000000   2291382   2290765   2290069   2289289   2288425  
  6310.000000   2287501   2286543   2285583   2284641   2283729  
  6300.000000   2282840   2281972   2281116   2280272   2279434  
  6290.000000   2278597   2277737   2276828   2275837   2274744  
  6280.000000   2273546   2272267   2270946   2269628   2268346  
  6270.000000   2267116   2265931   2264776   2263625   2262460  
  6260.000000   2261269   2260046   2258788   2257492   2256155  
  6250.000000   2254781   2253381   2251975   2250583   2249226  
  6240.000000   2247910   2246633   2245381   2244139   2242890  
  6230.000000   2241632   2240362   2239084   2237799   2236505  
  6220.000000   2235199   2233879   2232543   2231189   2229820  
  6210.000000   2228429   2227014   2225573   2224118   2222674  
  6200.000000   2221277   2219969   2218778   2217714   2216758  
  6190.000000   2215874   2215021   2214169   2213308   2212446  
  6180.000000   2211604   2210793   2210011   2209237   2208447  
  6170.000000   2207620   2206758   2205878   2205014   2204198  
  6160.000000   2203444   2202748   2202084   2201420   2200731  
  6150.000000   2200003   2199235   2198434   2197605   2196749  
  6140.000000   2195864   2194955   2194034   2193130   2192275  
  6130.000000   2191498   2190814   2190217   2189688   2189193  
  6120.000000   2188707   2188208   2187691   2187150   2186589  
  6110.000000   2186005   2185402   2184784   2184179   2183615  
  6100.000000   2183139   2182784   2182577   2182516   2182583  
  6090.000000   2182738   2182945   2183164   2183373   2183556  
  6080.000000   2183719   2183865   2184015   2184183   2184396  
  6070.000000   2184663   2185001   2185401   2185861   2186361  
  6060.000000   2186901   2187479   2188120   2188844   2189684  
  6050.000000   2190648   2191738   2192925   2194188   2195495  
  6040.000000   2196843   2198231   2199687   2201223   2202863  
  6030.000000   2204603   2206444   2208369   2210377   2212459  
  6020.000000   2214621   2216851   2219138   2221452   2223770  
  6010.000000   2226064   2228331   2230576   2232829   2235112  
  6000.000000   2237453   2239855   2242321   2244836   2247399  
  5990.000000   2250005   2252671   2255407   2258231   2261145  
  5980.000000   2264155   2267249   2270431   2273697   2277061  
  5970.000000   2280524   2284094   2287758   2291505   2295302  
  5960.000000   2299129   2302953   2306763   2310538   2314281  
  5950.000000   2317987   2321677   2325370   2329109   2332939  
  5940.000000   2336909   2341056   2345398   2349934   2354632  
  5930.000000   2359444   2364307   2369156   2373924   2378550  
  5920.000000   2382981   2387180   2391123   2394807   2398247  
  5910.000000   2401473   2404521   2407431   2410235   2412973  
  5900.000000   2415675   2418391   2421157   2424027   2427017  
  5890.000000   2430143   2433371   2436667   2439967   2443229  
  5880.000000   2446407   2449480   2452423   2455212   2457812  
  5870.000000   2460187   2462307   2464171   2465809   2467285  
  5860.000000   2468678   2470069   2471507   2473021   2474605  
  5850.000000   2476248   2477937   2479675   2481468   2483331  
  5840.000000   2485260   2487242   2489250   2491255   2493242  
  5830.000000   2495204   2497153   2499094   2501034   2502960  
  5820.000000   2504861   2506723   2508555   2510381   2512236  
  5810.000000   2514156   2516158   2518244   2520384   2522562  
  5800.000000   2524749   2526957   2529187   2531467   2533781  
  5790.000000   2536118   2538406   2540583   2542544   2544212  
  5780.000000   2545486   2546297   2546561   2546237   2545295  
  5770.000000   2543776   2541756   2539384   2536817   2534228  
  5760.000000   2531733   2529416   2527280   2525316   2523473  
  5750.000000   2521736   2520082   2518523   2517058   2515693  
  5740.000000   2514412   2513198   2512034   2510905   2509809  
  5730.000000   2508736   2507681   2506620   2505532   2504393  
  5720.000000   2503205   2501980   2500757   2499572   2498461  
  5710.000000   2497433   2496489   2495613   2494790   2494011  
  5700.000000   2493271   2492568   2491886   2491210   2490512  
  5690.000000   2489782   2489019   2488251   2487504   2486810  
  5680.000000   2486167   2485554   2484910   2484173   2483275  
  5670.000000   2482178   2480851   2479294   2477500   2475474  
  5660.000000   2473218   2470754   2468119   2465386   2462637  
  5650.000000   2459960   2457415   2455034   2452808   2450708  
  5640.000000   2448693   2446733   2444812   2442928   2441087  
  5630.000000   2439289   2437539   2435832   2434178   2432581  
  5620.000000   2431060   2429615   2428247   2426931   2425650  
  5610.000000   2424382   2423132   2421918   2420780   2419745  
  5600.000000   2418830   2418018   2417276   2416554   2415821  
  5590.000000   2415064   2414295   2413543   2412829   2412161  
  5580.000000   2411523   2410886   2410217   2409500   2408729  
  5570.000000   2407914   2407065   2406184   2405258   2404268  
  5560.000000   2403198   2402044   2400822   2399561   2398298  
  5550.000000   2397065   2395882   2394759   2393695   2392688  
  5540.000000   2391733   2390822   2389943   2389076   2388201  
  5530.000000   2387299   2386359   2385385   2384389   2383384  
  5520.000000   2382380   2381377   2380368   2379345   2378305  
  5510.000000   2377258   2376212   2375180   2374158   2373139  
  5500.000000   2372099   2371027   2369917   2368783   2367645  
  5490.000000   2366523   2365417   2364310   2363165   2361951  
  5480.000000   2360644   2359251   2357800   2356335   2354888  
  5470.000000   2353480   2352098   2350720   2349310   2347844  
  5460.000000   2346306   2344696   2343019   2341280   2339482  
  5450.000000   2337632   2335745   2333845   2331961   2330126  
  5440.000000   2328361   2326677   2325074   2323547   2322097  
  5430.000000   2320719   2319411   2318151   2316913   2315655  
  5420.000000   2314352   2312991   2311608   2310259   2309033  
  5410.000000   2307993   2307180   2306575   2306138   2305797  
  5400.000000   2305515   2305258   2305042   2304881   2304809  
  5390.000000   2304829   2304953   2305163   2305475   2305893  
  5380.000000   2306458   2307188   2308114   2309214   2310479  
  5370.000000   2311859   2313347   2314915   2316599   2318399  
  5360.000000   2320367   2322496   2324825   2327336   2330083  
  5350.000000   2333070   2336381   2340030   2344092   2348540  
  5340.000000   2353409   2358636   2364252   2370203   2376543  
  5330.000000   2383231   2390321   2397760   2405597   2413782  
  5320.000000   2422402   2431451   2441066   2451260   2462167  
  5310.000000   2473758   2486110   2499135   2512876   2527244  
  5300.000000   2542305   2558015   2574488   2591716   2609827  
  5290.000000   2628798   2648700   2669432   2690963   2713123  
  5280.000000   2735854   2759029   2782684   2806816   2831550  
  5270.000000   2856917   2882962   2909580   2936631   2963900  
  5260.000000   2991217   3018475   3045661   3072829   3100026  
  5250.000000   3127268   3154441   3181396   3207877   3233733  
  5240.000000   3258805   3283140   3306762   3329852   3352462  
  5230.000000   3374712   3396517   3417847   3438500   3458406  
  5220.000000   3477406   3495546   3512804   3529355   3545250  
  5210.000000   3560667   3575586   3590060   3603934   3617170  
  5200.000000   3629593   3641229   3652017   3662099   3671487  
  5190.000000   3680328   3688593   3696349   3703507   3710105  
  5180.000000   3716070   3721481   3726301   3730616   3734372  
  5170.000000   3737615   3740264   3742358   3743847   3744816  
  5160.000000   3745258   3745275   3744854   3744062   3742861  
  5150.000000   3741300   3739346   3737062   3734429   3731502  
  5140.000000   3728252   3724711   3720850   3716715   3712316  
  5130.000000   3707731   3702990   3698161   3693242   3688251  
  5120.000000   3683155   3677958   3672648   3667259   3661812  
  5110.000000   3656352   3650891   3645444   3639995   3634540  
  5100.000000   3629068   3623589   3618115   3612672   3607274  
  5090.000000   3601937   3596659   3591443   3586279   3581168  
  5080.000000   3576093   3571044   3565989   3560902   3555750  
  5070.000000   3550519   3545200   3539809   3534359   3528869  
  5060.000000   3523340   3517770   3512137   3506428   3500627  
  5050.000000   3494739   3488765   3482722   3476612   3470440  
  5040.000000   3464197   3457887   3451511   3445091   3438656  
  5030.000000   3432240   3425874   3419578   3413358   3407208  
  5020.000000   3401119   3395080   3389092   3383153   3377282  
  5010.000000   3371483   3365780   3360175   3354694   3349338  
  5000.000000   3344137   3339088   3334219   3329521   3325012  
  4990.000000   3320672   3316519   3312535   3308750   3305152  
  4980.000000   3301782   3298632   3295743   3293104   3290759  
  4970.000000   3288689   3286937   3285478   3284344   3283496  
  4960.000000   3282960   3282692   3282733   3283060   3283738  
  4950.000000   3284765   3286213   3288070   3290382   3293101  
  4940.000000   3296246   3299754   3303645   3307870   3312471  
  4930.000000   3317416   3322758   3328465   3334581   3341066  
  4920.000000   3347954   3355201   3362835   3370819   3379176  
  4910.000000   3387876   3396939   3406337   3416077   3426122  
  4900.000000   3436453   3447016   3457760   3468623   3479537  
  4890.000000   3490448   3501287   3512010   3522545   3532853  
  4880.000000   3542851   3552505   3561729   3570501   3578737  
  4870.000000   3586430   3593500   3599955   3605726   3610844  
  4860.000000   3615267   3619054   3622186   3624739   3626708  
  4850.000000   3628173   3629139   3629696   3629867   3629748  
  4840.000000   3629374   3628832   3628149   3627392   3626577  
  4830.000000   3625760   3624962   3624234   3623602   3623096  
  4820.000000   3622722   3622474   3622331   3622263   3622250  
  4810.000000   3622269   3622327   3622421   3622579   3622809  
  4800.000000   3623141   3623583   3624162   3624887   3625783  
  4790.000000   3626851   3628103   3629520   3631091   3632782  
  4780.000000   3634569   3636419   3638317   3640239   3642178  
  4770.000000   3644114   3646042   3647947   3649827   3651678  
  4760.000000   3653507   3655317   3657112   3658886   3660629  
  4750.000000   3662327   3663967   3665547   3667072   3668562  
  4740.000000   3670039   3671525   3673037   3674579   3676147  
  4730.000000   3677727   3679302   3680854   3682369   3683833  
  4720.000000   3685248   3686613   3687953   3689287   3690662  
  4710.000000   3692109   3693680   3695400   3697303   3699392  
  4700.000000   3701679   3704155   3706828   3709691   3712758  
  4690.000000   3716029   3719515   3723204   3727093   3731147  
  4680.000000   3735334   3739595   3743883   3748129   3752289  
  4670.000000   3756314   3760192   3763915   3767515   3771023  
  4660.000000   3774500   3777993   3781564   3785260   3789127  
  4650.000000   3793198   3797495   3802029   3806785   3811738  
  4640.000000   3816835   3822022   3827231   3832409   3837501  
  4630.000000   3842479   3847312   3851989   3856486   3860789  
  4620.000000   3864860   3868676   3872190   3875388   3878233  
  4610.000000   3880739   3882899   3884763   3886347   3887722  
  4600.000000   3888903   3889952   3890860   3891656   3892302  
  4590.000000   3892802   3893105   3893209   3893073   3892705  
  4580.000000   3892082   3891222   3890109   3888762   3887169  
  4570.000000   3885353   3883311   3881082   3878688   3876185  
  4560.000000   3873610   3871023   3868449   3865923   3863441  
  4550.000000   3861007   3858595   3856195   3853788   3851370  
  4540.000000   3848938   3846499   3844059   3841619   3839183  
  4530.000000   3836738   3834282   3831799   3829292   3826753  
  4520.000000   3824206   3821654   3819143   3816685   3814337  
  4510.000000   3812113   3810081   3808254   3806715   3805481  
  4500.000000   3804646   3804226   3804321   3804933   3806155  
  4490.000000   3807973   3810469   3813616   3817487   3822035  
  4480.000000   3827319   3833275   3839948   3847263   3855262  
  4470.000000   3863872   3873134   3882975   3893424   3904398  
  4460.000000   3915909   3927866   3940270   3953037   3966169  
  4450.000000   3979600   3993334   4007316   4021546   4035976  
  4440.000000   4050590   4065344   4080204   4095126   4110061  
  4430.000000   4124976   4139814   4154552   4169129   4183529  
  4420.000000   4197679   4211557   4225069   4238180   4250780  
  4410.000000   4262826   4274206   4284895   4294809   4303972  
  4400.000000   4312359   4320058   4327102   4333626   4339692  
  4390.000000   4345441   4350931   4356283   4361530   4366756  
  4380.000000   4371957   4377166   4382341   4387477   4392524  
  4370.000000   4397479   4402326   4407094   4411805   4416508  
  4360.000000   4421226   4426000   4430827   4435739   4440696  
  4350.000000   4445732   4450783   4455885   4460964   4466068  
  4340.000000   4471124   4476159   4481039   4485649   4489662  
  4330.000000   4492707   4494254   4493824   4490999   4485625  
  4320.000000   4477820   4468055   4457017   4445547   4434415  
  4310.000000   4424261   4415441   4408095   4402124   4397347  
  4300.000000   4393530   4390483   4388079   4386231   4384915  
  4290.000000   4384074   4383708   4383753   4384217   4385052  
  4280.000000   4386273   4387840   4389731   4391891   4394251  
  4270.000000   4396748   4399302   4401840   4404240   4406348  
  4260.000000   4407921   4408689   4408346   4406662   4403501  
  4250.000000   4398916   4393106   4386441   4379336   4372238  
  4240.000000   4365484   4359331   4353862   4349080   4344872  
  4230.000000   4341112   4337649   4334360   4331146   4327933  
  4220.000000   4324696   4321410   4318125   4314869   4311754  
  4210.000000   4308850   4306283   4304113   4302421   4301207  
  4200.000000   4300477   4300165   4300225   4300560   4301117  
  4190.000000   4301812   4302620   4303486   4304423   4305401  
  4180.000000   4306449   4307546   4308726   4309973   4311333  
  4170.000000   4312808   4314466   4316331   4318483   4320945  
  4160.000000   4323784   4326998   4330629   4334648   4339085  
  4150.000000   4343898   4349116   4354694   4360660   4366966  
  4140.000000   4373647   4380661   4388057   4395801   4403957  
  4130.000000   4412492   4421461   4430827   4440642   4450873  
  4120.000000   4461586   4472774   4484519   4496833   4509789  
  4110.000000   4523378   4537629   4552485   4567915   4583816  
  4100.000000   4600118   4616702   4633493   4650396   4667362  
  4090.000000   4684340   4701304   4718238   4735131   4751993  
  4080.000000   4768813   4785619   4802380   4819100   4835687  
  4070.000000   4852079   4868110   4883684   4898635   4912926  
  4060.000000   4926474   4939340   4951505   4963062   4973987  
  4050.000000   4984365   4994162   5003481   5012311   5020770  
  4040.000000   5028822   5036533   5043791   5050589   5056784  
  4030.000000   5062377   5067275   5071535   5075125   5078120  
  4020.000000   5080475   5082264   5083486   5084220   5084434  
  4010.000000   5084239   5083688   5082781   5081318   5079328  
  4000.000000   5077068  
##END= 
