##TITLE= Sample 030 By ssteindl date Donnerstag, November 22 2018
##JCAMP-DX= 4.24
##DATA TYPE= INFRARED SPECTRUM
##ORIGIN= Exported PE Spectrum Data File
##OWNER= Sandra Steindl
##DATE= 18/11/22
##TIME= 11:19:41.00
##SPECTROMETER/DATA SYSTEM= PERKIN-ELMER Frontier FT-IR/NIR IR
##INSTRUMENT PARAMETERS=
  APODIZATION=stark
  DETECTOR=INGAAS
##RESOLUTION= 16.000000
##DELTAX= -2.000000
##XUNITS= 1/CM
##YUNITS= A
##XFACTOR= 1.00
##YFACTOR= 0.00000011920928955078
##FIRSTX= 10000.00
##LASTX= 4000.00
##NPOINTS= 3001
##FIRSTY= 0.235404
##MAXY= 0.651828
##MINY= 0.201906
##XYDATA= (X++(Y..Y))
 10000.000000   1974714   1974765   1974441   1973141   1970588  
  9990.000000   1967161   1963755   1961545   1961612   1964505  
  9980.000000   1969866   1976388   1982077   1984885   1983365  
  9970.000000   1977277   1967744   1956969   1947535   1941534  
  9960.000000   1939918   1942197   1946785   1951501   1954397  
  9950.000000   1954251   1950847   1944893   1937609   1930433  
  9940.000000   1924604   1921122   1920646   1923492   1929583  
  9930.000000   1938302   1948483   1958437   1966284   1970364  
  9920.000000   1969768   1964593   1956040   1945966   1936445  
  9910.000000   1929090   1924746   1923383   1924277   1926461  
  9900.000000   1929010   1931446   1933638   1935829   1938228  
  9890.000000   1940930   1943721   1946179   1947844   1948328  
  9880.000000   1947542   1945568   1942743   1939400   1935862  
  9870.000000   1932304   1928780   1925288   1921816   1918478  
  9860.000000   1915458   1913082   1911636   1911399   1912466  
  9850.000000   1914800   1918167   1922188   1926353   1930058  
  9840.000000   1932701   1933727   1932815   1929887   1925278  
  9830.000000   1919583   1913665   1908343   1904260   1901661  
  9820.000000   1900345   1899813   1899424   1898769   1897752  
  9810.000000   1896750   1896374   1897281   1899864   1904042  
  9800.000000   1909281   1914624   1919060   1921655   1921896  
  9790.000000   1919691   1915437   1909877   1903965   1898726  
  9780.000000   1895062   1893647   1894754   1898211   1903359  
  9770.000000   1909218   1914638   1918641   1920551   1920224  
  9760.000000   1917938   1914372   1910354   1906698   1904035  
  9750.000000   1902679   1902631   1903540   1904815   1905686  
  9740.000000   1905369   1903230   1898936   1892621   1884882  
  9730.000000   1876728   1869339   1863813   1860905   1860872  
  9720.000000   1863423   1867830   1873065   1878056   1881862  
  9710.000000   1883858   1883835   1881974   1878850   1875184  
  9700.000000   1871790   1869223   1867751   1867164   1866943  
  9690.000000   1866434   1865123   1862932   1860196   1857679  
  9680.000000   1856197   1856422   1858592   1862444   1867310  
  9670.000000   1872258   1876373   1878882   1879315   1877524  
  9660.000000   1873709   1868403   1862447   1856908   1852884  
  9650.000000   1851252   1852334   1855742   1860357   1864697  
  9640.000000   1867345   1867493   1865157   1861173   1856787  
  9630.000000   1853177   1850997   1850197   1850179   1850121  
  9620.000000   1849419   1847893   1845820   1843675   1841841  
  9610.000000   1840388   1839057   1837451   1835281   1832562  
  9600.000000   1829643   1827048   1825285   1824611   1825049  
  9590.000000   1826386   1828386   1830783   1833339   1835697  
  9580.000000   1837382   1837843   1836694   1833980   1830356  
  9570.000000   1827060   1825547   1827019   1831855   1839417  
  9560.000000   1848127   1856010   1861326   1863153   1861616  
  9550.000000   1857708   1852799   1848067   1844114   1840917  
  9540.000000   1838072   1835180   1832111   1829133   1826687  
  9530.000000   1825209   1824762   1825083   1825595   1825750  
  9520.000000   1825243   1824094   1822617   1821099   1819698  
  9510.000000   1818252   1816483   1814123   1811192   1808015  
  9500.000000   1805187   1803326   1802859   1803855   1806000  
  9490.000000   1808748   1811517   1813907   1815789   1817276  
  9480.000000   1818585   1819902   1821279   1822644   1823850  
  9470.000000   1824759   1825298   1825466   1825311   1824873  
  9460.000000   1824130   1823012   1821387   1819173   1816342  
  9450.000000   1813006   1809376   1805777   1802544   1799988  
  9440.000000   1798276   1797405   1797164   1797197   1797110  
  9430.000000   1796570   1795444   1793778   1791817   1789847  
  9420.000000   1788132   1786782   1785782   1785020   1784422  
  9410.000000   1784023   1783980   1784522   1785820   1787915  
  9400.000000   1790620   1793578   1796321   1798408   1799557  
  9390.000000   1799672   1798879   1797372   1795407   1793139  
  9380.000000   1790694   1788105   1785398   1782603   1779800  
  9370.000000   1777176   1774993   1773613   1773354   1774484  
  9360.000000   1777063   1780953   1785763   1790913   1795717  
  9350.000000   1799531   1801899   1802646   1801903   1800039  
  9340.000000   1797559   1794976   1792718   1791038   1789985  
  9330.000000   1789400   1788959   1788279   1786981   1784829  
  9320.000000   1781754   1777952   1773820   1769938   1766875  
  9310.000000   1765078   1764716   1765672   1767572   1769911  
  9300.000000   1772159   1773884   1774820   1774859   1774053  
  9290.000000   1772500   1770383   1767862   1765165   1762470  
  9280.000000   1759950   1757684   1755685   1753945   1752460  
  9270.000000   1751312   1750634   1750649   1751570   1753525  
  9260.000000   1756440   1760005   1763721   1766992   1769272  
  9250.000000   1770174   1769593   1767723   1765053   1762216  
  9240.000000   1759845   1758409   1758090   1758738   1759872  
  9230.000000   1760846   1761039   1760098   1758057   1755342  
  9220.000000   1752600   1750484   1749401   1749357   1749964  
  9210.000000   1750627   1750831   1750356   1749368   1748343  
  9200.000000   1747835   1748228   1749529   1751383   1753234  
  9190.000000   1754538   1754987   1754573   1753568   1752333  
  9180.000000   1751141   1750083   1749078   1748010   1746837  
  9170.000000   1745671   1744724   1744207   1744196   1744579  
  9160.000000   1745075   1745353   1745157   1744397   1743166  
  9150.000000   1741634   1739973   1738268   1736565   1734904  
  9140.000000   1733399   1732258   1731716   1731942   1732900  
  9130.000000   1734353   1735904   1737177   1737937   1738188  
  9120.000000   1738115   1737974   1737921   1737921   1737742  
  9110.000000   1737085   1735755   1733783   1731440   1729113  
  9100.000000   1727137   1725632   1724447   1723229   1721596  
  9090.000000   1719313   1716443   1713302   1710368   1708087  
  9080.000000   1706745   1706384   1706828   1707787   1708971  
  9070.000000   1710198   1711411   1712660   1714032   1715609  
  9060.000000   1717412   1719378   1721361   1723148   1724519  
  9050.000000   1725248   1725187   1724272   1722589   1720337  
  9040.000000   1717771   1715151   1712670   1710454   1708554  
  9030.000000   1707009   1705862   1705187   1705031   1705380  
  9020.000000   1706091   1706922   1707580   1707831   1707596  
  9010.000000   1706978   1706247   1705697   1705569   1705909  
  9000.000000   1706627   1707477   1708234   1708695   1708772  
  8990.000000   1708451   1707769   1706800   1705636   1704482  
  8980.000000   1703652   1703569   1704624   1707049   1710763  
  8970.000000   1715299   1719849   1723484   1725421   1725277  
  8960.000000   1723171   1719699   1715737   1712188   1709715  
  8950.000000   1708599   1708740   1709752   1711125   1712347  
  8940.000000   1712995   1712788   1711575   1709359   1706278  
  8930.000000   1702659   1699006   1695928   1694025   1693711  
  8920.000000   1695113   1697970   1701676   1705409   1708353  
  8910.000000   1709919   1709914   1708551   1706399   1704168  
  8900.000000   1702542   1701940   1702448   1703810   1705579  
  8890.000000   1707269   1708519   1709202   1709412   1709410  
  8880.000000   1709453   1709721   1710231   1710873   1711491  
  8870.000000   1711946   1712209   1712324   1712385   1712449  
  8860.000000   1712500   1712457   1712222   1711771   1711180  
  8850.000000   1710640   1710357   1710492   1711057   1711949  
  8840.000000   1712961   1713903   1714653   1715204   1715629  
  8830.000000   1715977   1716235   1716250   1715837   1714811  
  8820.000000   1713142   1710948   1708529   1706257   1704482  
  8810.000000   1703457   1703292   1704009   1705562   1707896  
  8800.000000   1710913   1714453   1718250   1721933   1725095  
  8790.000000   1727385   1728651   1728961   1728610   1727986  
  8780.000000   1727460   1727249   1727388   1727765   1728201  
  8770.000000   1728570   1728823   1729004   1729166   1729332  
  8760.000000   1729442   1729396   1729099   1728537   1727792  
  8750.000000   1727025   1726418   1726095   1726109   1726416  
  8740.000000   1726948   1727622   1728401   1729235   1730072  
  8730.000000   1730794   1731274   1731402   1731192   1730814  
  8720.000000   1730608   1730984   1732296   1734704   1738100  
  8710.000000   1742120   1746248   1749983   1752978   1755117  
  8700.000000   1756519   1757432   1758154   1758903   1759790  
  8690.000000   1760789   1761797   1762681   1763336   1763736  
  8680.000000   1763926   1764054   1764298   1764872   1765928  
  8670.000000   1767540   1769634   1772003   1774352   1776366  
  8660.000000   1777817   1778615   1778836   1778678   1778398  
  8650.000000   1778230   1778334   1778780   1779578   1780705  
  8640.000000   1782145   1783871   1785824   1787873   1789815  
  8630.000000   1791419   1792500   1792997   1793017   1792824  
  8620.000000   1792776   1793205   1794323   1796146   1798501  
  8610.000000   1801084   1803539   1805570   1806983   1807743  
  8600.000000   1807950   1807817   1807615   1807605   1807984  
  8590.000000   1808827   1810073   1811521   1812901   1813943  
  8580.000000   1814483   1814507   1814160   1813693   1813377  
  8570.000000   1813413   1813870   1814692   1815752   1816931  
  8560.000000   1818178   1819524   1821048   1822805   1824770  
  8550.000000   1826816   1828747   1830371   1831576   1832365  
  8540.000000   1832865   1833264   1833752   1834452   1835401  
  8530.000000   1836548   1837805   1839070   1840254   1841277  
  8520.000000   1842073   1842593   1842814   1842791   1842656  
  8510.000000   1842629   1842946   1843803   1845274   1847271  
  8500.000000   1849557   1851813   1853735   1855121   1855912  
  8490.000000   1856192   1856139   1855964   1855845   1855905  
  8480.000000   1856218   1856814   1857696   1858831   1860140  
  8470.000000   1861482   1862663   1863484   1863802   1863586  
  8460.000000   1862952   1862141   1861476   1861249   1861655  
  8450.000000   1862725   1864345   1866291   1868299   1870151  
  8440.000000   1871715   1872977   1874007   1874942   1875927  
  8430.000000   1877085   1878475   1880082   1881821   1883540  
  8420.000000   1885057   1886203   1886859   1886998   1886671  
  8410.000000   1886014   1885196   1884384   1883698   1883200  
  8400.000000   1882898   1882768   1882774   1882887   1883089  
  8390.000000   1883368   1883700   1884049   1884370   1884640  
  8380.000000   1884868   1885116   1885473   1886052   1886943  
  8370.000000   1888201   1889800   1891649   1893594   1895448  
  8360.000000   1897017   1898117   1898609   1898411   1897531  
  8350.000000   1896051   1894146   1892032   1889962   1888159  
  8340.000000   1886786   1885923   1885562   1885645   1886063  
  8330.000000   1886736   1887594   1888632   1889862   1891318  
  8320.000000   1893004   1894885   1896878   1898836   1900579  
  8310.000000   1901894   1902609   1902602   1901856   1900460  
  8300.000000   1898598   1896524   1894499   1892753   1891421  
  8290.000000   1890557   1890117   1890023   1890160   1890429  
  8280.000000   1890730   1890990   1891133   1891102   1890867  
  8270.000000   1890434   1889879   1889310   1888862   1888624  
  8260.000000   1888618   1888782   1888993   1889125   1889089  
  8250.000000   1888894   1888622   1888414   1888379   1888555  
  8240.000000   1888869   1889165   1889264   1889024   1888399  
  8230.000000   1887425   1886212   1884868   1883461   1882008  
  8220.000000   1880487   1878904   1877312   1875856   1874725  
  8210.000000   1874121   1874158   1874823   1875941   1877217  
  8200.000000   1878304   1878884   1878754   1877849   1876262  
  8190.000000   1874201   1871937   1869750   1867866   1866441  
  8180.000000   1865517   1865060   1864943   1865018   1865110  
  8170.000000   1865080   1864812   1864237   1863309   1862002  
  8160.000000   1860317   1858276   1855957   1853472   1850989  
  8150.000000   1848681   1846694   1845114   1843926   1843051  
  8140.000000   1842355   1841732   1841123   1840546   1840068  
  8130.000000   1839756   1839629   1839619   1839581   1839321  
  8120.000000   1838660   1837498   1835849   1833850   1831726  
  8110.000000   1829727   1828059   1826840   1826058   1825591  
  8100.000000   1825225   1824716   1823850   1822494   1820641  
  8090.000000   1818408   1816013   1813705   1811707   1810144  
  8080.000000   1809027   1808257   1807679   1807143   1806556  
  8070.000000   1805915   1805284   1804755   1804394   1804198  
  8060.000000   1804089   1803924   1803560   1802874   1801822  
  8050.000000   1800435   1798818   1797120   1795499   1794101  
  8040.000000   1793029   1792331   1791983   1791897   1791928  
  8030.000000   1791902   1791664   1791102   1790187   1788968  
  8020.000000   1787561   1786102   1784725   1783522   1782548  
  8010.000000   1781818   1781331   1781075   1781025   1781140  
  8000.000000   1781348   1781563   1781691   1781658   1781433  
  7990.000000   1781029   1780497   1779893   1779267   1778636  
  7980.000000   1778003   1777364   1776730   1776123   1775564  
  7970.000000   1775049   1774525   1773911   1773116   1772107  
  7960.000000   1770932   1769740   1768736   1768112   1767968  
  7950.000000   1768259   1768808   1769344   1769613   1769440  
  7940.000000   1768802   1767800   1766627   1765484   1764526  
  7930.000000   1763839   1763443   1763335   1763508   1763965  
  7920.000000   1764691   1765635   1766681   1767659   1768375  
  7910.000000   1768663   1768435   1767702   1766572   1765216  
  7900.000000   1763829   1762586   1761621   1761013   1760775  
  7890.000000   1760868   1761192   1761609   1761957   1762093  
  7880.000000   1761925   1761440   1760715   1759881   1759092  
  7870.000000   1758455   1758013   1757720   1757485   1757208  
  7860.000000   1756827   1756346   1755820   1755343   1754989  
  7850.000000   1754808   1754794   1754917   1755126   1755380  
  7840.000000   1755646   1755896   1756093   1756184   1756105  
  7830.000000   1755794   1755215   1754367   1753294   1752075  
  7820.000000   1750804   1749581   1748485   1747588   1746925  
  7810.000000   1746513   1746319   1746286   1746311   1746284  
  7800.000000   1746100   1745688   1745036   1744179   1743195  
  7790.000000   1742166   1741155   1740190   1739271   1738387  
  7780.000000   1737536   1736745   1736057   1735520   1735153  
  7770.000000   1734937   1734808   1734678   1734464   1734115  
  7760.000000   1733625   1733029   1732383   1731737   1731118  
  7750.000000   1730522   1729920   1729279   1728574   1727804  
  7740.000000   1726990   1726166   1725367   1724617   1723918  
  7730.000000   1723254   1722593   1721899   1721147   1720331  
  7720.000000   1719474   1718625   1717846   1717197   1716709  
  7710.000000   1716379   1716162   1715987   1715783   1715496  
  7700.000000   1715116   1714664   1714184   1713710   1713250  
  7690.000000   1712772   1712225   1711563   1710777   1709914  
  7680.000000   1709067   1708345   1707829   1707538   1707416  
  7670.000000   1707354   1707232   1706959   1706515   1705938  
  7660.000000   1705316   1704734   1704245   1703847   1703507  
  7650.000000   1703177   1702844   1702541   1702344   1702342  
  7640.000000   1702594   1703101   1703791   1704539   1705209  
  7630.000000   1705691   1705938   1705962   1705825   1705594  
  7620.000000   1705328   1705055   1704789   1704540   1704336  
  7610.000000   1704217   1704227   1704386   1704671   1705014  
  7600.000000   1705321   1705509   1705537   1705427   1705260  
  7590.000000   1705148   1705192   1705451   1705922   1706551  
  7580.000000   1707264   1707995   1708715   1709421   1710134  
  7570.000000   1710854   1711559   1712191   1712695   1713033  
  7560.000000   1713226   1713346   1713512   1713839   1714416  
  7550.000000   1715263   1716337   1717548   1718793   1719993  
  7540.000000   1721112   1722153   1723145   1724111   1725064  
  7530.000000   1725989   1726866   1727674   1728425   1729142  
  7520.000000   1729881   1730680   1731569   1732535   1733548  
  7510.000000   1734557   1735535   1736474   1737413   1738416  
  7500.000000   1739566   1740926   1742537   1744386   1746427  
  7490.000000   1748580   1750766   1752907   1754963   1756913  
  7480.000000   1758781   1760598   1762412   1764256   1766155  
  7470.000000   1768104   1770093   1772087   1774063   1776001  
  7460.000000   1777904   1779790   1781698   1783665   1785722  
  7450.000000   1787873   1790105   1792374   1794638   1796856  
  7440.000000   1799019   1801146   1803288   1805499   1807833  
  7430.000000   1810310   1812917   1815608   1818319   1820991  
  7420.000000   1823586   1826096   1828542   1830961   1833389  
  7410.000000   1835851   1838349   1840866   1843376   1845843  
  7400.000000   1848243   1850557   1852783   1854929   1857018  
  7390.000000   1859081   1861154   1863273   1865462   1867733  
  7380.000000   1870084   1872499   1874955   1877433   1879912  
  7370.000000   1882375   1884799   1887156   1889416   1891552  
  7360.000000   1893562   1895467   1897326   1899207   1901184  
  7350.000000   1903301   1905568   1907962   1910440   1912970  
  7340.000000   1915542   1918181   1920921   1923789   1926761  
  7330.000000   1929779   1932742   1935559   1938162   1940549  
  7320.000000   1942759   1944869   1946926   1948939   1950847  
  7310.000000   1952552   1953943   1954957   1955591   1955931  
  7300.000000   1956104   1956269   1956549   1957038   1957752  
  7290.000000   1958678   1959753   1960915   1962092   1963231  
  7280.000000   1964288   1965237   1966065   1966774   1967382  
  7270.000000   1967909   1968385   1968830   1969270   1969723  
  7260.000000   1970219   1970790   1971475   1972304   1973299  
  7250.000000   1974448   1975730   1977096   1978509   1979928  
  7240.000000   1981355   1982791   1984278   1985842   1987533  
  7230.000000   1989374   1991401   1993624   1996057   1998680  
  7220.000000   2001470   2004364   2007316   2010265   2013200  
  7210.000000   2016113   2019051   2022042   2025130   2028302  
  7200.000000   2031547   2034810   2038078   2041343   2044667  
  7190.000000   2048117   2051794   2055756   2060037   2064602  
  7180.000000   2069398   2074343   2079382   2084462   2089571  
  7170.000000   2094681   2099792   2104866   2109901   2114871  
  7160.000000   2119803   2124710   2129647   2134637   2139723  
  7150.000000   2144922   2150273   2155811   2161603   2167697  
  7140.000000   2174138   2180909   2187962   2195189   2202497  
  7130.000000   2209785   2217028   2224214   2231403   2238624  
  7120.000000   2245924   2253287   2260704   2268132   2275576  
  7110.000000   2283043   2290594   2298282   2306170   2314269  
  7100.000000   2322580   2331048   2339627   2348246   2356867  
  7090.000000   2365447   2373986   2382488   2391003   2399585  
  7080.000000   2408318   2417266   2426477   2435943   2445612  
  7070.000000   2455389   2465174   2474879   2484463   2493918  
  7060.000000   2503262   2512510   2521663   2530701   2539611  
  7050.000000   2548395   2557089   2565760   2574473   2583273  
  7040.000000   2592151   2601060   2609925   2618689   2627321  
  7030.000000   2635837   2644263   2652620   2660883   2669006  
  7020.000000   2676922   2684614   2692116   2699552   2707064  
  7010.000000   2714793   2722778   2730971   2739200   2747266  
  7000.000000   2754965   2762191   2768919   2775231   2781233  
  6990.000000   2787051   2792755   2798396   2803966   2809475  
  6980.000000   2814907   2820281   2825581   2830813   2835943  
  6970.000000   2840965   2845857   2850646   2855348   2860003  
  6960.000000   2864602   2869126   2873505   2877684   2881611  
  6950.000000   2885299   2888791   2892183   2895547   2898952  
  6940.000000   2902395   2905850   2909243   2912515   2915605  
  6930.000000   2918499   2921186   2923694   2926043   2928277  
  6920.000000   2930426   2932533   2934622   2936718   2938815  
  6910.000000   2940902   2942948   2944933   2946829   2948634  
  6900.000000   2950337   2951942   2953444   2954847   2956159  
  6890.000000   2957413   2958649   2959917   2961252   2962660  
  6880.000000   2964112   2965560   2966945   2968233   2969417  
  6870.000000   2970524   2971592   2972662   2973753   2974872  
  6860.000000   2976016   2977196   2978432   2979749   2981153  
  6850.000000   2982613   2984055   2985385   2986511   2987391  
  6840.000000   2988043   2988548   2989008   2989517   2990114  
  6830.000000   2990792   2991499   2992191   2992840   2993466  
  6820.000000   2994102   2994780   2995492   2996193   2996807  
  6810.000000   2997269   2997547   2997663   2997676   2997663  
  6800.000000   2997677   2997745   2997859   2998002   2998153  
  6790.000000   2998313   2998474   2998625   2998719   2998700  
  6780.000000   2998504   2998114   2997555   2996910   2996276  
  6770.000000   2995736   2995304   2994937   2994541   2994028  
  6760.000000   2993343   2992505   2991575   2990641   2989758  
  6750.000000   2988940   2988146   2987323   2986422   2985437  
  6740.000000   2984394   2983340   2982305   2981297   2980288  
  6730.000000   2979254   2978176   2977077   2975996   2974982  
  6720.000000   2974051   2973184   2972317   2971379   2970312  
  6710.000000   2969101   2967762   2966336   2964854   2963334  
  6700.000000   2961769   2960157   2958509   2956868   2955286  
  6690.000000   2953812   2952448   2951158   2949855   2948453  
  6680.000000   2946886   2945145   2943265   2941314   2939352  
  6670.000000   2937409   2935478   2933530   2931535   2929491  
  6660.000000   2927418   2925354   2923331   2921363   2919441  
  6650.000000   2917550   2915678   2913837   2912042   2910309  
  6640.000000   2908626   2906954   2905232   2903408   2901460  
  6630.000000   2899410   2897313   2895229   2893189   2891183  
  6620.000000   2889159   2887060   2884848   2882538   2880192  
  6610.000000   2877897   2875724   2873696   2871777   2869892  
  6600.000000   2867953   2865905   2863737   2861487   2859215  
  6590.000000   2856981   2854821   2852742   2850731   2848758  
  6580.000000   2846797   2844821   2842804   2840726   2838576  
  6570.000000   2836361   2834121   2831917   2829820   2827884  
  6560.000000   2826125   2824509   2822968   2821422   2819819  
  6550.000000   2818155   2816473   2814844   2813333   2811963  
  6540.000000   2810717   2809533   2808344   2807093   2805763  
  6530.000000   2804361   2802917   2801454   2799989   2798527  
  6520.000000   2797078   2795664   2794324   2793099   2792016  
  6510.000000   2791068   2790217   2789393   2788531   2787580  
  6500.000000   2786531   2785404   2784243   2783091   2781981  
  6490.000000   2780928   2779936   2779003   2778132   2777330  
  6480.000000   2776594   2775914   2775264   2774612   2773926  
  6470.000000   2773185   2772386   2771533   2770638   2769706  
  6460.000000   2768736   2767725   2766674   2765596   2764509  
  6450.000000   2763436   2762393   2761380   2760386   2759395  
  6440.000000   2758398   2757400   2756416   2755467   2754565  
  6430.000000   2753707   2752877   2752050   2751210   2750352  
  6420.000000   2749493   2748648   2747835   2747055   2746300  
  6410.000000   2745556   2744818   2744099   2743421   2742809  
  6400.000000   2742280   2741821   2741401   2740976   2740504  
  6390.000000   2739962   2739350   2738689   2738004   2737320  
  6380.000000   2736647   2735988   2735337   2734694   2734058  
  6370.000000   2733433   2732815   2732191   2731540   2730836  
  6360.000000   2730059   2729202   2728273   2727290   2726280  
  6350.000000   2725267   2724271   2723313   2722408   2721569  
  6340.000000   2720798   2720091   2719424   2718773   2718109  
  6330.000000   2717417   2716692   2715942   2715169   2714364  
  6320.000000   2713494   2712517   2711390   2710098   2708655  
  6310.000000   2707123   2705568   2704065   2702639   2701286  
  6300.000000   2699953   2698589   2697140   2695596   2693962  
  6290.000000   2692272   2690542   2688782   2686969   2685080  
  6280.000000   2683091   2681006   2678842   2676637   2674415  
  6270.000000   2672192   2669955   2667688   2665365   2662980  
  6260.000000   2660532   2658040   2655507   2652936   2650313  
  6250.000000   2647630   2644883   2642095   2639297   2636531  
  6240.000000   2633819   2631166   2628545   2625921   2623257  
  6230.000000   2620537   2617764   2614964   2612161   2609376  
  6220.000000   2606611   2603862   2601117   2598377   2595646  
  6210.000000   2592941   2590271   2587640   2585032   2582429  
  6200.000000   2579808   2577158   2574478   2571780   2569079  
  6190.000000   2566385   2563704   2561041   2558401   2555799  
  6180.000000   2553254   2550784   2548399   2546089   2543826  
  6170.000000   2541569   2539281   2536929   2534507   2532026  
  6160.000000   2529519   2527023   2524583   2522233   2520003  
  6150.000000   2517902   2515927   2514058   2512260   2510490  
  6140.000000   2508709   2506886   2505011   2503085   2501127  
  6130.000000   2499150   2497167   2495176   2493174   2491154  
  6120.000000   2489125   2487101   2485113   2483186   2481347  
  6110.000000   2479603   2477957   2476398   2474920   2473512  
  6100.000000   2472177   2470907   2469702   2468550   2467451  
  6090.000000   2466398   2465403   2464475   2463631   2462873  
  6080.000000   2462203   2461594   2461031   2460485   2459955  
  6070.000000   2459442   2458965   2458536   2458165   2457840  
  6060.000000   2457550   2457270   2456997   2456735   2456514  
  6050.000000   2456361   2456315   2456390   2456599   2456926  
  6040.000000   2457362   2457880   2458468   2459100   2459765  
  6030.000000   2460439   2461112   2461777   2462446   2463135  
  6020.000000   2463878   2464697   2465610   2466610   2467678  
  6010.000000   2468775   2469868   2470923   2471925   2472866  
  6000.000000   2473756   2474604   2475428   2476238   2477053  
  5990.000000   2477880   2478732   2479612   2480530   2481488  
  5980.000000   2482501   2483577   2484741   2486002   2487378  
  5970.000000   2488860   2490441   2492097   2493814   2495578  
  5960.000000   2497399   2499282   2501244   2503283   2505388  
  5950.000000   2507527   2509672   2511796   2513896   2515983  
  5940.000000   2518086   2520231   2522436   2524696   2526996  
  5930.000000   2529314   2531632   2533943   2536253   2538571  
  5920.000000   2540899   2543228   2545539   2547805   2550004  
  5910.000000   2552121   2554155   2556110   2557997   2559825  
  5900.000000   2561611   2563374   2565144   2566960   2568855  
  5890.000000   2570858   2572970   2575173   2577425   2579684  
  5880.000000   2581909   2584078   2586186   2588238   2590245  
  5870.000000   2592206   2594119   2595970   2597759   2599487  
  5860.000000   2601172   2602836   2604507   2606209   2607966  
  5850.000000   2609800   2611740   2613814   2616047   2618447  
  5840.000000   2621005   2623685   2626438   2629212   2631969  
  5830.000000   2634692   2637389   2640080   2642787   2645517  
  5820.000000   2648255   2650972   2653627   2656183   2658606  
  5810.000000   2660881   2662990   2664938   2666721   2668362  
  5800.000000   2669870   2671287   2672626   2673921   2675155  
  5790.000000   2676321   2677366   2678262   2678958   2679443  
  5780.000000   2679696   2679729   2679534   2679118   2678475  
  5770.000000   2677623   2676582   2675411   2674172   2672944  
  5760.000000   2671785   2670743   2669829   2669045   2668373  
  5750.000000   2667801   2667321   2666927   2666616   2666377  
  5740.000000   2666199   2666063   2665963   2665887   2665845  
  5730.000000   2665837   2665872   2665945   2666059   2666208  
  5720.000000   2666399   2666635   2666932   2667289   2667708  
  5710.000000   2668172   2668667   2669179   2669713   2670280  
  5700.000000   2670906   2671605   2672382   2673220   2674086  
  5690.000000   2674947   2675775   2676565   2677325   2678076  
  5680.000000   2678827   2679579   2680309   2680992   2681591  
  5670.000000   2682086   2682463   2682720   2682855   2682872  
  5660.000000   2682767   2682548   2682227   2681835   2681401  
  5650.000000   2680963   2680537   2680131   2679730   2679319  
  5640.000000   2678880   2678414   2677926   2677430   2676933  
  5630.000000   2676439   2675936   2675419   2674888   2674355  
  5620.000000   2673839   2673360   2672921   2672511   2672098  
  5610.000000   2671648   2671132   2670543   2669889   2669196  
  5600.000000   2668488   2667781   2667075   2666360   2665620  
  5590.000000   2664844   2664024   2663162   2662252   2661296  
  5580.000000   2660280   2659203   2658063   2656873   2655647  
  5570.000000   2654405   2653154   2651895   2650615   2649304  
  5560.000000   2647954   2646572   2645168   2643758   2642350  
  5550.000000   2640947   2639546   2638147   2636759   2635403  
  5540.000000   2634104   2632882   2631740   2630663   2629621  
  5530.000000   2628586   2627538   2626477   2625419   2624382  
  5520.000000   2623379   2622404   2621433   2620438   2619394  
  5510.000000   2618294   2617145   2615966   2614772   2613574  
  5500.000000   2612368   2611147   2609899   2608626   2607328  
  5490.000000   2606014   2604677   2603311   2601891   2600400  
  5480.000000   2598823   2597165   2595434   2593652   2591824  
  5470.000000   2589960   2588051   2586097   2584100   2582075  
  5460.000000   2580036   2577997   2575949   2573876   2571747  
  5450.000000   2569540   2567251   2564898   2562517   2560147  
  5440.000000   2557819   2555542   2553316   2551135   2549007  
  5430.000000   2546943   2544966   2543078   2541272   2539508  
  5420.000000   2537755   2535984   2534216   2532492   2530901  
  5410.000000   2529509   2528371   2527476   2526794   2526255  
  5400.000000   2525826   2525468   2525202   2525033   2524995  
  5390.000000   2525077   2525283   2525579   2525975   2526466  
  5380.000000   2527105   2527920   2528965   2530235   2531739  
  5370.000000   2533426   2535287   2537276   2539414   2541679  
  5360.000000   2544119   2546717   2549530   2552549   2555853  
  5350.000000   2559455   2563453   2567854   2572734   2578053  
  5340.000000   2583850   2590062   2596741   2603843   2611444  
  5330.000000   2619502   2628080   2637111   2646644   2656617  
  5320.000000   2667122   2678144   2689830   2702177   2715321  
  5310.000000   2729213   2743933   2759385   2775637   2792613  
  5300.000000   2810420   2829035   2848603   2869120   2890721  
  5290.000000   2913360   2937093   2961784   2987381   3013691  
  5280.000000   3040656   3068155   3096252   3124970   3154455  
  5270.000000   3184736   3215827   3247562   3279718   3312007  
  5260.000000   3344195   3376163   3407899   3439499   3471021  
  5250.000000   3502502   3533785   3564691   3594888   3624197  
  5240.000000   3652415   3679608   3705794   3731201   3755873  
  5230.000000   3779969   3803386   3826128   3847974   3868893  
  5220.000000   3888715   3907524   3925282   3942185   3958253  
  5210.000000   3973672   3988387   4002462   4015723   4028161  
  5200.000000   4039607   4050129   4059677   4068425   4076378  
  5190.000000   4083692   4090310   4096296   4101539   4106087  
  5180.000000   4109865   4112980   4115403   4117247   4118464  
  5170.000000   4119118   4119136   4118583   4117426   4115777  
  5160.000000   4113640   4111124   4108199   4104912   4101190  
  5150.000000   4097059   4092470   4087487   4082105   4076405  
  5140.000000   4070384   4064100   4057535   4050742   4043720  
  5130.000000   4036540   4029215   4021806   4014302   4006724  
  5120.000000   3999038   3991253   3983351   3975365   3967300  
  5110.000000   3959191   3951035   3942846   3934607   3926328  
  5100.000000   3918008   3909676   3901347   3893049   3884783  
  5090.000000   3876549   3868322   3860092   3851836   3843556  
  5080.000000   3835250   3826929   3818591   3810242   3801874  
  5070.000000   3793489   3785085   3776670   3768246   3759817  
  5060.000000   3751374   3742907   3734399   3725842   3717234  
  5050.000000   3708588   3699921   3691257   3682619   3674024  
  5040.000000   3665482   3657001   3648587   3640243   3631975  
  5030.000000   3623784   3615673   3607636   3599677   3591791  
  5020.000000   3583993   3576282   3568686   3561204   3553864  
  5010.000000   3546658   3539613   3532718   3526004   3519466  
  5000.000000   3513144   3507032   3501171   3495545   3490192  
  4990.000000   3485091   3480284   3475754   3471553   3467668  
  4980.000000   3464151   3460979   3458194   3455761   3453713  
  4970.000000   3452010   3450687   3449702   3449092   3448816  
  4960.000000   3448917   3449361   3450204   3451425   3453088  
  4950.000000   3455169   3457719   3460690   3464100   3467880  
  4940.000000   3472036   3476505   3481307   3486398   3491812  
  4930.000000   3497509   3503517   3509791   3516352   3523158  
  4920.000000   3530242   3537578   3545207   3553111   3561321  
  4910.000000   3569811   3578591   3587622   3596899   3606379  
  4900.000000   3616046   3625855   3635789   3645810   3655901  
  4890.000000   3666036   3676204   3686386   3696568   3706732  
  4880.000000   3716856   3726926   3736917   3746818   3756599  
  4870.000000   3766244   3775715   3784992   3794040   3802862  
  4860.000000   3811450   3819837   3828036   3836091   3844003  
  4850.000000   3851795   3859446   3866967   3874338   3881584  
  4840.000000   3888695   3895703   3902591   3909374   3916011  
  4830.000000   3922500   3928796   3934901   3940783   3946456  
  4820.000000   3951899   3957125   3962111   3966872   3971391  
  4810.000000   3975693   3979772   3983663   3987363   3990906  
  4800.000000   3994289   3997547   4000683   4003737   4006714  
  4790.000000   4009649   4012533   4015376   4018150   4020853  
  4780.000000   4023452   4025948   4028321   4030583   4032716  
  4770.000000   4034734   4036614   4038365   4039963   4041414  
  4760.000000   4042691   4043800   4044707   4045414   4045887  
  4750.000000   4046137   4046141   4045924   4045478   4044836  
  4740.000000   4043993   4042978   4041784   4040434   4038916  
  4730.000000   4037253   4035428   4033454   4031310   4029005  
  4720.000000   4026521   4023877   4021080   4018167   4015161  
  4710.000000   4012108   4009026   4005946   4002869   3999804  
  4700.000000   3996738   3993672   3990587   3987482   3984344  
  4690.000000   3981173   3977965   3974727   3971462   3968176  
  4680.000000   3964869   3961535   3958159   3954722   3951210  
  4670.000000   3947612   3943939   3940211   3936470   3932754  
  4660.000000   3929110   3925568   3922157   3918883   3915760  
  4650.000000   3912780   3909951   3907269   3904743   3902366  
  4640.000000   3900145   3898071   3896148   3894362   3892714  
  4630.000000   3891187   3889775   3888449   3887193   3885974  
  4620.000000   3884772   3883557   3882315   3881026   3879685  
  4610.000000   3878282   3876824   3875318   3873791   3872271  
  4600.000000   3870795   3869394   3868090   3866890   3865786  
  4590.000000   3864763   3863803   3862894   3862031   3861213  
  4580.000000   3860440   3859701   3858974   3858230   3857430  
  4570.000000   3856546   3855557   3854460   3853262   3851979  
  4560.000000   3850626   3849215   3847750   3846232   3844659  
  4550.000000   3843031   3841348   3839611   3837822   3835982  
  4540.000000   3834101   3832186   3830264   3828354   3826491  
  4530.000000   3824688   3822977   3821357   3819858   3818480  
  4520.000000   3817273   3816250   3815481   3814971   3814786  
  4510.000000   3814906   3815388   3816206   3817438   3819081  
  4500.000000   3821246   3823942   3827278   3831238   3835900  
  4490.000000   3841212   3847231   3853900   3861280   3869319  
  4480.000000   3878074   3887483   3897584   3908301   3919655  
  4470.000000   3931568   3944054   3957039   3970523   3984417  
  4460.000000   3998697   4013261   4028064   4043009   4058051  
  4450.000000   4073114   4088164   4103153   4118058   4132859  
  4440.000000   4147542   4162109   4176541   4190856   4205024  
  4430.000000   4219070   4232948   4246688   4260220   4273560  
  4420.000000   4286597   4299317   4311568   4323311   4334376  
  4410.000000   4344724   4354191   4362756   4370278   4376758  
  4400.000000   4382091   4386320   4389400   4391430   4392436  
  4390.000000   4392570   4391908   4390623   4388809   4386631  
  4380.000000   4384186   4381625   4379049   4376598   4374382  
  4370.000000   4372519   4371111   4370234   4369957   4370300  
  4360.000000   4371289   4372892   4375099   4377846   4381102  
  4350.000000   4384793   4388888   4393338   4398138   4403275  
  4340.000000   4408760   4414570   4420663   4426920   4433174  
  4330.000000   4439186   4444699   4449468   4453316   4456174  
  4320.000000   4458097   4459274   4459955   4460450   4461001  
  4310.000000   4461818   4462967   4464466   4466212   4468113  
  4300.000000   4470019   4471846   4473491   4474918   4476077  
  4290.000000   4476963   4477562   4477887   4477951   4477790  
  4280.000000   4477434   4476937   4476334   4475691   4475045  
  4270.000000   4474464   4473968   4473596   4473312   4473074  
  4260.000000   4472766   4472268   4471437   4470171   4468407  
  4250.000000   4466162   4463506   4460573   4457503   4454445  
  4240.000000   4451501   4448745   4446191   4443832   4441626  
  4230.000000   4439535   4437507   4435503   4433484   4431412  
  4220.000000   4429267   4427027   4424704   4422308   4419892  
  4210.000000   4417497   4415198   4413042   4411089   4409365  
  4200.000000   4407903   4406695   4405748   4405026   4404519  
  4190.000000   4404173   4403981   4403892   4403925   4404050  
  4180.000000   4404321   4404733   4405367   4406233   4407429  
  4170.000000   4408979   4410994   4413503   4416608   4420312  
  4160.000000   4424680   4429660   4435276   4441446   4448187  
  4150.000000   4455429   4463214   4471489   4480307   4489611  
  4140.000000   4499445   4509743   4520550   4531810   4543579  
  4130.000000   4555813   4568560   4581766   4595456   4609563  
  4120.000000   4624103   4639022   4654351   4670063   4686202  
  4110.000000   4702748   4719731   4737107   4754867   4772941  
  4100.000000   4791291   4809842   4828565   4847413   4866385  
  4090.000000   4885469   4904677   4924008   4943459   4963026  
  4080.000000   4982694   5002469   5022337   5042315   5062370  
  4070.000000   5082491   5102592   5122626   5142475   5162103  
  4060.000000   5181417   5200431   5219081   5237400   5255303  
  4050.000000   5272810   5289811   5306336   5322283   5337710  
  4040.000000   5352516   5366750   5380273   5393108   5405090  
  4030.000000   5416244   5426411   5435621   5443725   5450740  
  4020.000000   5456497   5461058   5464389   5466623   5467731  
  4010.000000   5467932   5467347   5466029   5463704   5460484  
  4000.000000   5456812  
##END= 
