##TITLE= Sample 010 By ssteindl date Donnerstag, November 22 2018
##JCAMP-DX= 4.24
##DATA TYPE= INFRARED SPECTRUM
##ORIGIN= Exported PE Spectrum Data File
##OWNER= Sandra Steindl
##DATE= 18/11/22
##TIME= 10:18:42.00
##SPECTROMETER/DATA SYSTEM= PERKIN-ELMER Frontier FT-IR/NIR IR
##INSTRUMENT PARAMETERS=
  APODIZATION=stark
  DETECTOR=INGAAS
##RESOLUTION= 16.000000
##DELTAX= -2.000000
##XUNITS= 1/CM
##YUNITS= A
##XFACTOR= 1.00
##YFACTOR= 0.00000011920928955078
##FIRSTX= 10000.00
##LASTX= 4000.00
##NPOINTS= 3001
##FIRSTY= 0.219182
##MAXY= 0.638941
##MINY= 0.187866
##XYDATA= (X++(Y..Y))
 10000.000000   1838628   1839908   1840129   1837871   1832863  
  9990.000000   1825637   1816599   1806340   1796174   1788000  
  9980.000000   1783317   1782809   1786259   1792605   1800169  
  9970.000000   1807049   1811665   1812937   1810490   1804591  
  9960.000000   1796168   1786597   1777577   1770806   1767665  
  9950.000000   1768864   1774197   1782555   1792158   1801085  
  9940.000000   1807749   1811345   1811906   1810115   1806915  
  9930.000000   1803087   1799117   1795163   1791345   1787862  
  9920.000000   1785096   1783467   1783165   1784057   1785556  
  9910.000000   1786934   1787489   1786906   1785317   1783217  
  9900.000000   1781236   1779789   1778967   1778472   1777870  
  9890.000000   1776794   1775158   1773161   1771191   1769638  
  9880.000000   1768754   1768604   1769118   1770147   1771544  
  9870.000000   1773111   1774630   1775770   1776228   1775781  
  9860.000000   1774448   1772553   1770626   1769306   1769069  
  9850.000000   1770165   1772508   1775815   1779672   1783677  
  9840.000000   1787437   1790553   1792584   1793032   1791500  
  9830.000000   1787797   1782148   1775188   1767877   1761246  
  9820.000000   1756108   1752892   1751571   1751845   1753286  
  9810.000000   1755553   1758391   1761581   1764813   1767627  
  9800.000000   1769491   1769972   1768952   1766741   1764056  
  9790.000000   1761801   1760779   1761412   1763621   1766879  
  9780.000000   1770408   1773401   1775213   1775410   1773818  
  9770.000000   1770463   1765627   1759815   1753761   1748332  
  9760.000000   1744334   1742355   1742552   1744706   1748239  
  9750.000000   1752536   1757007   1761320   1765239   1768597  
  9740.000000   1771122   1772419   1772141   1770058   1766338  
  9730.000000   1761406   1755920   1750412   1745149   1740046  
  9720.000000   1734816   1729297   1723651   1718534   1714847  
  9710.000000   1713466   1714788   1718534   1723776   1729228  
  9700.000000   1733713   1736473   1737388   1736802   1735329  
  9690.000000   1733517   1731765   1730290   1729284   1728968  
  9680.000000   1729581   1731238   1733744   1736553   1738836  
  9670.000000   1739810   1739007   1736540   1733046   1729463  
  9660.000000   1726634   1724992   1724418   1724376   1724197  
  9650.000000   1723435   1722039   1720351   1718872   1717989  
  9640.000000   1717759   1717888   1717888   1717291   1715889  
  9630.000000   1713746   1711215   1708714   1706635   1705217  
  9620.000000   1704536   1704561   1705165   1706205   1707504  
  9610.000000   1708899   1710261   1711540   1712790   1714132  
  9600.000000   1715656   1717286   1718724   1719464   1719009  
  9590.000000   1717075   1713817   1709832   1705983   1703112  
  9580.000000   1701682   1701668   1702547   1703615   1704237  
  9570.000000   1704164   1703526   1702747   1702238   1702186  
  9560.000000   1702442   1702602   1702231   1701044   1699037  
  9550.000000   1696417   1693487   1690475   1687500   1684600  
  9540.000000   1681847   1679414   1677543   1676437   1676119  
  9530.000000   1676361   1676739   1676809   1676316   1675342  
  9520.000000   1674286   1673685   1673961   1675185   1677057  
  9510.000000   1679008   1680481   1681143   1680987   1680283  
  9500.000000   1679380   1678552   1677880   1677305   1676740  
  9490.000000   1676191   1675772   1675619   1675710   1675791  
  9480.000000   1675382   1673986   1671328   1667541   1663226  
  9470.000000   1659232   1656398   1655150   1655359   1656351  
  9460.000000   1657190   1657082   1655671   1653227   1650490  
  9450.000000   1648439   1647929   1649439   1652961   1657983  
  9440.000000   1663656   1668901   1672698   1674209   1673050  
  9430.000000   1669330   1663720   1657299   1651345   1647040  
  9420.000000   1645158   1645897   1648786   1652940   1657277  
  9410.000000   1660954   1663487   1664864   1665380   1665437  
  9400.000000   1665371   1665262   1664994   1664231   1662642  
  9390.000000   1659991   1656309   1651920   1647392   1643459  
  9380.000000   1640818   1640038   1641323   1644465   1648772  
  9370.000000   1653239   1656808   1658673   1658539   1656657  
  9360.000000   1653742   1650676   1648252   1646886   1646569  
  9350.000000   1646922   1647438   1647717   1647582   1647120  
  9340.000000   1646529   1646042   1645772   1645749   1645889  
  9330.000000   1646095   1646274   1646339   1646209   1645762  
  9320.000000   1644898   1643548   1641766   1639712   1637627  
  9310.000000   1635716   1634072   1632634   1631253   1629816  
  9300.000000   1628338   1627050   1626288   1626396   1627502  
  9290.000000   1629468   1631889   1634252   1636117   1637243  
  9280.000000   1637637   1637429   1636770   1635658   1633994  
  9270.000000   1631621   1628543   1624986   1621422   1618402  
  9260.000000   1616343   1615393   1615345   1615816   1616383  
  9250.000000   1616860   1617341   1618169   1619709   1622091  
  9240.000000   1625089   1628116   1630462   1631468   1630808  
  9230.000000   1628535   1625128   1621263   1617649   1614838  
  9220.000000   1613153   1612711   1613398   1614974   1617051  
  9210.000000   1619235   1621133   1622497   1623237   1623486  
  9200.000000   1623520   1623617   1623922   1624310   1624476  
  9190.000000   1623986   1622532   1620036   1616772   1613250  
  9180.000000   1610042   1607585   1606040   1605322   1605189  
  9170.000000   1605436   1605970   1606859   1608191   1610003  
  9160.000000   1612160   1614384   1616348   1617794   1618667  
  9150.000000   1619059   1619155   1619035   1618628   1617700  
  9140.000000   1616007   1613458   1610258   1606920   1604122  
  9130.000000   1602461   1602188   1603146   1604775   1606381  
  9120.000000   1607341   1607398   1606720   1605809   1605269  
  9110.000000   1605539   1606743   1608596   1610535   1611900  
  9100.000000   1612205   1611239   1609127   1606267   1603207  
  9090.000000   1600502   1598537   1597513   1597428   1598139  
  9080.000000   1599390   1600888   1602331   1603460   1604034  
  9070.000000   1603899   1602983   1601355   1599239   1596960  
  9060.000000   1594925   1593454   1592729   1592664   1592942  
  9050.000000   1593075   1592569   1591128   1588774   1585884  
  9040.000000   1583074   1581042   1580348   1581217   1583482  
  9030.000000   1586612   1589921   1592711   1594467   1594950  
  9020.000000   1594238   1592654   1590657   1588756   1587432  
  9010.000000   1587047   1587769   1589534   1592053   1594846  
  9000.000000   1597322   1598948   1599385   1598592   1596796  
  8990.000000   1594446   1592056   1590067   1588713   1588024  
  8980.000000   1587874   1588082   1588477   1588970   1589512  
  8970.000000   1590064   1590498   1590630   1590253   1589224  
  8960.000000   1587559   1585436   1583217   1581283   1579949  
  8950.000000   1579306   1579220   1579373   1579391   1579003  
  8940.000000   1578160   1577076   1576175   1575935   1576713  
  8930.000000   1578580   1581279   1584273   1586922   1588658  
  8920.000000   1589198   1588611   1587315   1585935   1585086  
  8910.000000   1585185   1586296   1588169   1590317   1592223  
  8900.000000   1593482   1593943   1593706   1593051   1592286  
  8890.000000   1591628   1591145   1590724   1590171   1589257  
  8880.000000   1587868   1586011   1583852   1581675   1579813  
  8870.000000   1578595   1578248   1578894   1580501   1582908  
  8860.000000   1585832   1588924   1591843   1594309   1596148  
  8850.000000   1597293   1597792   1597763   1597381   1596829  
  8840.000000   1596288   1595905   1595776   1595925   1596273  
  8830.000000   1596678   1596939   1596898   1596474   1595719  
  8820.000000   1594802   1593939   1593317   1592999   1592913  
  8810.000000   1592876   1592698   1592285   1591702   1591177  
  8800.000000   1591022   1591512   1592793   1594789   1597258  
  8790.000000   1599819   1602111   1603832   1604830   1605083  
  8780.000000   1604706   1603918   1603023   1602388   1602392  
  8770.000000   1603366   1605488   1608700   1612677   1616866  
  8760.000000   1620627   1623395   1624850   1624983   1624092  
  8750.000000   1622654   1621185   1620100   1619635   1619857  
  8740.000000   1620717   1622137   1624042   1626366   1629001  
  8730.000000   1631759   1634362   1636485   1637849   1638304  
  8720.000000   1637916   1636947   1635840   1635068   1635060  
  8710.000000   1636064   1638107   1641005   1644388   1647819  
  8700.000000   1650858   1653206   1654754   1655634   1656155  
  8690.000000   1656709   1657640   1659110   1661056   1663187  
  8680.000000   1665101   1666409   1666881   1666520   1665547  
  8670.000000   1664324   1663212   1662495   1662323   1662729  
  8660.000000   1663668   1665060   1666809   1668811   1670924  
  8650.000000   1672982   1674800   1676260   1677357   1678233  
  8640.000000   1679150   1680373   1682097   1684295   1686751  
  8630.000000   1689066   1690818   1691676   1691519   1690487  
  8620.000000   1688954   1687437   1686461   1686451   1687635  
  8610.000000   1690010   1693325   1697138   1700894   1704063  
  8600.000000   1706265   1707381   1707600   1707356   1707209  
  8590.000000   1707634   1708882   1710867   1713239   1715509  
  8580.000000   1717258   1718304   1718749   1718957   1719348  
  8570.000000   1720274   1721841   1723925   1726224   1728413  
  8560.000000   1730264   1731705   1732787   1733605   1734201  
  8550.000000   1734534   1734505   1734047   1733215   1732205  
  8540.000000   1731324   1730874   1731041   1731811   1732962  
  8530.000000   1734158   1735079   1735550   1735622   1735531  
  8520.000000   1735620   1736191   1737403   1739217   1741425  
  8510.000000   1743728   1745840   1747582   1748926   1749989  
  8500.000000   1750973   1752095   1753510   1755250   1757218  
  8490.000000   1759190   1760891   1762045   1762472   1762144  
  8480.000000   1761212   1759986   1758847   1758175   1758248  
  8470.000000   1759173   1760862   1763059   1765424   1767615  
  8460.000000   1769368   1770561   1771228   1771544   1771773  
  8450.000000   1772191   1773029   1774402   1776289   1778534  
  8440.000000   1780893   1783101   1784934   1786290   1787191  
  8430.000000   1787786   1788279   1788870   1789689   1790749  
  8420.000000   1791957   1793138   1794118   1794759   1795002  
  8410.000000   1794891   1794549   1794166   1793936   1794045  
  8400.000000   1794625   1795751   1797397   1799444   1801670  
  8390.000000   1803808   1805572   1806757   1807276   1807201  
  8380.000000   1806748   1806200   1805838   1805824   1806157  
  8370.000000   1806660   1807040   1807006   1806372   1805152  
  8360.000000   1803546   1801923   1800682   1800147   1800441  
  8350.000000   1801462   1802918   1804411   1805563   1806110  
  8340.000000   1805982   1805293   1804295   1803284   1802522  
  8330.000000   1802165   1802252   1802708   1803395   1804164  
  8320.000000   1804896   1805536   1806077   1806562   1807036  
  8310.000000   1807539   1808067   1808583   1809022   1809310  
  8300.000000   1809403   1809286   1808994   1808595   1808167  
  8290.000000   1807783   1807473   1807239   1807054   1806902  
  8280.000000   1806786   1806745   1806828   1807074   1807469  
  8270.000000   1807937   1808340   1808523   1808363   1807823  
  8260.000000   1806973   1805976   1805027   1804304   1803897  
  8250.000000   1803803   1803917   1804098   1804205   1804153  
  8240.000000   1803910   1803503   1802971   1802354   1801666  
  8230.000000   1800912   1800091   1799216   1798315   1797417  
  8220.000000   1796533   1795649   1794712   1793662   1792439  
  8210.000000   1791032   1789477   1787877   1786362   1785068  
  8200.000000   1784092   1783474   1783179   1783102   1783089  
  8190.000000   1782967   1782583   1781837   1780712   1779286  
  8180.000000   1777707   1776173   1774868   1773923   1773375  
  8170.000000   1773168   1773159   1773170   1773023   1772584  
  8160.000000   1771782   1770605   1769088   1767292   1765298  
  8150.000000   1763187   1761056   1759001   1757112   1755463  
  8140.000000   1754085   1752979   1752103   1751413   1750857  
  8130.000000   1750420   1750096   1749898   1749816   1749809  
  8120.000000   1749797   1749668   1749317   1748655   1747656  
  8110.000000   1746330   1744737   1742947   1741035   1739062  
  8100.000000   1737087   1735171   1733387   1731818   1730546  
  8090.000000   1729626   1729069   1728820   1728767   1728772  
  8080.000000   1728702   1728480   1728103   1727651   1727260  
  8070.000000   1727072   1727182   1727600   1728226   1728877  
  8060.000000   1729327   1729370   1728885   1727855   1726380  
  8050.000000   1724623   1722755   1720900   1719103   1717345  
  8040.000000   1715574   1713774   1711987   1710333   1708962  
  8030.000000   1708012   1707533   1707469   1707651   1707860  
  8020.000000   1707894   1707632   1707072   1706307   1705490  
  8010.000000   1704760   1704206   1703821   1703540   1703245  
  8000.000000   1702829   1702206   1701340   1700230   1698906  
  7990.000000   1697431   1695887   1694396   1693099   1692149  
  7980.000000   1691669   1691715   1692244   1693100   1694044  
  7970.000000   1694800   1695129   1694879   1694031   1692692  
  7960.000000   1691073   1689422   1687982   1686922   1686325  
  7950.000000   1686171   1686362   1686755   1687194   1687550  
  7940.000000   1687730   1687697   1687454   1687038   1686504  
  7930.000000   1685907   1685301   1684718   1684184   1683701  
  7920.000000   1683262   1682842   1682412   1681947   1681437  
  7910.000000   1680901   1680382   1679947   1679656   1679543  
  7900.000000   1679597   1679756   1679931   1680028   1679988  
  7890.000000   1679801   1679515   1679203   1678939   1678753  
  7880.000000   1678629   1678508   1678323   1678040   1677681  
  7870.000000   1677332   1677106   1677107   1677378   1677883  
  7860.000000   1678502   1679076   1679441   1679485   1679171  
  7850.000000   1678542   1677700   1676772   1675882   1675119  
  7840.000000   1674531   1674118   1673836   1673616   1673366  
  7830.000000   1673007   1672477   1671769   1670918   1670016  
  7820.000000   1669171   1668482   1668004   1667722   1667565  
  7810.000000   1667415   1667153   1666691   1665991   1665074  
  7800.000000   1664006   1662879   1661786   1660812   1660022  
  7790.000000   1659456   1659120   1658981   1658962   1658950  
  7780.000000   1658820   1658471   1657857   1657004   1656006  
  7770.000000   1654993   1654081   1653332   1652734   1652217  
  7760.000000   1651681   1651059   1650329   1649545   1648791  
  7750.000000   1648154   1647675   1647333   1647055   1646734  
  7740.000000   1646284   1645647   1644816   1643817   1642688  
  7730.000000   1641477   1640229   1639012   1637910   1637034  
  7720.000000   1636479   1636301   1636471   1636864   1637283  
  7710.000000   1637496   1637313   1636624   1635442   1633874  
  7700.000000   1632100   1630314   1628691   1627355   1626384  
  7690.000000   1625809   1625624   1625788   1626215   1626786  
  7680.000000   1627349   1627763   1627927   1627805   1627451  
  7670.000000   1626960   1626458   1626020   1625672   1625352  
  7660.000000   1624967   1624423   1623684   1622801   1621905  
  7650.000000   1621178   1620788   1620844   1621354   1622235  
  7640.000000   1623323   1624427   1625374   1626041   1626385  
  7630.000000   1626424   1626239   1625923   1625568   1625227  
  7620.000000   1624919   1624629   1624335   1624023   1623707  
  7610.000000   1623432   1623261   1623250   1623423   1623759  
  7600.000000   1624195   1624643   1625027   1625296   1625451  
  7590.000000   1625523   1625571   1625644   1625777   1625976  
  7580.000000   1626237   1626548   1626916   1627350   1627863  
  7570.000000   1628451   1629092   1629735   1630330   1630835  
  7560.000000   1631246   1631584   1631903   1632253   1632680  
  7550.000000   1633206   1633839   1634577   1635430   1636410  
  7540.000000   1637538   1638818   1640237   1641738   1643247  
  7530.000000   1644669   1645932   1646985   1647833   1648511  
  7520.000000   1649096   1649666   1650311   1651094   1652059  
  7510.000000   1653210   1654523   1655941   1657398   1658829  
  7500.000000   1660201   1661516   1662832   1664223   1665773  
  7490.000000   1667522   1669472   1671554   1673678   1675735  
  7480.000000   1677663   1679450   1681150   1682849   1684646  
  7470.000000   1686603   1688742   1691021   1693372   1695708  
  7460.000000   1697970   1700119   1702165   1704139   1706093  
  7450.000000   1708079   1710144   1712319   1714625   1717067  
  7440.000000   1719638   1722310   1725052   1727819   1730572  
  7430.000000   1733275   1735909   1738463   1740943   1743358  
  7420.000000   1745720   1748041   1750332   1752606   1754878  
  7410.000000   1757171   1759503   1761890   1764333   1766813  
  7400.000000   1769297   1771737   1774090   1776321   1778419  
  7390.000000   1780400   1782303   1784184   1786104   1788120  
  7380.000000   1790276   1792601   1795100   1797760   1800545  
  7370.000000   1803398   1806242   1808990   1811566   1813914  
  7360.000000   1816026   1817936   1819732   1821519   1823398  
  7350.000000   1825434   1827644   1830002   1832449   1834934  
  7340.000000   1837428   1839947   1842524   1845200   1847976  
  7330.000000   1850819   1853648   1856365   1858880   1861138  
  7320.000000   1863134   1864908   1866514   1868017   1869460  
  7310.000000   1870880   1872290   1873705   1875129   1876572  
  7300.000000   1878020   1879460   1880851   1882157   1883339  
  7290.000000   1884382   1885285   1886064   1886741   1887341  
  7280.000000   1887886   1888402   1888919   1889473   1890098  
  7270.000000   1890812   1891608   1892450   1893294   1894095  
  7260.000000   1894846   1895569   1896330   1897188   1898193  
  7250.000000   1899333   1900561   1901791   1902960   1904043  
  7240.000000   1905098   1906228   1907569   1909212   1911193  
  7230.000000   1913445   1915860   1918293   1920653   1922896  
  7220.000000   1925071   1927260   1929578   1932100   1934880  
  7210.000000   1937896   1941109   1944431   1947794   1951124  
  7200.000000   1954396   1957599   1960779   1963990   1967325  
  7190.000000   1970853   1974637   1978673   1982929   1987307  
  7180.000000   1991718   1996078   2000375   2004636   2008953  
  7170.000000   2013407   2018074   2022946   2027987   2033092  
  7160.000000   2038189   2043213   2048181   2053138   2058186  
  7150.000000   2063406   2068878   2074620   2080637   2086869  
  7140.000000   2093272   2099765   2106312   2112858   2119406  
  7130.000000   2125947   2132526   2139173   2145960   2152926  
  7120.000000   2160128   2167575   2175280   2183210   2191345  
  7110.000000   2199632   2208041   2216511   2225008   2233472  
  7100.000000   2241880   2250204   2258466   2266692   2274943  
  7090.000000   2283265   2291708   2300290   2309028   2317924  
  7080.000000   2326987   2336219   2345627   2355189   2364856  
  7070.000000   2374541   2384142   2393551   2402701   2411567  
  7060.000000   2420187   2428634   2437011   2445411   2453908  
  7050.000000   2462539   2471306   2480188   2489138   2498111  
  7040.000000   2507055   2515938   2524738   2533461   2542120  
  7030.000000   2550744   2559347   2567937   2576491   2584978  
  7020.000000   2593349   2601574   2609623   2617496   2625196  
  7010.000000   2632746   2640156   2647458   2654668   2661826  
  7000.000000   2668951   2676065   2683142   2690149   2697002  
  6990.000000   2703648   2710034   2716183   2722143   2728014  
  6980.000000   2733862   2739736   2745594   2751369   2756956  
  6970.000000   2762295   2767358   2772199   2776879   2781480  
  6960.000000   2786022   2790503   2794862   2799056   2803046  
  6950.000000   2806853   2810506   2814062   2817533   2820925  
  6940.000000   2824198   2827338   2830327   2833202   2836000  
  6930.000000   2838773   2841524   2844236   2846849   2849314  
  6920.000000   2851593   2853703   2855682   2857597   2859491  
  6910.000000   2861394   2863294   2865182   2867039   2868876  
  6900.000000   2870700   2872521   2874323   2876069   2877701  
  6890.000000   2879172   2880460   2881586   2882604   2883587  
  6880.000000   2884593   2885664   2886805   2888015   2889273  
  6870.000000   2890573   2891896   2893223   2894521   2895752  
  6860.000000   2896879   2897894   2898816   2899691   2900568  
  6850.000000   2901477   2902411   2903329   2904178   2904924  
  6840.000000   2905575   2906193   2906859   2907655   2908610  
  6830.000000   2909705   2910862   2911996   2913034   2913952  
  6820.000000   2914763   2915511   2916231   2916939   2917617  
  6810.000000   2918239   2918770   2919208   2919559   2919847  
  6800.000000   2920081   2920267   2920385   2920426   2920379  
  6790.000000   2920259   2920081   2919861   2919588   2919238  
  6780.000000   2918771   2918173   2917452   2916667   2915891  
  6770.000000   2915207   2914658   2914258   2913969   2913747  
  6760.000000   2913538   2913309   2913035   2912695   2912251  
  6750.000000   2911660   2910881   2909902   2908754   2907516  
  6740.000000   2906287   2905162   2904183   2903344   2902580  
  6730.000000   2901814   2900976   2900038   2899003   2897899  
  6720.000000   2896741   2895527   2894231   2892829   2891319  
  6710.000000   2889736   2888144   2886615   2885193   2883879  
  6700.000000   2882626   2881367   2880037   2878615   2877119  
  6690.000000   2875607   2874140   2872768   2871501   2870325  
  6680.000000   2869197   2868077   2866923   2865703   2864387  
  6670.000000   2862948   2861356   2859602   2857693   2855666  
  6660.000000   2853567   2851450   2849347   2847274   2845221  
  6650.000000   2843178   2841138   2839116   2837126   2835183  
  6640.000000   2833270   2831352   2829375   2827301   2825119  
  6630.000000   2822868   2820618   2818448   2816413   2814522  
  6620.000000   2812730   2810960   2809127   2807171   2805072  
  6610.000000   2802851   2800554   2798232   2795932   2793684  
  6600.000000   2791511   2789423   2787425   2785511   2783660  
  6590.000000   2781837   2780002   2778126   2776197   2774236  
  6580.000000   2772282   2770379   2768563   2766834   2765167  
  6570.000000   2763513   2761819   2760042   2758164   2756193  
  6560.000000   2754161   2752118   2750126   2748250   2746548  
  6550.000000   2745059   2743788   2742696   2741708   2740715  
  6540.000000   2739622   2738356   2736902   2735293   2733605  
  6530.000000   2731918   2730301   2728784   2727377   2726069  
  6520.000000   2724854   2723734   2722718   2721808   2720987  
  6510.000000   2720212   2719428   2718586   2717660   2716656  
  6500.000000   2715612   2714570   2713562   2712593   2711645  
  6490.000000   2710689   2709707   2708701   2707695   2706724  
  6480.000000   2705810   2704954   2704129   2703300   2702431  
  6470.000000   2701509   2700546   2699569   2698609   2697685  
  6460.000000   2696796   2695927   2695052   2694153   2693219  
  6450.000000   2692250   2691254   2690240   2689226   2688227  
  6440.000000   2687264   2686355   2685504   2684696   2683897  
  6430.000000   2683059   2682142   2681128   2680040   2678930  
  6420.000000   2677870   2676917   2676099   2675397   2674766  
  6410.000000   2674154   2673527   2672887   2672261   2671692  
  6400.000000   2671204   2670792   2670417   2670021   2669552  
  6390.000000   2668979   2668304   2667553   2666762   2665961  
  6380.000000   2665163   2664372   2663584   2662802   2662036  
  6370.000000   2661304   2660616   2659978   2659381   2658814  
  6360.000000   2658260   2657715   2657174   2656634   2656083  
  6350.000000   2655498   2654854   2654130   2653318   2652433  
  6340.000000   2651498   2650548   2649603   2648674   2647754  
  6330.000000   2646837   2645916   2644999   2644093   2643208  
  6320.000000   2642337   2641468   2640568   2639619   2638608  
  6310.000000   2637544   2636439   2635314   2634163   2632974  
  6300.000000   2631709   2630343   2628853   2627247   2625536  
  6290.000000   2623746   2621879   2619934   2617892   2615752  
  6280.000000   2613517   2611237   2608959   2606747   2604628  
  6270.000000   2602605   2600635   2598665   2596631   2594495  
  6260.000000   2592237   2589861   2587375   2584791   2582107  
  6250.000000   2579328   2576461   2573534   2570586   2567671  
  6240.000000   2564825   2562073   2559407   2556805   2554225  
  6230.000000   2551631   2548990   2546282   2543498   2540640  
  6220.000000   2537721   2534764   2531805   2528880   2526023  
  6210.000000   2523249   2520551   2517901   2515261   2512597  
  6200.000000   2509891   2507151   2504398   2501659   2498954  
  6190.000000   2496284   2493638   2491003   2488372   2485750  
  6180.000000   2483153   2480595   2478080   2475594   2473115  
  6170.000000   2470615   2468083   2465525   2462967   2460437  
  6160.000000   2457964   2455551   2453192   2450861   2448542  
  6150.000000   2446223   2443911   2441622   2439379   2437197  
  6140.000000   2435085   2433044   2431074   2429173   2427341  
  6130.000000   2425571   2423850   2422153   2420455   2418730  
  6120.000000   2416968   2415171   2413360   2411552   2409770  
  6110.000000   2408019   2406303   2404614   2402958   2401344  
  6100.000000   2399793   2398324   2396953   2395678   2394491  
  6090.000000   2393371   2392307   2391287   2390316   2389392  
  6080.000000   2388526   2387707   2386933   2386186   2385467  
  6070.000000   2384772   2384119   2383516   2382981   2382516  
  6060.000000   2382128   2381811   2381573   2381418   2381364  
  6050.000000   2381414   2381575   2381824   2382144   2382496  
  6040.000000   2382859   2383213   2383562   2383914   2384294  
  6030.000000   2384717   2385206   2385770   2386426   2387179  
  6020.000000   2388038   2388996   2390045   2391155   2392299  
  6010.000000   2393437   2394546   2395605   2396614   2397573  
  6000.000000   2398495   2399379   2400233   2401053   2401850  
  5990.000000   2402633   2403433   2404279   2405212   2406260  
  5980.000000   2407446   2408773   2410232   2411799   2413449  
  5970.000000   2415146   2416872   2418607   2420352   2422110  
  5960.000000   2423898   2425721   2427594   2429508   2431463  
  5950.000000   2433442   2435444   2437464   2439513   2441594  
  5940.000000   2443713   2445860   2448021   2450176   2452312  
  5930.000000   2454427   2456536   2458666   2460845   2463090  
  5920.000000   2465403   2467764   2470144   2472507   2474826  
  5910.000000   2477080   2479263   2481371   2483405   2485369  
  5900.000000   2487277   2489150   2491019   2492918   2494877  
  5890.000000   2496910   2499012   2501164   2503335   2505502  
  5880.000000   2507654   2509787   2511905   2514004   2516071  
  5870.000000   2518078   2520001   2521823   2523554   2525223  
  5860.000000   2526880   2528568   2530324   2532160   2534077  
  5850.000000   2536065   2538123   2540257   2542487   2544825  
  5840.000000   2547279   2549838   2552480   2555176   2557904  
  5830.000000   2560649   2563407   2566174   2568941   2571691  
  5820.000000   2574399   2577046   2579615   2582109   2584527  
  5810.000000   2586870   2589114   2591233   2593173   2594910  
  5800.000000   2596418   2597730   2598878   2599934   2600930  
  5790.000000   2601905   2602833   2603694   2604420   2604970  
  5780.000000   2605287   2605344   2605109   2604582   2603765  
  5770.000000   2602700   2601443   2600089   2598732   2597467  
  5760.000000   2596354   2595419   2594646   2594000   2593434  
  5750.000000   2592920   2592444   2592012   2591638   2591330  
  5740.000000   2591092   2590913   2590791   2590712   2590685  
  5730.000000   2590703   2590775   2590886   2591034   2591199  
  5720.000000   2591383   2591591   2591846   2592172   2592597  
  5710.000000   2593126   2593761   2594483   2595274   2596109  
  5700.000000   2596976   2597860   2598756   2599654   2600548  
  5690.000000   2601434   2602310   2603183   2604054   2604926  
  5680.000000   2605790   2606632   2607428   2608161   2608812  
  5670.000000   2609373   2609830   2610174   2610380   2610428  
  5660.000000   2610299   2609999   2609552   2609020   2608462  
  5650.000000   2607944   2607499   2607134   2606823   2606530  
  5640.000000   2606215   2605860   2605457   2605021   2604559  
  5630.000000   2604085   2603599   2603107   2602615   2602139  
  5620.000000   2601693   2601289   2600917   2600558   2600172  
  5610.000000   2599726   2599196   2598584   2597907   2597198  
  5600.000000   2596480   2595771   2595071   2594372   2593662  
  5590.000000   2592938   2592190   2591419   2590606   2589734  
  5580.000000   2588779   2587729   2586587   2585380   2584142  
  5570.000000   2582906   2581687   2580476   2579246   2577965  
  5560.000000   2576611   2575189   2573720   2572241   2570779  
  5550.000000   2569351   2567951   2566566   2565185   2563809  
  5540.000000   2562454   2561144   2559895   2558711   2557577  
  5530.000000   2556468   2555358   2554234   2553098   2551960  
  5520.000000   2550836   2549733   2548650   2547578   2546504  
  5510.000000   2545418   2544311   2543178   2542011   2540802  
  5500.000000   2539545   2538247   2536924   2535609   2534327  
  5490.000000   2533097   2531905   2530714   2529465   2528110  
  5480.000000   2526610   2524967   2523203   2521363   2519478  
  5470.000000   2517574   2515648   2513693   2511690   2509639  
  5460.000000   2507540   2505402   2503219   2500982   2498668  
  5450.000000   2496267   2493780   2491234   2488677   2486162  
  5440.000000   2483731   2481403   2479176   2477034   2474964  
  5430.000000   2472952   2470998   2469094   2467230   2465378  
  5420.000000   2463524   2461656   2459806   2458018   2456373  
  5410.000000   2454923   2453707   2452699   2451866   2451140  
  5400.000000   2450491   2449893   2449374   2448949   2448661  
  5390.000000   2448508   2448504   2448625   2448890   2449305  
  5380.000000   2449923   2450763   2451859   2453176   2454695  
  5370.000000   2456339   2458088   2459895   2461798   2463798  
  5360.000000   2465968   2468311   2470895   2473713   2476838  
  5350.000000   2480274   2484108   2488340   2493036   2498152  
  5340.000000   2503720   2509674   2516062   2522847   2530114  
  5330.000000   2537836   2546086   2554799   2564019   2573665  
  5320.000000   2583807   2594413   2605618   2617431   2630004  
  5310.000000   2643316   2657470   2672384   2688121   2704589  
  5300.000000   2721869   2739912   2758846   2778663   2799507  
  5290.000000   2821352   2844277   2868169   2892996   2918568  
  5280.000000   2944824   2971633   2999040   3027051   3055799  
  5270.000000   3085314   3115615   3146555   3177924   3209447  
  5260.000000   3240887   3272108   3303075   3333857   3364501  
  5250.000000   3395042   3425345   3455261   3484494   3512889  
  5240.000000   3540254   3566652   3592089   3616779   3640759  
  5230.000000   3664185   3686961   3709094   3730375   3750771  
  5220.000000   3770109   3788463   3805784   3822254   3837884  
  5210.000000   3852852   3867103   3880706   3893503   3905502  
  5200.000000   3916549   3926722   3935969   3944448   3952144  
  5190.000000   3959188   3965504   3971152   3976022   3980178  
  5180.000000   3983560   3986288   3988340   3989828   3990695  
  5170.000000   3990999   3990657   3989729   3988179   3986115  
  5160.000000   3983540   3980563   3977161   3973393   3969205  
  5150.000000   3964646   3959686   3954401   3948788   3942914  
  5140.000000   3936760   3930361   3923686   3916778   3909634  
  5130.000000   3902325   3894865   3887308   3879643   3871885  
  5120.000000   3864004   3856021   3847939   3839813   3831667  
  5110.000000   3823539   3815419   3807292   3799111   3790852  
  5100.000000   3782495   3774064   3765589   3757126   3748707  
  5090.000000   3740363   3732090   3723882   3715715   3707574  
  5080.000000   3699438   3691298   3683138   3674953   3666730  
  5070.000000   3658475   3650190   3641892   3633591   3625298  
  5060.000000   3617007   3608713   3600401   3592065   3583705  
  5050.000000   3575335   3566973   3558636   3550335   3542067  
  5040.000000   3533826   3525600   3517385   3509183   3501013  
  5030.000000   3492888   3484837   3476869   3469006   3461249  
  5020.000000   3453618   3446113   3438762   3431565   3424548  
  5010.000000   3417700   3411038   3404542   3398231   3392092  
  5000.000000   3386164   3380444   3374985   3369785   3364894  
  4990.000000   3360296   3356033   3352082   3348481   3345205  
  4980.000000   3342289   3339702   3337474   3335567   3334014  
  4970.000000   3332782   3331918   3331399   3331280   3331534  
  4960.000000   3332207   3333257   3334718   3336542   3338764  
  4950.000000   3341343   3344321   3347661   3351405   3355516  
  4940.000000   3360028   3364902   3370169   3375786   3381776  
  4930.000000   3388088   3394733   3401650   3408849   3416278  
  4920.000000   3423956   3431852   3439995   3448361   3456972  
  4910.000000   3465798   3474848   3484086   3493517   3503108  
  4900.000000   3512866   3522769   3532822   3543008   3553326  
  4890.000000   3563753   3574273   3584851   3595453   3606042  
  4880.000000   3616585   3627057   3637441   3647735   3657925  
  4870.000000   3668010   3677963   3687769   3697388   3706812  
  4860.000000   3716015   3725017   3733818   3742458   3750942  
  4850.000000   3759307   3767542   3775673   3783675   3791560  
  4840.000000   3799294   3806875   3814257   3821436   3828370  
  4830.000000   3835070   3841521   3847759   3853782   3859624  
  4820.000000   3865266   3870718   3875941   3880936   3885673  
  4810.000000   3890174   3894433   3898489   3902348   3906046  
  4800.000000   3909582   3912988   3916258   3919425   3922483  
  4790.000000   3925460   3928343   3931152   3933871   3936519  
  4780.000000   3939085   3941594   3944031   3946404   3948678  
  4770.000000   3950834   3952817   3954609   3956169   3957507  
  4760.000000   3958614   3959527   3960246   3960805   3961190  
  4750.000000   3961420   3961466   3961340   3961014   3960504  
  4740.000000   3959790   3958893   3957800   3956537   3955092  
  4730.000000   3953486   3951701   3949746   3947595   3945252  
  4720.000000   3942700   3939961   3937042   3933988   3930825  
  4710.000000   3927602   3924338   3921063   3917778   3914498  
  4700.000000   3911214   3907936   3904660   3901393   3898130  
  4690.000000   3894875   3891616   3888349   3885058   3881733  
  4680.000000   3878359   3874927   3871430   3867865   3864242  
  4670.000000   3860573   3856880   3853180   3849496   3845836  
  4660.000000   3842215   3838636   3835117   3831672   3828336  
  4650.000000   3825138   3822116   3819286   3816663   3814230  
  4640.000000   3811971   3809847   3807833   3805898   3804032  
  4630.000000   3802220   3800468   3798769   3797132   3795550  
  4620.000000   3794028   3792555   3791127   3789724   3788332  
  4610.000000   3786927   3785497   3784031   3782541   3781045  
  4600.000000   3779575   3778161   3776826   3775578   3774407  
  4590.000000   3773294   3772215   3771150   3770087   3769025  
  4580.000000   3767966   3766913   3765862   3764808   3763734  
  4570.000000   3762627   3761471   3760257   3758975   3757622  
  4560.000000   3756195   3754697   3753130   3751506   3749837  
  4550.000000   3748136   3746413   3744666   3742893   3741085  
  4540.000000   3739246   3737381   3735525   3733708   3731983  
  4530.000000   3730375   3728923   3727619   3726478   3725472  
  4520.000000   3724627   3723926   3723429   3723139   3723134  
  4510.000000   3723413   3724056   3725051   3726481   3728338  
  4500.000000   3730717   3733618   3737140   3741274   3746109  
  4490.000000   3751618   3757878   3764846   3772586   3781040  
  4480.000000   3790250   3800138   3810721   3821910   3833712  
  4470.000000   3846041   3858905   3872228   3886014   3900191  
  4460.000000   3914753   3929626   3944788   3960160   3975702  
  4450.000000   3991335   4007008   4022657   4038239   4053724  
  4440.000000   4069080   4084301   4099348   4114218   4128855  
  4430.000000   4143260   4157367   4171199   4184690   4197870  
  4420.000000   4210653   4223049   4234930   4246283   4256950  
  4410.000000   4266914   4276022   4284271   4291524   4297798  
  4400.000000   4302984   4307127   4310166   4312190   4313196  
  4390.000000   4313314   4312590   4311174   4309141   4306646  
  4380.000000   4303785   4300711   4297540   4294423   4291485  
  4370.000000   4288861   4286670   4285012   4283980   4283624  
  4360.000000   4283995   4285082   4286888   4289345   4292410  
  4350.000000   4295990   4300029   4304458   4309259   4314409  
  4340.000000   4319924   4325782   4331952   4338318   4344714  
  4330.000000   4350894   4356590   4361535   4365535   4368502  
  4320.000000   4370484   4371665   4372308   4372737   4373213  
  4310.000000   4373964   4375065   4376542   4378287   4380210  
  4300.000000   4382156   4384044   4385768   4387291   4388554  
  4290.000000   4389541   4390216   4390573   4390606   4390338  
  4280.000000   4389792   4389028   4388093   4387075   4386032  
  4270.000000   4385061   4384212   4383539   4383020   4382604  
  4260.000000   4382156   4381527   4380539   4379068   4377038  
  4250.000000   4374474   4371472   4368198   4364830   4361541  
  4240.000000   4358448   4355621   4353062   4350740   4348587  
  4230.000000   4346540   4344528   4342497   4340405   4338219  
  4220.000000   4335929   4333532   4331056   4328526   4326000  
  4210.000000   4323516   4321137   4318895   4316840   4314992  
  4200.000000   4313384   4312013   4310890   4309979   4309266  
  4190.000000   4308688   4308230   4307836   4307530   4307293  
  4180.000000   4307195   4307250   4307556   4308139   4309111  
  4170.000000   4310507   4312444   4314955   4318136   4321972  
  4160.000000   4326505   4331653   4337412   4343678   4350459  
  4150.000000   4357685   4365408   4373584   4382274   4391426  
  4140.000000   4401083   4411181   4421764   4432788   4444316  
  4130.000000   4456318   4468852   4481876   4495417   4509413  
  4120.000000   4523875   4538747   4554044   4569723   4585801  
  4110.000000   4602231   4619021   4636118   4653521   4671180  
  4100.000000   4689094   4707217   4725544   4744033   4762673  
  4090.000000   4781433   4800308   4819284   4838361   4857548  
  4080.000000   4876848   4896279   4915837   4935534   4955337  
  4070.000000   4975230   4995136   5015020   5034790   5054427  
  4060.000000   5073855   5093091   5112061   5130778   5149137  
  4050.000000   5167132   5184631   5201643   5218043   5233866  
  4040.000000   5248984   5263427   5277040   5289843   5301677  
  4030.000000   5312587   5322435   5331276   5338976   5345561  
  4020.000000   5350860   5354927   5357714   5359355   5359827  
  4010.000000   5359368   5358110   5356145   5353239   5349515  
  4000.000000   5345374  
##END= 
