##TITLE= Sample 039 By ssteindl date Donnerstag, November 22 2018
##JCAMP-DX= 4.24
##DATA TYPE= INFRARED SPECTRUM
##ORIGIN= Exported PE Spectrum Data File
##OWNER= Sandra Steindl
##DATE= 18/11/22
##TIME= 12:17:13.00
##SPECTROMETER/DATA SYSTEM= PERKIN-ELMER Frontier FT-IR/NIR IR
##INSTRUMENT PARAMETERS=
  APODIZATION=stark
  DETECTOR=INGAAS
##RESOLUTION= 16.000000
##DELTAX= -2.000000
##XUNITS= 1/CM
##YUNITS= A
##XFACTOR= 1.00
##YFACTOR= 0.00000011920928955078
##FIRSTX= 10000.00
##LASTX= 4000.00
##NPOINTS= 3001
##FIRSTY= 0.206735
##MAXY= 0.662765
##MINY= 0.179074
##XYDATA= (X++(Y..Y))
 10000.000000   1734219   1728915   1725488   1726384   1731789  
  9990.000000   1739981   1749207   1758079   1765245   1769553  
  9980.000000   1770754   1769329   1766040   1761674   1757104  
  9970.000000   1753192   1750668   1750084   1751641   1755088  
  9960.000000   1759624   1764134   1767352   1768341   1766672  
  9950.000000   1762610   1756980   1750851   1745243   1740753  
  9940.000000   1737541   1735307   1733545   1731747   1729591  
  9930.000000   1727090   1724511   1722376   1721190   1721415  
  9920.000000   1723227   1726526   1730896   1735651   1740044  
  9910.000000   1743338   1745082   1745067   1743411   1740351  
  9900.000000   1736208   1731240   1725750   1720102   1714870  
  9890.000000   1710775   1708548   1708701   1711234   1715617  
  9880.000000   1720837   1725787   1729610   1732014   1733334  
  9870.000000   1734319   1735764   1738105   1741217   1744485  
  9860.000000   1747096   1748461   1748447   1747472   1746196  
  9850.000000   1745266   1744901   1744876   1744568   1743303  
  9840.000000   1740649   1736563   1731396   1725631   1719678  
  9830.000000   1713717   1707725   1701689   1695762   1690436  
  9820.000000   1686406   1684402   1684846   1687685   1692337  
  9810.000000   1697845   1703178   1707436   1710111   1710999  
  9800.000000   1710241   1708083   1704898   1701089   1697159  
  9790.000000   1693699   1691299   1690466   1691385   1693906  
  9780.000000   1697449   1701229   1704404   1706329   1706699  
  9770.000000   1705508   1703014   1699484   1695156   1690147  
  9760.000000   1684607   1678807   1673273   1668750   1666040  
  9750.000000   1665802   1668228   1672985   1679144   1685492  
  9740.000000   1690802   1694224   1695482   1694888   1693169  
  9730.000000   1691151   1689478   1688399   1687784   1687234  
  9720.000000   1686334   1684821   1682667   1680029   1677078  
  9710.000000   1673914   1670480   1666674   1662468   1658042  
  9700.000000   1653799   1650274   1647928   1646982   1647296  
  9690.000000   1648467   1649972   1651420   1652684   1653895  
  9680.000000   1655307   1657030   1658913   1660456   1661061  
  9670.000000   1660192   1657735   1653974   1649619   1645466  
  9660.000000   1642206   1640162   1639296   1639292   1639778  
  9650.000000   1640505   1641438   1642731   1644581   1647123  
  9640.000000   1650304   1653956   1657829   1661749   1665610  
  9630.000000   1669405   1673092   1676584   1679663   1682085  
  9620.000000   1683586   1684001   1683248   1681319   1678267  
  9610.000000   1674128   1668988   1662950   1656203   1649013  
  9600.000000   1641673   1634511   1627790   1621824   1616926  
  9590.000000   1613550   1612158   1613186   1616759   1622561  
  9580.000000   1629715   1636927   1642816   1646258   1646797  
  9570.000000   1644657   1640732   1636131   1631885   1628532  
  9560.000000   1626093   1624146   1622162   1619786   1617006  
  9550.000000   1614137   1611587   1609677   1608438   1607675  
  9540.000000   1607072   1606395   1605621   1604928   1604625  
  9530.000000   1604972   1606070   1607813   1609936   1612139  
  9520.000000   1614186   1615947   1617393   1618482   1619160  
  9510.000000   1619295   1618789   1617591   1615783   1613541  
  9500.000000   1611094   1608657   1606382   1604405   1602836  
  9490.000000   1601861   1601648   1602350   1603945   1606229  
  9480.000000   1608781   1611085   1612654   1613171   1612584  
  9470.000000   1611077   1609001   1606720   1604500   1602464  
  9460.000000   1600631   1598997   1597601   1596517   1595809  
  9450.000000   1595447   1595270   1595021   1594397   1593186  
  9440.000000   1591299   1588879   1586231   1583816   1582089  
  9430.000000   1581436   1582030   1583817   1586468   1589424  
  9420.000000   1591977   1593376   1593031   1590619   1586248  
  9410.000000   1580389   1573824   1567387   1561812   1557524  
  9400.000000   1554647   1553048   1552479   1552723   1553605  
  9390.000000   1555039   1556903   1559050   1561280   1563397  
  9380.000000   1565316   1567040   1568711   1570414   1572146  
  9370.000000   1573677   1574657   1574743   1573794   1572010  
  9360.000000   1569872   1568053   1567117   1567365   1568647  
  9350.000000   1570463   1572104   1572946   1572618   1571092  
  9340.000000   1568593   1565467   1562037   1558533   1555115  
  9330.000000   1551936   1549200   1547135   1545917   1545557  
  9320.000000   1545853   1546417   1546796   1546647   1545873  
  9310.000000   1544629   1543274   1542148   1541503   1541359  
  9300.000000   1541600   1542013   1542439   1542837   1543280  
  9290.000000   1543899   1544777   1545920   1547270   1548767  
  9280.000000   1550386   1552110   1553875   1555504   1556700  
  9270.000000   1557124   1556495   1554774   1552218   1549424  
  9260.000000   1547115   1545916   1546074   1547379   1549241  
  9250.000000   1550876   1551580   1550909   1548804   1545527  
  9240.000000   1541532   1537305   1533267   1529772   1527136  
  9230.000000   1525671   1525627   1527109   1529970   1533787  
  9220.000000   1537919   1541636   1544322   1545626   1545569  
  9210.000000   1544446   1542705   1540758   1538937   1537459  
  9200.000000   1536477   1536116   1536458   1537536   1539213  
  9190.000000   1541181   1542930   1543918   1543734   1542270  
  9180.000000   1539778   1536754   1533777   1531287   1529477  
  9170.000000   1528267   1527424   1526739   1526160   1525844  
  9160.000000   1526037   1526933   1528506   1530497   1532465  
  9150.000000   1533946   1534617   1534406   1533531   1532360  
  9140.000000   1531294   1530611   1530429   1530707   1531279  
  9130.000000   1531937   1532448   1532625   1532291   1531367  
  9120.000000   1529866   1527987   1526067   1524513   1523652  
  9110.000000   1523570   1524067   1524623   1524600   1523429  
  9100.000000   1520902   1517207   1512917   1508792   1505569  
  9090.000000   1503743   1503439   1504496   1506575   1509352  
  9080.000000   1512549   1515996   1519553   1523057   1526277  
  9070.000000   1528909   1530702   1531480   1531254   1530114  
  9060.000000   1528228   1525742   1522801   1519571   1516258  
  9050.000000   1513212   1510842   1509570   1509594   1510858  
  9040.000000   1512976   1515354   1517311   1518304   1518070  
  9030.000000   1516664   1514400   1511697   1509007   1506662  
  9020.000000   1504908   1503841   1503491   1503750   1504404  
  9010.000000   1505129   1505583   1505497   1504802   1503697  
  9000.000000   1502638   1502181   1502781   1504600   1507443  
  8990.000000   1510813   1514102   1516829   1518806   1520170  
  8980.000000   1521233   1522317   1523553   1524841   1525898  
  8970.000000   1526433   1526320   1525651   1524698   1523744  
  8960.000000   1522913   1522120   1521082   1519525   1517334  
  8950.000000   1514724   1512180   1510310   1509579   1510141  
  8940.000000   1511753   1513876   1515850   1517138   1517494  
  8930.000000   1517001   1515984   1514855   1513976   1513558  
  8920.000000   1513660   1514213   1515081   1516075   1516999  
  8910.000000   1517631   1517793   1517369   1516372   1514960  
  8900.000000   1513400   1511991   1510951   1510383   1510253  
  8890.000000   1510477   1510970   1511740   1512870   1514447  
  8880.000000   1516445   1518631   1520612   1521880   1522041  
  8870.000000   1520901   1518628   1515648   1512575   1509983  
  8860.000000   1508298   1507722   1508252   1509770   1512087  
  8850.000000   1515034   1518413   1522006   1525525   1528673  
  8840.000000   1531209   1533020   1534174   1534857   1535335  
  8830.000000   1535785   1536267   1536665   1536800   1536511  
  8820.000000   1535758   1534673   1533488   1532492   1531875  
  8810.000000   1531735   1532046   1532757   1533826   1535253  
  8800.000000   1537039   1539124   1541340   1543396   1544966  
  8790.000000   1545782   1545788   1545163   1544309   1543696  
  8780.000000   1543710   1544521   1546024   1547919   1549823  
  8770.000000   1551433   1552629   1553489   1554231   1555070  
  8760.000000   1556125   1557326   1558470   1559279   1559545  
  8750.000000   1559213   1558448   1557603   1557136   1557478  
  8740.000000   1558903   1561443   1564877   1568776   1572632  
  8730.000000   1575960   1578456   1580026   1580825   1581163  
  8720.000000   1581427   1581952   1582963   1584534   1586614  
  8710.000000   1589080   1591777   1594583   1597397   1600165  
  8700.000000   1602828   1605328   1607594   1609538   1611094  
  8690.000000   1612193   1612816   1612964   1612695   1612124  
  8680.000000   1611433   1610869   1610697   1611168   1612436  
  8670.000000   1614538   1617350   1620619   1623995   1627126  
  8660.000000   1629730   1631665   1632948   1633744   1634329  
  8650.000000   1635015   1636088   1637719   1639934   1642578  
  8640.000000   1645361   1647915   1649912   1651146   1651597  
  8630.000000   1651448   1651022   1650698   1650785   1651450  
  8620.000000   1652692   1654379   1656329   1658377   1660428  
  8610.000000   1662450   1664442   1666389   1668239   1669913  
  8600.000000   1671348   1672541   1673584   1674637   1675896  
  8590.000000   1677508   1679541   1681929   1684521   1687102  
  8580.000000   1689477   1691495   1693081   1694232   1695022  
  8570.000000   1695595   1696142   1696900   1698101   1699932  
  8560.000000   1702468   1705643   1709244   1712955   1716430  
  8550.000000   1719375   1721610   1723096   1723916   1724231  
  8540.000000   1724239   1724150   1724172   1724504   1725303  
  8530.000000   1726669   1728584   1730908   1733362   1735619  
  8520.000000   1737376   1738466   1738894   1738839   1738583  
  8510.000000   1738400   1738478   1738860   1739485   1740234  
  8500.000000   1741024   1741831   1742702   1743701   1744851  
  8490.000000   1746117   1747402   1748615   1749715   1750765  
  8480.000000   1751919   1753357   1755216   1757507   1760108  
  8470.000000   1762770   1765199   1767126   1768388   1768955  
  8460.000000   1768925   1768499   1767943   1767539   1767534  
  8450.000000   1768105   1769320   1771114   1773279   1775524  
  8440.000000   1777537   1779089   1780090   1780627   1780939  
  8430.000000   1781329   1782061   1783264   1784905   1786799  
  8420.000000   1788691   1790342   1791615   1792511   1793146  
  8410.000000   1793711   1794385   1795289   1796434   1797746  
  8400.000000   1799082   1800283   1801216   1801815   1802091  
  8390.000000   1802134   1802075   1802054   1802167   1802454  
  8380.000000   1802869   1803319   1803692   1803915   1803974  
  8370.000000   1803931   1803886   1803943   1804160   1804530  
  8360.000000   1804986   1805425   1805751   1805895   1805838  
  8350.000000   1805593   1805194   1804681   1804109   1803553  
  8340.000000   1803117   1802929   1803095   1803675   1804633  
  8330.000000   1805837   1807085   1808168   1808939   1809359  
  8320.000000   1809495   1809482   1809459   1809504   1809612  
  8310.000000   1809711   1809708   1809554   1809269   1808940  
  8300.000000   1808672   1808534   1808514   1808517   1808396  
  8290.000000   1808025   1807343   1806385   1805269   1804164  
  8280.000000   1803238   1802624   1802394   1802556   1803070  
  8270.000000   1803848   1804758   1805624   1806243   1806435  
  8260.000000   1806104   1805281   1804141   1802963   1802058  
  8250.000000   1801664   1801849   1802486   1803281   1803908  
  8240.000000   1804102   1803788   1803068   1802200   1801469  
  8230.000000   1801082   1801061   1801241   1801318   1800982  
  8220.000000   1800024   1798419   1796323   1794034   1791874  
  8210.000000   1790108   1788842   1788023   1787450   1786870  
  8200.000000   1786047   1784839   1783220   1781283   1779194  
  8190.000000   1777148   1775305   1773750   1772479   1771408  
  8180.000000   1770408   1769340   1768104   1766651   1764998  
  8170.000000   1763215   1761400   1759654   1758050   1756621  
  8160.000000   1755363   1754236   1753185   1752151   1751082  
  8150.000000   1749947   1748740   1747484   1746228   1745033  
  8140.000000   1743953   1743010   1742188   1741416   1740602  
  8130.000000   1739643   1738474   1737079   1735516   1733884  
  8120.000000   1732312   1730913   1729762   1728881   1728251  
  8110.000000   1727824   1727543   1727359   1727225   1727109  
  8100.000000   1726975   1726800   1726574   1726307   1726034  
  8090.000000   1725791   1725596   1725414   1725157   1724684  
  8080.000000   1723853   1722569   1720836   1718772   1716593  
  8070.000000   1714554   1712876   1711696   1711013   1710731  
  8060.000000   1710667   1710651   1710541   1710287   1709906  
  8050.000000   1709460   1709016   1708591   1708161   1707623  
  8040.000000   1706863   1705750   1704216   1702253   1699954  
  8030.000000   1697494   1695110   1693059   1691556   1690739  
  8020.000000   1690625   1691121   1692034   1693135   1694200  
  8010.000000   1695065   1695638   1695905   1695903   1695682  
  8000.000000   1695296   1694760   1694086   1693254   1692261  
  7990.000000   1691096   1689768   1688300   1686730   1685138  
  7980.000000   1683623   1682328   1681385   1680907   1680924  
  7970.000000   1681378   1682109   1682901   1683531   1683832  
  7960.000000   1683730   1683252   1682507   1681615   1680683  
  7950.000000   1679743   1678783   1677740   1676572   1675262  
  7940.000000   1673856   1672439   1671113   1669972   1669076  
  7930.000000   1668459   1668129   1668092   1668351   1668902  
  7920.000000   1669715   1670721   1671810   1672829   1673632  
  7910.000000   1674093   1674159   1673842   1673234   1672460  
  7900.000000   1671665   1670963   1670429   1670084   1669911  
  7890.000000   1669870   1669913   1670003   1670110   1670224  
  7880.000000   1670337   1670453   1670580   1670733   1670937  
  7870.000000   1671211   1671566   1671982   1672404   1672744  
  7860.000000   1672897   1672781   1672363   1671692   1670890  
  7850.000000   1670131   1669579   1669341   1669416   1669699  
  7840.000000   1670006   1670143   1669959   1669408   1668538  
  7830.000000   1667484   1666400   1665420   1664612   1663986  
  7820.000000   1663503   1663109   1662759   1662427   1662087  
  7810.000000   1661710   1661245   1660637   1659842   1658853  
  7800.000000   1657715   1656516   1655363   1654346   1653515  
  7790.000000   1652875   1652396   1652041   1651783   1651616  
  7780.000000   1651538   1651528   1651533   1651460   1651203  
  7770.000000   1650679   1649869   1648833   1647706   1646657  
  7760.000000   1645840   1645348   1645189   1645295   1645546  
  7750.000000   1645821   1646019   1646093   1646037   1645874  
  7740.000000   1645636   1645343   1644999   1644592   1644104  
  7730.000000   1643517   1642823   1642023   1641131   1640177  
  7720.000000   1639192   1638218   1637289   1636433   1635657  
  7710.000000   1634951   1634290   1633639   1632972   1632275  
  7700.000000   1631560   1630855   1630213   1629683   1629313  
  7690.000000   1629124   1629107   1629216   1629380   1629514  
  7680.000000   1629545   1629434   1629187   1628854   1628514  
  7670.000000   1628239   1628076   1628016   1628008   1627961  
  7660.000000   1627786   1627418   1626845   1626097   1625247  
  7650.000000   1624373   1623545   1622807   1622180   1621673  
  7640.000000   1621293   1621053   1620971   1621059   1621317  
  7630.000000   1621727   1622261   1622877   1623546   1624236  
  7620.000000   1624928   1625593   1626208   1626738   1627163  
  7610.000000   1627474   1627695   1627873   1628077   1628364  
  7600.000000   1628776   1629309   1629929   1630570   1631161  
  7590.000000   1631642   1631983   1632187   1632298   1632384  
  7580.000000   1632531   1632818   1633312   1634046   1635016  
  7570.000000   1636170   1637426   1638674   1639814   1640762  
  7560.000000   1641485   1641988   1642325   1642567   1642810  
  7550.000000   1643130   1643604   1644273   1645166   1646280  
  7540.000000   1647594   1649061   1650626   1652225   1653810  
  7530.000000   1655350   1656852   1658344   1659877   1661489  
  7520.000000   1663217   1665055   1666979   1668931   1670849  
  7510.000000   1672668   1674352   1675883   1677286   1678608  
  7500.000000   1679925   1681306   1682814   1684471   1686263  
  7490.000000   1688137   1690027   1691876   1693662   1695408  
  7480.000000   1697184   1699073   1701147   1703425   1705879  
  7470.000000   1708409   1710905   1713241   1715352   1717213  
  7460.000000   1718869   1720397   1721913   1723531   1725362  
  7450.000000   1727493   1729990   1732880   1736146   1739713  
  7440.000000   1743450   1747187   1750761   1754038   1756958  
  7430.000000   1759542   1761892   1764155   1766480   1768972  
  7420.000000   1771672   1774553   1777536   1780527   1783445  
  7410.000000   1786246   1788917   1791472   1793924   1796275  
  7400.000000   1798509   1800608   1802566   1804415   1806234  
  7390.000000   1808138   1810249   1812666   1815423   1818487  
  7380.000000   1821743   1825040   1828228   1831198   1833915  
  7370.000000   1836399   1838719   1840940   1843115   1845254  
  7360.000000   1847352   1849396   1851404   1853426   1855540  
  7350.000000   1857831   1860353   1863115   1866058   1869088  
  7340.000000   1872099   1875009   1877775   1880393   1882886  
  7330.000000   1885281   1887594   1889833   1892000   1894107  
  7320.000000   1896174   1898239   1900330   1902473   1904660  
  7310.000000   1906872   1909058   1911176   1913177   1915035  
  7300.000000   1916730   1918258   1919621   1920834   1921917  
  7290.000000   1922903   1923820   1924703   1925572   1926451  
  7280.000000   1927359   1928332   1929411   1930646   1932064  
  7270.000000   1933659   1935375   1937104   1938723   1940113  
  7260.000000   1941226   1942072   1942753   1943400   1944158  
  7250.000000   1945123   1946347   1947817   1949501   1951360  
  7240.000000   1953383   1955569   1957930   1960433   1963024  
  7230.000000   1965592   1968046   1970301   1972363   1974279  
  7220.000000   1976184   1978199   1980453   1983001   1985863  
  7210.000000   1988998   1992359   1995884   1999546   2003324  
  7200.000000   2007230   2011267   2015450   2019764   2024201  
  7190.000000   2028710   2033255   2037763   2042200   2046527  
  7180.000000   2050767   2054963   2059210   2063590   2068187  
  7170.000000   2073020   2078077   2083278   2088553   2093816  
  7160.000000   2099049   2104247   2109459   2114723   2120090  
  7150.000000   2125585   2131253   2137123   2143263   2149711  
  7140.000000   2156504   2163598   2170914   2178297   2185619  
  7130.000000   2192760   2199708   2206507   2213297   2220203  
  7120.000000   2227354   2234778   2242460   2250309   2258252  
  7110.000000   2266223   2274232   2282307   2290511   2298871  
  7100.000000   2307397   2316049   2324785   2333557   2342361  
  7090.000000   2351199   2360107   2369095   2378163   2387266  
  7080.000000   2396353   2405355   2414229   2422951   2431544  
  7070.000000   2440048   2448525   2457033   2465619   2474305  
  7060.000000   2483091   2491957   2500877   2509826   2518794  
  7050.000000   2527782   2536798   2545845   2554901   2563925  
  7040.000000   2572854   2581644   2590279   2598804   2607301  
  7030.000000   2615882   2624621   2633532   2642530   2651464  
  7020.000000   2660144   2668422   2676219   2683573   2690594  
  7010.000000   2697450   2704278   2711182   2718180   2725255  
  7000.000000   2732349   2739423   2746434   2753372   2760203  
  6990.000000   2766911   2773447   2779794   2785934   2791900  
  6980.000000   2797726   2803466   2809138   2814740   2820223  
  6970.000000   2825546   2830659   2835569   2840294   2844895  
  6960.000000   2849413   2853891   2858324   2862712   2867024  
  6950.000000   2871263   2875419   2879510   2883529   2887478  
  6940.000000   2891325   2895053   2898630   2902059   2905338  
  6930.000000   2908490   2911520   2914445   2917260   2919973  
  6920.000000   2922582   2925106   2927548   2929922   2932223  
  6910.000000   2934458   2936624   2938749   2940860   2943007  
  6900.000000   2945210   2947478   2949771   2952038   2954213  
  6890.000000   2956261   2958174   2959985   2961731   2963440  
  6880.000000   2965112   2966713   2968202   2969549   2970755  
  6870.000000   2971861   2972926   2974013   2975158   2976379  
  6860.000000   2977667   2979026   2980466   2982017   2983702  
  6850.000000   2985517   2987414   2989300   2991065   2992614  
  6840.000000   2993900   2994940   2995799   2996570   2997332  
  6830.000000   2998138   2999001   2999914   3000855   3001813  
  6820.000000   3002765   3003695   3004562   3005324   3005934  
  6810.000000   3006373   3006652   3006824   3006953   3007103  
  6800.000000   3007308   3007575   3007879   3008202   3008526  
  6790.000000   3008856   3009189   3009518   3009801   3009984  
  6780.000000   3010010   3009859   3009550   3009152   3008746  
  6770.000000   3008397   3008117   3007873   3007594   3007221  
  6760.000000   3006728   3006147   3005535   3004960   3004445  
  6750.000000   3003971   3003472   3002880   3002149   3001283  
  6740.000000   3000327   2999345   2998385   2997462   2996555  
  6730.000000   2995631   2994667   2993676   2992696   2991782  
  6720.000000   2990966   2990248   2989590   2988941   2988252  
  6710.000000   2987508   2986721   2985919   2985124   2984335  
  6700.000000   2983522   2982646   2981667   2980571   2979362  
  6690.000000   2978064   2976693   2975265   2973779   2972246  
  6680.000000   2970680   2969119   2967601   2966159   2964792  
  6670.000000   2963477   2962162   2960810   2959399   2957954  
  6660.000000   2956512   2955125   2953811   2952556   2951308  
  6650.000000   2950004   2948590   2947043   2945368   2943592  
  6640.000000   2941737   2939822   2937847   2935825   2933777  
  6630.000000   2931753   2929803   2927975   2926273   2924663  
  6620.000000   2923063   2921388   2919564   2917563   2915405  
  6610.000000   2913151   2910870   2908627   2906458   2904377  
  6600.000000   2902377   2900442   2898550   2896676   2894791  
  6590.000000   2892870   2890897   2888882   2886862   2884894  
  6580.000000   2883038   2881329   2879763   2878292   2876846  
  6570.000000   2875351   2873764   2872077   2870319   2868528  
  6560.000000   2866737   2864957   2863184   2861416   2859667  
  6550.000000   2857974   2856389   2854948   2853655   2852470  
  6540.000000   2851320   2850131   2848859   2847509   2846132  
  6530.000000   2844794   2843555   2842425   2841378   2840347  
  6520.000000   2839274   2838121   2836894   2835626   2834367  
  6510.000000   2833155   2832008   2830929   2829911   2828955  
  6500.000000   2828072   2827267   2826536   2825843   2825132  
  6490.000000   2824331   2823390   2822293   2821072   2819796  
  6480.000000   2818550   2817407   2816408   2815560   2814839  
  6470.000000   2814206   2813622   2813051   2812462   2811824  
  6460.000000   2811109   2810290   2809357   2808321   2807217  
  6450.000000   2806094   2805010   2804006   2803110   2802321  
  6440.000000   2801624   2800990   2800386   2799777   2799135  
  6430.000000   2798437   2797676   2796862   2796028   2795218  
  6420.000000   2794486   2793867   2793371   2792976   2792638  
  6410.000000   2792300   2791922   2791481   2790986   2790457  
  6400.000000   2789921   2789388   2788858   2788318   2787759  
  6390.000000   2787177   2786590   2786022   2785501   2785043  
  6380.000000   2784649   2784307   2783997   2783704   2783419  
  6370.000000   2783143   2782886   2782654   2782448   2782261  
  6360.000000   2782073   2781857   2781583   2781223   2780758  
  6350.000000   2780186   2779520   2778796   2778057   2777353  
  6340.000000   2776713   2776153   2775657   2775204   2774760  
  6330.000000   2774310   2773847   2773380   2772906   2772418  
  6320.000000   2771879   2771247   2770478   2769560   2768509  
  6310.000000   2767380   2766237   2765136   2764093   2763086  
  6300.000000   2762052   2760929   2759660   2758232   2756657  
  6290.000000   2754985   2753259   2751526   2749805   2748117  
  6280.000000   2746464   2744862   2743310   2741809   2740326  
  6270.000000   2738815   2737207   2735441   2733474   2731308  
  6260.000000   2728982   2726569   2724146   2721782   2719508  
  6250.000000   2717326   2715208   2713121   2711031   2708930  
  6240.000000   2706822   2704731   2702678   2700681   2698735  
  6230.000000   2696817   2694879   2692866   2690731   2688442  
  6220.000000   2686005   2683455   2680851   2678263   2675745  
  6210.000000   2673327   2671006   2668762   2666563   2664391  
  6200.000000   2662239   2660119   2658041   2656006   2653999  
  6190.000000   2651987   2649935   2647816   2645627   2643381  
  6180.000000   2641109   2638838   2636591   2634379   2632209  
  6170.000000   2630088   2628030   2626053   2624167   2622365  
  6160.000000   2620622   2618893   2617131   2615299   2613388  
  6150.000000   2611412   2609406   2607405   2605436   2603508  
  6140.000000   2601615   2599745   2597893   2596058   2594248  
  6130.000000   2592467   2590717   2588989   2587273   2585564  
  6120.000000   2583873   2582215   2580617   2579092   2577646  
  6110.000000   2576262   2574922   2573601   2572290   2570987  
  6100.000000   2569711   2568474   2567290   2566161   2565088  
  6090.000000   2564064   2563092   2562170   2561309   2560502  
  6080.000000   2559748   2559032   2558344   2557672   2557022  
  6070.000000   2556393   2555794   2555220   2554669   2554129  
  6060.000000   2553605   2553105   2552665   2552315   2552092  
  6050.000000   2552002   2552040   2552169   2552356   2552567  
  6040.000000   2552797   2553053   2553360   2553735   2554193  
  6030.000000   2554723   2555318   2555961   2556655   2557398  
  6020.000000   2558202   2559057   2559952   2560851   2561729  
  6010.000000   2562564   2563359   2564135   2564927   2565762  
  6000.000000   2566657   2567605   2568596   2569612   2570656  
  5990.000000   2571736   2572879   2574096   2575396   2576757  
  5980.000000   2578156   2579556   2580948   2582328   2583723  
  5970.000000   2585158   2586666   2588261   2589963   2591773  
  5960.000000   2593709   2595777   2597993   2600350   2602836  
  5950.000000   2605405   2608018   2610624   2613202   2615739  
  5940.000000   2618256   2620776   2623329   2625932   2628593  
  5930.000000   2631311   2634083   2636905   2639769   2642662  
  5920.000000   2645561   2648431   2651234   2653936   2656518  
  5910.000000   2658976   2661320   2663569   2665736   2667836  
  5900.000000   2669879   2671881   2673864   2675860   2677899  
  5890.000000   2680007   2682187   2684431   2686718   2689025  
  5880.000000   2691337   2693648   2695957   2698255   2700528  
  5870.000000   2702744   2704876   2706903   2708830   2710685  
  5860.000000   2712520   2714384   2716320   2718348   2720470  
  5850.000000   2722674   2724952   2727296   2729709   2732191  
  5840.000000   2734739   2737340   2739978   2742637   2745315  
  5830.000000   2748021   2750773   2753581   2756443   2759336  
  5820.000000   2762223   2765064   2767826   2770496   2773071  
  5810.000000   2775561   2777964   2780279   2782486   2784584  
  5800.000000   2786562   2788453   2790269   2792051   2793794  
  5790.000000   2795499   2797111   2798593   2799873   2800915  
  5780.000000   2801668   2802111   2802211   2801962   2801358  
  5770.000000   2800434   2799243   2797884   2796456   2795066  
  5760.000000   2793784   2792652   2791670   2790824   2790088  
  5750.000000   2789454   2788916   2788482   2788150   2787908  
  5740.000000   2787739   2787618   2787538   2787493   2787503  
  5730.000000   2787573   2787717   2787918   2788162   2788422  
  5720.000000   2788692   2788970   2789279   2789634   2790051  
  5710.000000   2790522   2791035   2791571   2792124   2792700  
  5700.000000   2793324   2794019   2794797   2795651   2796550  
  5690.000000   2797461   2798348   2799197   2800003   2800777  
  5680.000000   2801517   2802219   2802854   2803397   2803816  
  5670.000000   2804099   2804237   2804237   2804097   2803819  
  5660.000000   2803394   2802827   2802131   2801348   2800522  
  5650.000000   2799708   2798934   2798212   2797523   2796844  
  5640.000000   2796148   2795428   2794689   2793952   2793230  
  5630.000000   2792526   2791831   2791133   2790422   2789705  
  5620.000000   2789000   2788330   2787708   2787133   2786583  
  5610.000000   2786031   2785449   2784824   2784155   2783456  
  5600.000000   2782738   2782005   2781252   2780472   2779655  
  5590.000000   2778808   2777938   2777057   2776166   2775255  
  5580.000000   2774298   2773276   2772171   2770990   2769749  
  5570.000000   2768478   2767197   2765919   2764638   2763344  
  5560.000000   2762028   2760696   2759359   2758034   2756729  
  5550.000000   2755443   2754159   2752860   2751533   2750184  
  5540.000000   2748833   2747505   2746220   2744983   2743784  
  5530.000000   2742600   2741411   2740203   2738977   2737742  
  5520.000000   2736507   2735280   2734060   2732845   2731636  
  5510.000000   2730440   2729261   2728108   2726976   2725853  
  5500.000000   2724720   2723566   2722384   2721187   2719989  
  5490.000000   2718805   2717628   2716436   2715192   2713863  
  5480.000000   2712427   2710890   2709269   2707599   2705901  
  5470.000000   2704188   2702445   2700661   2698818   2696916  
  5460.000000   2694961   2692964   2690927   2688844   2686698  
  5450.000000   2684476   2682176   2679818   2677438   2675081  
  5440.000000   2672786   2670575   2668462   2666446   2664529  
  5430.000000   2662707   2660979   2659322   2657714   2656111  
  5420.000000   2654497   2652864   2651258   2649736   2648389  
  5410.000000   2647262   2646383   2645704   2645176   2644720  
  5400.000000   2644312   2643940   2643653   2643488   2643503  
  5390.000000   2643700   2644085   2644621   2645307   2646127  
  5380.000000   2647116   2648278   2649640   2651170   2652860  
  5370.000000   2654648   2656537   2658497   2660577   2662779  
  5360.000000   2665168   2667732   2670523   2673523   2676803  
  5350.000000   2680379   2684361   2688779   2693731   2699195  
  5340.000000   2705213   2711713   2718721   2726166   2734094  
  5330.000000   2742436   2751239   2760424   2770042   2780039  
  5320.000000   2790525   2801510   2813163   2825510   2838698  
  5310.000000   2852682   2867526   2883111   2899466   2916486  
  5300.000000   2934253   2952736   2972084   2992314   3013582  
  5290.000000   3035874   3059263   3083628   3108919   3134934  
  5280.000000   3161598   3188774   3216508   3244811   3273825  
  5270.000000   3303587   3334122   3365286   3396872   3428608  
  5260.000000   3460270   3491740   3523011   3554186   3585340  
  5250.000000   3616525   3647613   3678435   3708668   3738121  
  5240.000000   3766573   3794058   3820576   3846334   3871377  
  5230.000000   3895858   3919691   3942877   3965212   3986661  
  5220.000000   4007068   4026516   4044984   4062675   4079629  
  5210.000000   4096034   4111843   4127109   4141649   4155432  
  5200.000000   4168275   4180229   4191237   4201462   4210909  
  5190.000000   4219729   4227863   4235374   4242148   4248234  
  5180.000000   4253556   4258219   4262195   4265594   4268361  
  5170.000000   4270556   4272092   4273022   4273299   4273022  
  5160.000000   4272188   4270907   4269156   4267002   4264391  
  5150.000000   4261370   4257904   4254059   4249826   4245274  
  5140.000000   4240385   4235213   4229741   4224037   4218117  
  5130.000000   4212068   4205913   4199709   4193435   4187091  
  5120.000000   4180625   4174033   4167294   4160442   4153497  
  5110.000000   4146502   4139469   4132419   4125342   4118252  
  5100.000000   4111149   4104059   4096992   4089966   4082966  
  5090.000000   4075984   4068986   4061963   4054901   4047813  
  5080.000000   4040703   4033585   4026444   4019268   4012019  
  5070.000000   4004679   3997222   3989650   3981962   3974174  
  5060.000000   3966286   3958310   3950238   3942085   3933853  
  5050.000000   3925575   3917266   3908959   3900660   3892379  
  5040.000000   3884101   3875819   3867518   3859192   3850839  
  5030.000000   3842460   3834061   3825646   3817230   3808825  
  5020.000000   3800459   3792154   3783945   3775849   3767891  
  5010.000000   3760067   3752390   3744852   3737477   3730268  
  5000.000000   3723269   3716493   3709984   3703737   3697781  
  4990.000000   3692087   3686674   3681510   3676623   3671987  
  4980.000000   3667640   3663560   3659785   3656291   3653123  
  4970.000000   3650262   3647762   3645608   3643853   3642467  
  4960.000000   3641488   3640868   3640634   3640739   3641220  
  4950.000000   3642041   3643245   3644795   3646726   3648985  
  4940.000000   3651595   3654506   3657749   3661292   3665184  
  4930.000000   3669403   3673992   3678913   3684188   3689761  
  4920.000000   3695640   3701774   3708181   3714832   3721761  
  4910.000000   3728954   3736445   3744214   3752275   3760593  
  4900.000000   3769160   3777931   3786892   3796002   3805251  
  4890.000000   3814609   3824063   3833582   3843142   3852709  
  4880.000000   3862249   3871733   3881134   3890435   3899610  
  4870.000000   3908643   3917501   3926169   3934612   3942835  
  4860.000000   3950826   3958617   3966213   3973652   3980931  
  4850.000000   3988069   3995039   4001849   4008469   4014915  
  4840.000000   4021171   4027269   4033204   4039012   4044690  
  4830.000000   4050270   4055742   4061120   4066373   4071492  
  4820.000000   4076424   4081153   4085640   4089896   4093923  
  4810.000000   4097765   4101445   4105004   4108447   4111790  
  4800.000000   4115020   4118152   4121189   4124168   4127107  
  4790.000000   4130043   4132972   4135896   4138777   4141597  
  4780.000000   4144317   4146932   4149426   4151812   4154079  
  4770.000000   4156235   4158261   4160160   4161912   4163532  
  4760.000000   4165010   4166363   4167575   4168651   4169559  
  4750.000000   4170301   4170853   4171234   4171443   4171515  
  4740.000000   4171451   4171274   4170963   4170519   4169909  
  4730.000000   4169135   4168174   4167042   4165737   4164287  
  4720.000000   4162696   4160992   4159184   4157300   4155346  
  4710.000000   4153349   4151316   4149265   4147197   4145125  
  4700.000000   4143045   4140967   4138887   4136809   4134725  
  4690.000000   4132631   4130513   4128362   4126168   4123925  
  4680.000000   4121630   4119280   4116875   4114414   4111899  
  4670.000000   4109334   4106736   4104122   4101524   4098967  
  4660.000000   4096483   4094089   4091805   4089637   4087599  
  4650.000000   4085692   4083933   4082321   4080870   4079573  
  4640.000000   4078435   4077441   4076594   4075881   4075307  
  4630.000000   4074858   4074527   4074287   4074114   4073967  
  4620.000000   4073820   4073640   4073417   4073139   4072811  
  4610.000000   4072432   4072011   4071550   4071061   4070556  
  4600.000000   4070057   4069588   4069166   4068805   4068500  
  4590.000000   4068242   4068004   4067771   4067522   4067251  
  4580.000000   4066947   4066611   4066229   4065791   4065275  
  4570.000000   4064670   4063962   4063155   4062251   4061268  
  4560.000000   4060210   4059090   4057903   4056650   4055322  
  4550.000000   4053920   4052436   4050874   4049229   4047507  
  4540.000000   4045711   4043854   4041960   4040052   4038167  
  4530.000000   4036321   4034540   4032815   4031158   4029551  
  4520.000000   4028023   4026575   4025274   4024144   4023268  
  4510.000000   4022663   4022402   4022477   4022957   4023828  
  4500.000000   4025174   4026996   4029393   4032373   4036034  
  4490.000000   4040373   4045471   4051302   4057916   4065248  
  4480.000000   4073303   4081966   4091198   4100863   4110918  
  4470.000000   4121254   4131866   4142694   4153768   4165054  
  4460.000000   4176580   4188300   4200214   4212260   4224415  
  4450.000000   4236625   4248877   4261146   4273439   4285760  
  4440.000000   4298117   4310517   4322948   4335405   4347855  
  4430.000000   4360295   4372683   4385032   4397294   4409481  
  4420.000000   4421515   4433381   4444955   4456193   4466944  
  4410.000000   4477155   4486675   4495463   4503382   4510412  
  4400.000000   4516450   4521514   4525561   4528670   4530870  
  4390.000000   4532300   4533042   4533262   4533054   4532568  
  4380.000000   4531884   4531119   4530331   4529614   4529025  
  4370.000000   4528649   4528554   4528812   4529492   4530636  
  4360.000000   4532282   4534425   4537054   4540118   4543563  
  4350.000000   4547320   4551335   4555568   4560005   4564657  
  4340.000000   4569543   4574671   4580007   4585454   4590833  
  4330.000000   4595898   4600362   4603950   4606455   4607801  
  4320.000000   4608052   4607433   4606254   4604896   4603676  
  4310.000000   4602863   4602567   4602822   4603523   4604552  
  4300.000000   4605735   4606948   4608070   4609039   4609810  
  4290.000000   4610373   4610737   4610925   4610975   4610932  
  4280.000000   4610840   4610749   4610692   4610716   4610837  
  4270.000000   4611094   4611479   4611991   4612556   4613084  
  4260.000000   4613420   4613402   4612860   4611681   4609813  
  4250.000000   4607308   4604289   4600951   4597501   4594144  
  4240.000000   4591019   4588222   4585760   4583605   4581675  
  4230.000000   4579888   4578146   4576371   4574495   4572467  
  4220.000000   4570263   4567872   4565326   4562661   4559959  
  4210.000000   4557287   4554744   4552390   4550294   4548478  
  4200.000000   4546966   4545736   4544777   4544040   4543511  
  4190.000000   4543136   4542918   4542818   4542870   4543057  
  4180.000000   4543435   4543996   4544808   4545866   4547245  
  4170.000000   4548952   4551084   4553663   4556790   4560475  
  4160.000000   4564785   4569678   4575172   4581178   4587691  
  4150.000000   4594620   4601981   4609709   4617849   4626360  
  4140.000000   4635307   4644662   4654501   4664801   4675638  
  4130.000000   4686983   4698894   4711327   4724317   4737812  
  4120.000000   4751836   4766341   4781351   4796818   4812758  
  4110.000000   4829114   4845889   4863021   4880503   4898273  
  4100.000000   4916317   4934574   4953021   4971608   4990313  
  4090.000000   5009107   5027981   5046929   5065952   5085065  
  4080.000000   5104269   5123589   5143010   5162540   5182122  
  4070.000000   5201721   5221230   5240597   5259707   5278543  
  4060.000000   5297029   5315193   5332967   5350375   5367318  
  4050.000000   5383808   5399738   5415159   5429996   5444331  
  4040.000000   5458074   5471264   5483736   5495478   5506304  
  4030.000000   5516231   5525129   5533077   5539990   5545940  
  4020.000000   5550799   5554622   5557346   5559054   5559677  
  4010.000000   5559391   5558298   5556472   5553700   5550115  
  4000.000000   5546122  
##END= 
