##TITLE= Sample 010 By ssteindl date Donnerstag, November 22 2018
##JCAMP-DX= 4.24
##DATA TYPE= INFRARED SPECTRUM
##ORIGIN= Exported PE Spectrum Data File
##OWNER= Sandra Steindl
##DATE= 18/11/22
##TIME= 12:47:36.00
##SPECTROMETER/DATA SYSTEM= PERKIN-ELMER Frontier FT-IR/NIR IR
##INSTRUMENT PARAMETERS=
  APODIZATION=stark
  DETECTOR=INGAAS
##RESOLUTION= 16.000000
##DELTAX= -2.000000
##XUNITS= 1/CM
##YUNITS= A
##XFACTOR= 1.00
##YFACTOR= 0.00000011920928955078
##FIRSTX= 10000.00
##LASTX= 4000.00
##NPOINTS= 3001
##FIRSTY= 0.218183
##MAXY= 0.696735
##MINY= 0.185296
##XYDATA= (X++(Y..Y))
 10000.000000   1830250   1827385   1825398   1825339   1827078  
  9990.000000   1829697   1832467   1834965   1836724   1837180  
  9980.000000   1836091   1833440   1829377   1824110   1818086  
  9970.000000   1811863   1806070   1801279   1797939   1796277  
  9960.000000   1796262   1797673   1800138   1803286   1806743  
  9950.000000   1810227   1813479   1816322   1818640   1820408  
  9940.000000   1821725   1822736   1823641   1824518   1825349  
  9930.000000   1825884   1825775   1824603   1822069   1818099  
  9920.000000   1812923   1807076   1801289   1796377   1793047  
  9910.000000   1791807   1792795   1795824   1800289   1805390  
  9900.000000   1810189   1813944   1816232   1817126   1817115  
  9890.000000   1816899   1817111   1817953   1819150   1819903  
  9880.000000   1819296   1816549   1811405   1804219   1795853  
  9870.000000   1787453   1780071   1774494   1771087   1769904  
  9860.000000   1770762   1773371   1777304   1781991   1786657  
  9850.000000   1790414   1792493   1792471   1790572   1787558  
  9840.000000   1784611   1782772   1782624   1783984   1786035  
  9830.000000   1787681   1788026   1786825   1784534   1782212  
  9820.000000   1780952   1781509   1783869   1787337   1790781  
  9810.000000   1793101   1793643   1792324   1789583   1786036  
  9800.000000   1782188   1778235   1774102   1769642   1764877  
  9790.000000   1760137   1756002   1753118   1751883   1752315  
  9780.000000   1753955   1756096   1758001   1759189   1759571  
  9770.000000   1759367   1758973   1758664   1758496   1758228  
  9760.000000   1757501   1755993   1753670   1750814   1748005  
  9750.000000   1745880   1744874   1745050   1746023   1747141  
  9740.000000   1747734   1747387   1746143   1744446   1742979  
  9730.000000   1742351   1742808   1744145   1745759   1746960  
  9720.000000   1747283   1746753   1745892   1745518   1746319  
  9710.000000   1748516   1751628   1754632   1756351   1755906  
  9700.000000   1753134   1748579   1743312   1738446   1734700  
  9690.000000   1732182   1730426   1728761   1726698   1724267  
  9680.000000   1722000   1720718   1721050   1723153   1726492  
  9670.000000   1730111   1732923   1734183   1733702   1731853  
  9660.000000   1729370   1726954   1725057   1723659   1722433  
  9650.000000   1720841   1718458   1715032   1710588   1705345  
  9640.000000   1699638   1693905   1688661   1684546   1682250  
  9630.000000   1682378   1685224   1690551   1697534   1704873  
  9620.000000   1711138   1715172   1716459   1715253   1712500  
  9610.000000   1709463   1707337   1706843   1708075   1710532  
  9600.000000   1713367   1715713   1716928   1716778   1715334  
  9590.000000   1712930   1709909   1706596   1703218   1699959  
  9580.000000   1697022   1694586   1692793   1691635   1690902  
  9570.000000   1690239   1689211   1687555   1685264   1682731  
  9560.000000   1680607   1679616   1680275   1682613   1686149  
  9550.000000   1689915   1692836   1693990   1692945   1689825  
  9540.000000   1685225   1680018   1675069   1671106   1668585  
  9530.000000   1667750   1668622   1671063   1674696   1678901  
  9520.000000   1682771   1685271   1685484   1682912   1677745  
  9510.000000   1670835   1663533   1657181   1652748   1650452  
  9500.000000   1649848   1650043   1650168   1649738   1648780  
  9490.000000   1647777   1647290   1647730   1649100   1651135  
  9480.000000   1653468   1655898   1658481   1661429   1664894  
  9470.000000   1668688   1672219   1674578   1674933   1672819  
  9460.000000   1668448   1662561   1656208   1650293   1645300  
  9450.000000   1641250   1637835   1634833   1632272   1630629  
  9440.000000   1630531   1632524   1636649   1642361   1648625  
  9430.000000   1654238   1658248   1660119   1659868   1657815  
  9420.000000   1654482   1650343   1645862   1641507   1637815  
  9410.000000   1635381   1634639   1635739   1638295   1641538  
  9400.000000   1644454   1646232   1646501   1645484   1643802  
  9390.000000   1642113   1640772   1639623   1638162   1635798  
  9380.000000   1632272   1627813   1623149   1619204   1616717  
  9370.000000   1615916   1616421   1617477   1618289   1618404  
  9360.000000   1617803   1616859   1616070   1615826   1616265  
  9350.000000   1617270   1618623   1620098   1621576   1622936  
  9340.000000   1623992   1624369   1623593   1621269   1617357  
  9330.000000   1612349   1607213   1603090   1600879   1600900  
  9320.000000   1602779   1605594   1608212   1609727   1609749  
  9310.000000   1608494   1606571   1604691   1603369   1602804  
  9300.000000   1602926   1603528   1604434   1605524   1606732  
  9290.000000   1607925   1608866   1609233   1608733   1607263  
  9280.000000   1604990   1602349   1599898   1598103   1597181  
  9270.000000   1597048   1597414   1597935   1598339   1598516  
  9260.000000   1598489   1598345   1598137   1597852   1597432  
  9250.000000   1596850   1596159   1595499   1595050   1594928  
  9240.000000   1595140   1595563   1596016   1596321   1596362  
  9230.000000   1596097   1595531   1594695   1593604   1592298  
  9220.000000   1590846   1589418   1588236   1587534   1587423  
  9210.000000   1587850   1588583   1589296   1589677   1589511  
  9200.000000   1588726   1587350   1585460   1583097   1580304  
  9190.000000   1577134   1573786   1570605   1568043   1566514  
  9180.000000   1566200   1566978   1568408   1569927   1571054  
  9170.000000   1571622   1571834   1572131   1572950   1574452  
  9160.000000   1576425   1578305   1579440   1579357   1578007  
  9150.000000   1575777   1573326   1571336   1570225   1570044  
  9140.000000   1570490   1571119   1571574   1571690   1571500  
  9130.000000   1571101   1570529   1569685   1568358   1566393  
  9120.000000   1563846   1561097   1558779   1557556   1557875  
  9110.000000   1559771   1562848   1566334   1569359   1571201  
  9100.000000   1571556   1570499   1568423   1565864   1563383  
  9090.000000   1561450   1560371   1560344   1561481   1563815  
  9080.000000   1567201   1571334   1575712   1579756   1582871  
  9070.000000   1584615   1584798   1583524   1581165   1578188  
  9060.000000   1575067   1572148   1569635   1567589   1565943  
  9050.000000   1564633   1563594   1562850   1562421   1562364  
  9040.000000   1562699   1563408   1564406   1565507   1566490  
  9030.000000   1567070   1567011   1566124   1564401   1562017  
  9020.000000   1559367   1556975   1555375   1554992   1555997  
  9010.000000   1558278   1561408   1564817   1567914   1570266  
  9000.000000   1571679   1572206   1572102   1571636   1570999  
  8990.000000   1570186   1569077   1567473   1565271   1562550  
  8980.000000   1559625   1556983   1555107   1554371   1554881  
  8970.000000   1556487   1558803   1561365   1563777   1565780  
  8960.000000   1567278   1568277   1568834   1568992   1568782  
  8950.000000   1568259   1567574   1566960   1566702   1567031  
  8940.000000   1568033   1569585   1571340   1572856   1573713  
  8930.000000   1573683   1572793   1571313   1569669   1568281  
  8920.000000   1567433   1567185   1567374   1567708   1567867  
  8910.000000   1567646   1567003   1566086   1565169   1564567  
  8900.000000   1564521   1565111   1566208   1567485   1568529  
  8890.000000   1568932   1568471   1567146   1565241   1563220  
  8880.000000   1561609   1560819   1561006   1562052   1563613  
  8870.000000   1565287   1566759   1567921   1568881   1569873  
  8860.000000   1571117   1572658   1574333   1575778   1576602  
  8850.000000   1576507   1575453   1573677   1571655   1569949  
  8840.000000   1569031   1569178   1570413   1572541   1575208  
  8830.000000   1578010   1580584   1582655   1584074   1584803  
  8820.000000   1584928   1584623   1584151   1583792   1583810  
  8810.000000   1584364   1585481   1587059   1588895   1590782  
  8800.000000   1592554   1594153   1595613   1597020   1598442  
  8790.000000   1599866   1601180   1602193   1602731   1602711  
  8780.000000   1602221   1601520   1600976   1600958   1601705  
  8770.000000   1603246   1605370   1607687   1609758   1611225  
  8760.000000   1611954   1612040   1611796   1611604   1611811  
  8750.000000   1612586   1613903   1615568   1617325   1618977  
  8740.000000   1620476   1621949   1623635   1625782   1628526  
  8730.000000   1631816   1635405   1638905   1641899   1644047  
  8720.000000   1645193   1645400   1644932   1644193   1643612  
  8710.000000   1643559   1644249   1645717   1647800   1650194  
  8700.000000   1652532   1654474   1655803   1656456   1656537  
  8690.000000   1656256   1655867   1655587   1655569   1655881  
  8680.000000   1656563   1657642   1659180   1661228   1663788  
  8670.000000   1666758   1669917   1672955   1675546   1677453  
  8660.000000   1678634   1679252   1679663   1680272   1681434  
  8650.000000   1683309   1685862   1688849   1691938   1694792  
  8640.000000   1697173   1698993   1700311   1701322   1702282  
  8630.000000   1703481   1705166   1707522   1710628   1714429  
  8620.000000   1718717   1723158   1727347   1730897   1733511  
  8610.000000   1735068   1735639   1735479   1734960   1734497  
  8600.000000   1734455   1735083   1736456   1738467   1740841  
  8590.000000   1743214   1745204   1746536   1747102   1747024  
  8580.000000   1746618   1746317   1746528   1747501   1749248  
  8570.000000   1751549   1754067   1756453   1758494   1760149  
  8560.000000   1761543   1762871   1764276   1765784   1767296  
  8550.000000   1768657   1769778   1770692   1771601   1772772  
  8540.000000   1774423   1776604   1779135   1781683   1783865  
  8530.000000   1785436   1786384   1786964   1787595   1788695  
  8520.000000   1790495   1792956   1795766   1798456   1800562  
  8510.000000   1801777   1802064   1801621   1800822   1800060  
  8500.000000   1799652   1799745   1800305   1801172   1802143  
  8490.000000   1803061   1803862   1804611   1805461   1806631  
  8480.000000   1808310   1810606   1813493   1816788   1820216  
  8470.000000   1823424   1826113   1828068   1829251   1829764  
  8460.000000   1829833   1829748   1829792   1830200   1831102  
  8450.000000   1832552   1834526   1836944   1839655   1842461  
  8440.000000   1845135   1847441   1849164   1850159   1850414  
  8430.000000   1850049   1849315   1848530   1848030   1848095  
  8420.000000   1848885   1850435   1852623   1855263   1858104  
  8410.000000   1860930   1863555   1865877   1867854   1869489  
  8400.000000   1870785   1871723   1872258   1872332   1871913  
  8390.000000   1871031   1869815   1868474   1867250   1866360  
  8380.000000   1865895   1865835   1866011   1866222   1866270  
  8370.000000   1866095   1865771   1865505   1865526   1866000  
  8360.000000   1866950   1868214   1869502   1870462   1870825  
  8350.000000   1870463   1869442   1867975   1866371   1864930  
  8340.000000   1863878   1863323   1863249   1863556   1864094  
  8330.000000   1864715   1865291   1865747   1866059   1866254  
  8320.000000   1866392   1866540   1866751   1867026   1867326  
  8310.000000   1867563   1867645   1867516   1867181   1866732  
  8300.000000   1866302   1866059   1866117   1866523   1867205  
  8290.000000   1868014   1868748   1869213   1869259   1868811  
  8280.000000   1867879   1866545   1864944   1863234   1861561  
  8270.000000   1860053   1858778   1857766   1856989   1856407  
  8260.000000   1855970   1855656   1855455   1855377   1855396  
  8250.000000   1855443   1855379   1855034   1854254   1852970  
  8240.000000   1851253   1849297   1847387   1845795   1844689  
  8230.000000   1844062   1843721   1843365   1842691   1841519  
  8220.000000   1839863   1837925   1836025   1834494   1833557  
  8210.000000   1833267   1833492   1833980   1834447   1834676  
  8200.000000   1834564   1834134   1833496   1832796   1832161  
  8190.000000   1831662   1831295   1830979   1830590   1829976  
  8180.000000   1829006   1827602   1825760   1823584   1821248  
  8170.000000   1819002   1817071   1815634   1814728   1814275  
  8160.000000   1814071   1813880   1813477   1812724   1811572  
  8150.000000   1810061   1808271   1806279   1804138   1801865  
  8140.000000   1799480   1797008   1794519   1792089   1789803  
  8130.000000   1787705   1785799   1784062   1782465   1781019  
  8120.000000   1779773   1778822   1778252   1778105   1778340  
  8110.000000   1778830   1779397   1779840   1780015   1779813  
  8100.000000   1779214   1778212   1776838   1775107   1773047  
  8090.000000   1770714   1768217   1765743   1763524   1761815  
  8080.000000   1760804   1760584   1761091   1762126   1763372  
  8070.000000   1764462   1765054   1764880   1763817   1761883  
  8060.000000   1759268   1756284   1753325   1750781   1748957  
  8050.000000   1748009   1747900   1748427   1749269   1750091  
  8040.000000   1750615   1750687   1750285   1749493   1748439  
  8030.000000   1747246   1746000   1744745   1743522   1742380  
  8020.000000   1741405   1740688   1740295   1740218   1740348  
  8010.000000   1740500   1740451   1740022   1739133   1737836  
  8000.000000   1736301   1734759   1733436   1732483   1731947  
  7990.000000   1731767   1731812   1731926   1731975   1731875  
  7980.000000   1731598   1731170   1730641   1730074   1729526  
  7970.000000   1729033   1728620   1728276   1727983   1727697  
  7960.000000   1727375   1726978   1726483   1725898   1725257  
  7950.000000   1724626   1724085   1723715   1723580   1723714  
  7940.000000   1724098   1724674   1725340   1725977   1726473  
  7930.000000   1726739   1726744   1726492   1726034   1725420  
  7920.000000   1724693   1723866   1722939   1721921   1720860  
  7910.000000   1719857   1719063   1718634   1718678   1719203  
  7900.000000   1720091   1721124   1722038   1722609   1722725  
  7890.000000   1722417   1721852   1721260   1720863   1720800  
  7880.000000   1721088   1721634   1722282   1722870   1723283  
  7870.000000   1723476   1723461   1723284   1722990   1722607  
  7860.000000   1722139   1721586   1720954   1720272   1719588  
  7850.000000   1718961   1718446   1718087   1717905   1717901  
  7840.000000   1718049   1718300   1718577   1718782   1718818  
  7830.000000   1718606   1718124   1717426   1716637   1715937  
  7820.000000   1715498   1715441   1715783   1716432   1717203  
  7810.000000   1717877   1718262   1718237   1717783   1716966  
  7800.000000   1715908   1714745   1713587   1712518   1711581  
  7790.000000   1710813   1710236   1709871   1709716   1709737  
  7780.000000   1709848   1709927   1709825   1709409   1708591  
  7770.000000   1707355   1705773   1703977   1702148   1700472  
  7760.000000   1699096   1698112   1697528   1697284   1697259  
  7750.000000   1697317   1697332   1697218   1696946   1696531  
  7740.000000   1696014   1695431   1694797   1694097   1693312  
  7730.000000   1692436   1691512   1690625   1689894   1689409  
  7720.000000   1689206   1689215   1689285   1689213   1688829  
  7710.000000   1688049   1686927   1685635   1684423   1683539  
  7700.000000   1683155   1683325   1683976   1684944   1686025  
  7690.000000   1687031   1687827   1688337   1688549   1688480  
  7680.000000   1688183   1687710   1687128   1686499   1685883  
  7670.000000   1685320   1684831   1684420   1684078   1683811  
  7660.000000   1683641   1683620   1683797   1684203   1684816  
  7650.000000   1685555   1686292   1686883   1687221   1687254  
  7640.000000   1687019   1686606   1686142   1685740   1685479  
  7630.000000   1685382   1685436   1685603   1685849   1686151  
  7620.000000   1686499   1686883   1687284   1687671   1688009  
  7610.000000   1688262   1688418   1688479   1688480   1688458  
  7600.000000   1688465   1688539   1688712   1689002   1689409  
  7590.000000   1689916   1690492   1691092   1691677   1692209  
  7580.000000   1692683   1693110   1693528   1693973   1694476  
  7570.000000   1695038   1695648   1696279   1696924   1697600  
  7560.000000   1698360   1699274   1700405   1701784   1703398  
  7550.000000   1705183   1707056   1708925   1710730   1712436  
  7540.000000   1714043   1715548   1716950   1718225   1719357  
  7530.000000   1720330   1721176   1721957   1722776   1723727  
  7520.000000   1724882   1726254   1727798   1729426   1731047  
  7510.000000   1732595   1734071   1735523   1737042   1738709  
  7500.000000   1740578   1742639   1744835   1747072   1749274  
  7490.000000   1751394   1753449   1755490   1757603   1759848  
  7480.000000   1762252   1764776   1767346   1769857   1772228  
  7470.000000   1774414   1776437   1778367   1780308   1782366  
  7460.000000   1784619   1787096   1789780   1792596   1795450  
  7450.000000   1798233   1800861   1803277   1805477   1807500  
  7440.000000   1809440   1811404   1813504   1815815   1818367  
  7430.000000   1821136   1824051   1827027   1829987   1832894  
  7420.000000   1835754   1838604   1841493   1844446   1847457  
  7410.000000   1850479   1853449   1856303   1859008   1861558  
  7400.000000   1863986   1866336   1868652   1870972   1873326  
  7390.000000   1875747   1878272   1880942   1883781   1886790  
  7380.000000   1889920   1893088   1896194   1899160   1901958  
  7370.000000   1904623   1907241   1909905   1912684   1915579  
  7360.000000   1918524   1921412   1924131   1926619   1928883  
  7350.000000   1931007   1933118   1935346   1937766   1940391  
  7340.000000   1943160   1945978   1948748   1951406   1953932  
  7330.000000   1956339   1958651   1960890   1963050   1965120  
  7320.000000   1967081   1968939   1970726   1972509   1974360  
  7310.000000   1976348   1978491   1980765   1983086   1985353  
  7300.000000   1987457   1989334   1990962   1992380   1993652  
  7290.000000   1994862   1996068   1997301   1998554   1999800  
  7280.000000   2001007   2002156   2003240   2004269   2005258  
  7270.000000   2006217   2007153   2008070   2008981   2009912  
  7260.000000   2010904   2011994   2013217   2014583   2016088  
  7250.000000   2017706   2019427   2021235   2023145   2025155  
  7240.000000   2027272   2029457   2031673   2033852   2035972  
  7230.000000   2038029   2040099   2042268   2044653   2047321  
  7220.000000   2050308   2053574   2057064   2060692   2064413  
  7210.000000   2068193   2072049   2075987   2080028   2084154  
  7200.000000   2088356   2092603   2096909   2101287   2105793  
  7190.000000   2110451   2115290   2120268   2125333   2130392  
  7180.000000   2135382   2140254   2145024   2149731   2154455  
  7170.000000   2159260   2164222   2169373   2174751   2180341  
  7160.000000   2186131   2192057   2198062   2204065   2210028  
  7150.000000   2215933   2221840   2227833   2234047   2240569  
  7140.000000   2247459   2254670   2262118   2269666   2277225  
  7130.000000   2284734   2292225   2299749   2307397   2315203  
  7120.000000   2323186   2331284   2339444   2347583   2355672  
  7110.000000   2363687   2371655   2379596   2387561   2395589  
  7100.000000   2403756   2412134   2420811   2429832   2439203  
  7090.000000   2448838   2458605   2468328   2477868   2487142  
  7080.000000   2496172   2505049   2513915   2522892   2532063  
  7070.000000   2541431   2550954   2560554   2570167   2579745  
  7060.000000   2589262   2598694   2608015   2617193   2626205  
  7050.000000   2635057   2643795   2652495   2661243   2670100  
  7040.000000   2679078   2688147   2697239   2706298   2715280  
  7030.000000   2724186   2733025   2741814   2750532   2759148  
  7020.000000   2767602   2775866   2783932   2791844   2799654  
  7010.000000   2807426   2815174   2822891   2830522   2838032  
  7000.000000   2845379   2852577   2859635   2866588   2873427  
  6990.000000   2880147   2886706   2893097   2899318   2905421  
  6980.000000   2911447   2917450   2923424   2929344   2935133  
  6970.000000   2940742   2946118   2951274   2956227   2961029  
  6960.000000   2965697   2970248   2974667   2978958   2983120  
  6950.000000   2987193   2991201   2995179   2999111   3002983  
  6940.000000   3006756   3010427   3014010   3017560   3021120  
  6930.000000   3024712   3028287   3031758   3035001   3037931  
  6920.000000   3040516   3042820   3044960   3047087   3049312  
  6910.000000   3051693   3054207   3056797   3059377   3061896  
  6900.000000   3064317   3066644   3068877   3071027   3073083  
  6890.000000   3075045   3076917   3078723   3080492   3082252  
  6880.000000   3084009   3085751   3087448   3089082   3090653  
  6870.000000   3092194   3093747   3095360   3097042   3098781  
  6860.000000   3100527   3102234   3103863   3105405   3106868  
  6850.000000   3108266   3109602   3110864   3112031   3113097  
  6840.000000   3114072   3115002   3115936   3116923   3117973  
  6830.000000   3119074   3120184   3121271   3122313   3123324  
  6820.000000   3124315   3125296   3126237   3127089   3127787  
  6810.000000   3128300   3128637   3128872   3129098   3129406  
  6800.000000   3129827   3130326   3130802   3131138   3131238  
  6790.000000   3131079   3130701   3130206   3129699   3129274  
  6780.000000   3128972   3128801   3128730   3128727   3128753  
  6770.000000   3128782   3128776   3128703   3128527   3128231  
  6760.000000   3127822   3127341   3126839   3126370   3125951  
  6750.000000   3125565   3125159   3124678   3124083   3123384  
  6740.000000   3122624   3121870   3121176   3120562   3119999  
  6730.000000   3119430   3118784   3118016   3117110   3116092  
  6720.000000   3115005   3113903   3112824   3111797   3110833  
  6710.000000   3109940   3109116   3108355   3107632   3106915  
  6700.000000   3106156   3105315   3104368   3103321   3102204  
  6690.000000   3101072   3099974   3098946   3097999   3097119  
  6680.000000   3096267   3095400   3094470   3093441   3092287  
  6670.000000   3091006   3089611   3088146   3086665   3085231  
  6660.000000   3083884   3082642   3081477   3080334   3079137  
  6650.000000   3077826   3076365   3074762   3073049   3071280  
  6640.000000   3069494   3067720   3065958   3064199   3062425  
  6630.000000   3060629   3058807   3056963   3055095   3053206  
  6620.000000   3051293   3049364   3047428   3045508   3043622  
  6610.000000   3041775   3039956   3038131   3036257   3034298  
  6600.000000   3032237   3030082   3027866   3025638   3023448  
  6590.000000   3021334   3019323   3017426   3015641   3013956  
  6580.000000   3012352   3010805   3009293   3007797   3006311  
  6570.000000   3004838   3003388   3001971   3000587   2999221  
  6560.000000   2997854   2996467   2995063   2993657   2992284  
  6550.000000   2990966   2989706   2988463   2987174   2985766  
  6540.000000   2984199   2982482   2980686   2978918   2977290  
  6530.000000   2975873   2974680   2973666   2972753   2971859  
  6520.000000   2970937   2969972   2968983   2967990   2967006  
  6510.000000   2966025   2965035   2964029   2963026   2962062  
  6500.000000   2961186   2960423   2959769   2959182   2958597  
  6490.000000   2957952   2957209   2956370   2955466   2954541  
  6480.000000   2953637   2952776   2951964   2951198   2950473  
  6470.000000   2949789   2949140   2948513   2947880   2947203  
  6460.000000   2946451   2945613   2944705   2943767   2942843  
  6450.000000   2941960   2941119   2940291   2939445   2938559  
  6440.000000   2937647   2936749   2935919   2935193   2934574  
  6430.000000   2934024   2933487   2932911   2932283   2931628  
  6420.000000   2931005   2930474   2930075   2929803   2929622  
  6410.000000   2929479   2929339   2929189   2929048   2928934  
  6400.000000   2928855   2928789   2928689   2928506   2928207  
  6390.000000   2927800   2927327   2926849   2926428   2926097  
  6380.000000   2925858   2925689   2925553   2925424   2925283  
  6370.000000   2925126   2924951   2924753   2924521   2924250  
  6360.000000   2923941   2923612   2923284   2922980   2922700  
  6350.000000   2922429   2922129   2921768   2921320   2920791  
  6340.000000   2920204   2919596   2918994   2918414   2917845  
  6330.000000   2917271   2916670   2916037   2915370   2914682  
  6320.000000   2913980   2913266   2912529   2911762   2910952  
  6310.000000   2910104   2909213   2908282   2907298   2906247  
  6300.000000   2905106   2903879   2902579   2901251   2899939  
  6290.000000   2898683   2897484   2896319   2895125   2893847  
  6280.000000   2892433   2890876   2889194   2887439   2885655  
  6270.000000   2883881   2882125   2880381   2878625   2876844  
  6260.000000   2875024   2873165   2871267   2869334   2867361  
  6250.000000   2865355   2863318   2861271   2859233   2857224  
  6240.000000   2855250   2853307   2851374   2849431   2847459  
  6230.000000   2845456   2843433   2841407   2839397   2837418  
  6220.000000   2835477   2833576   2831713   2829887   2828093  
  6210.000000   2826322   2824558   2822781   2820970   2819113  
  6200.000000   2817210   2815274   2813325   2811382   2809464  
  6190.000000   2807581   2805744   2803962   2802245   2800598  
  6180.000000   2799009   2797447   2795863   2794204   2792427  
  6170.000000   2790524   2788521   2786475   2784454   2782511  
  6160.000000   2780664   2778895   2777160   2775411   2773621  
  6150.000000   2771794   2769962   2768169   2766452   2764825  
  6140.000000   2763278   2761778   2760296   2758802   2757290  
  6130.000000   2755760   2754221   2752681   2751152   2749644  
  6120.000000   2748179   2746778   2745471   2744269   2743178  
  6110.000000   2742170   2741216   2740272   2739313   2738324  
  6100.000000   2737316   2736309   2735337   2734425   2733601  
  6090.000000   2732881   2732279   2731795   2731420   2731123  
  6080.000000   2730863   2730583   2730236   2729791   2729253  
  6070.000000   2728653   2728050   2727498   2727048   2726711  
  6060.000000   2726485   2726335   2726233   2726147   2726065  
  6050.000000   2725981   2725906   2725846   2725824   2725858  
  6040.000000   2725986   2726240   2726664   2727274   2728080  
  6030.000000   2729049   2730139   2731286   2732438   2733551  
  6020.000000   2734610   2735612   2736577   2737518   2738458  
  6010.000000   2739407   2740378   2741372   2742396   2743442  
  6000.000000   2744505   2745568   2746625   2747667   2748710  
  5990.000000   2749770   2750886   2752083   2753391   2754811  
  5980.000000   2756345   2757974   2759692   2761487   2763372  
  5970.000000   2765348   2767433   2769622   2771919   2774301  
  5960.000000   2776760   2779269   2781823   2784401   2787003  
  5950.000000   2789610   2792223   2794832   2797448   2800076  
  5940.000000   2802740   2805462   2808265   2811162   2814161  
  5930.000000   2817251   2820414   2823623   2826841   2830031  
  5920.000000   2833158   2836189   2839103   2841888   2844545  
  5910.000000   2847083   2849516   2851861   2854130   2856342  
  5900.000000   2858512   2860663   2862816   2864996   2867215  
  5890.000000   2869485   2871797   2874143   2876512   2878897  
  5880.000000   2881297   2883714   2886143   2888569   2890970  
  5870.000000   2893312   2895574   2897741   2899826   2901854  
  5860.000000   2903864   2905890   2907960   2910086   2912279  
  5850.000000   2914543   2916889   2919330   2921875   2924523  
  5840.000000   2927257   2930046   2932857   2935658   2938438  
  5830.000000   2941197   2943950   2946709   2949482   2952263  
  5820.000000   2955037   2957788   2960500   2963167   2965782  
  5810.000000   2968339   2970817   2973201   2975463   2977603  
  5800.000000   2979618   2981542   2983394   2985210   2986978  
  5790.000000   2988696   2990312   2991793   2993085   2994164  
  5780.000000   2994993   2995560   2995833   2995808   2995476  
  5770.000000   2994866   2994027   2993045   2992004   2990991  
  5760.000000   2990051   2989207   2988444   2987746   2987095  
  5750.000000   2986502   2985989   2985592   2985334   2985214  
  5740.000000   2985210   2985276   2985369   2985444   2985484  
  5730.000000   2985479   2985445   2985393   2985348   2985325  
  5720.000000   2985349   2985430   2985580   2985792   2986056  
  5710.000000   2986349   2986657   2986971   2987302   2987670  
  5700.000000   2988099   2988604   2989179   2989800   2990431  
  5690.000000   2991040   2991607   2992135   2992635   2993128  
  5680.000000   2993619   2994105   2994559   2994957   2995267  
  5670.000000   2995473   2995558   2995513   2995318   2994958  
  5660.000000   2994416   2993697   2992820   2991840   2990813  
  5650.000000   2989806   2988856   2987988   2987189   2986440  
  5640.000000   2985710   2984984   2984244   2983487   2982701  
  5630.000000   2981880   2981013   2980104   2979163   2978215  
  5620.000000   2977285   2976391   2975533   2974696   2973857  
  5610.000000   2972996   2972112   2971224   2970360   2969550  
  5600.000000   2968806   2968120   2967461   2966798   2966101  
  5590.000000   2965360   2964575   2963757   2962907   2962021  
  5580.000000   2961080   2960068   2958976   2957813   2956594  
  5570.000000   2955348   2954092   2952838   2951584   2950326  
  5560.000000   2949056   2947777   2946490   2945195   2943887  
  5550.000000   2942555   2941191   2939796   2938386   2936989  
  5540.000000   2935640   2934362   2933158   2932012   2930896  
  5530.000000   2929783   2928658   2927525   2926399   2925295  
  5520.000000   2924220   2923166   2922118   2921060   2919988  
  5510.000000   2918906   2917823   2916744   2915657   2914538  
  5500.000000   2913359   2912101   2910762   2909370   2907956  
  5490.000000   2906555   2905173   2903800   2902404   2900961  
  5480.000000   2899455   2897900   2896318   2894739   2893171  
  5470.000000   2891602   2889998   2888326   2886556   2884689  
  5460.000000   2882733   2880712   2878640   2876526   2874370  
  5450.000000   2872180   2869976   2867791   2865664   2863619  
  5440.000000   2861658   2859756   2857885   2856016   2854155  
  5430.000000   2852320   2850554   2848876   2847295   2845781  
  5420.000000   2844310   2842860   2841460   2840156   2839032  
  5410.000000   2838139   2837502   2837071   2836784   2836550  
  5400.000000   2836332   2836112   2835941   2835864   2835945  
  5390.000000   2836193   2836610   2837151   2837809   2838566  
  5380.000000   2839464   2840524   2841792   2843254   2844909  
  5370.000000   2846698   2848614   2850621   2852763   2855043  
  5360.000000   2857535   2860237   2863212   2866440   2869989  
  5350.000000   2873856   2878134   2882833   2888039   2893725  
  5340.000000   2899945   2906641   2913868   2921573   2929821  
  5330.000000   2938550   2947804   2957490   2967640   2978180  
  5320.000000   2989205   3000714   3012879   3025728   3039425  
  5310.000000   3053934   3069334   3085513   3102507   3120211  
  5300.000000   3138703   3157943   3178074   3199101   3221180  
  5290.000000   3244291   3268516   3293735   3319904   3346820  
  5280.000000   3374406   3402518   3431193   3460440   3490409  
  5270.000000   3521146   3552696   3584930   3617650   3650578  
  5260.000000   3683468   3716173   3748653   3780979   3813207  
  5250.000000   3845385   3877389   3909072   3940135   3970414  
  5240.000000   3999707   4028067   4055498   4082206   4108224  
  5230.000000   4133693   4158501   4182635   4205870   4228168  
  5220.000000   4249368   4269570   4288763   4307169   4324836  
  5210.000000   4341957   4358473   4374426   4389613   4403991  
  5200.000000   4417368   4429797   4441226   4451828   4461615  
  5190.000000   4470744   4479161   4486936   4493959   4500291  
  5180.000000   4505862   4510781   4515013   4518658   4521649  
  5170.000000   4524037   4525738   4526822   4527269   4527207  
  5160.000000   4526654   4525721   4524371   4522640   4520442  
  5150.000000   4517799   4514669   4511132   4507204   4502981  
  5140.000000   4498465   4493708   4488680   4483418   4477907  
  5130.000000   4472209   4466339   4460356   4454257   4448062  
  5120.000000   4441738   4435296   4428722   4422052   4415301  
  5110.000000   4408511   4401684   4394835   4387944   4381016  
  5100.000000   4374042   4367049   4360048   4353072   4346123  
  5090.000000   4339212   4332318   4325434   4318536   4311617  
  5080.000000   4304653   4297635   4290536   4283346   4276042  
  5070.000000   4268632   4261115   4253513   4245832   4238085  
  5060.000000   4230254   4222336   4214307   4206177   4197946  
  5050.000000   4189652   4181316   4172972   4164625   4156282  
  5040.000000   4147926   4139553   4131150   4122724   4114279  
  5030.000000   4105828   4097378   4088937   4080510   4072105  
  5020.000000   4063739   4055426   4047192   4039048   4031016  
  5010.000000   4023094   4015298   4007623   4000096   3992714  
  5000.000000   3985513   3978488   3971668   3965036   3958620  
  4990.000000   3952404   3946433   3940705   3935279   3930156  
  4980.000000   3925389   3920963   3916915   3913215   3909896  
  4970.000000   3906927   3904347   3902121   3900284   3898790  
  4960.000000   3897668   3896866   3896418   3896286   3896517  
  4950.000000   3897082   3898031   3899333   3901034   3903099  
  4940.000000   3905574   3908425   3911694   3915341   3919391  
  4930.000000   3923784   3928527   3933558   3938890   3944478  
  4920.000000   3950358   3956499   3962936   3969636   3976622  
  4910.000000   3983862   3991380   3999159   4007225   4015561  
  4900.000000   4024170   4033007   4042043   4051215   4060491  
  4890.000000   4069830   4079222   4088651   4098115   4107596  
  4880.000000   4117071   4126510   4135878   4145154   4154308  
  4870.000000   4163326   4172173   4180832   4189259   4197443  
  4860.000000   4205357   4213022   4220446   4227674   4234719  
  4850.000000   4241615   4248345   4254921   4261313   4267538  
  4840.000000   4273583   4279485   4285246   4290904   4296452  
  4830.000000   4301908   4307247   4312471   4317547   4322469  
  4820.000000   4327203   4331743   4336069   4340194   4344127  
  4810.000000   4347912   4351582   4355188   4358746   4362277  
  4800.000000   4365763   4369196   4372547   4375817   4378999  
  4790.000000   4382119   4385184   4388220   4391224   4394205  
  4780.000000   4397144   4400043   4402882   4405663   4408367  
  4770.000000   4410992   4413511   4415915   4418177   4420296  
  4760.000000   4422255   4424066   4425718   4427225   4428571  
  4750.000000   4429769   4430805   4431702   4432452   4433085  
  4740.000000   4433591   4433980   4434223   4434308   4434193  
  4730.000000   4433870   4433316   4432552   4431586   4430461  
  4720.000000   4429199   4427840   4426396   4424897   4423348  
  4710.000000   4421774   4420183   4418599   4417028   4415484  
  4700.000000   4413957   4412441   4410916   4409370   4407788  
  4690.000000   4406171   4404521   4402853   4401175   4399493  
  4680.000000   4397801   4396080   4394309   4392462   4390525  
  4670.000000   4388494   4386387   4384231   4382070   4379941  
  4660.000000   4377885   4375924   4374085   4372374   4370807  
  4650.000000   4369386   4368122   4367013   4366063   4365256  
  4640.000000   4364584   4364024   4363566   4363188   4362885  
  4630.000000   4362641   4362452   4362302   4362188   4362093  
  4620.000000   4362017   4361949   4361887   4361820   4361734  
  4610.000000   4361608   4361422   4361159   4360818   4360412  
  4600.000000   4359971   4359533   4359133   4358797   4358528  
  4590.000000   4358319   4358143   4357977   4357794   4357581  
  4580.000000   4357323   4357017   4356654   4356231   4355736  
  4570.000000   4355171   4354532   4353831   4353069   4352259  
  4560.000000   4351399   4350489   4349517   4348481   4347370  
  4550.000000   4346188   4344930   4343603   4342205   4340738  
  4540.000000   4339203   4337607   4335965   4334292   4332611  
  4530.000000   4330933   4329278   4327644   4326050   4324492  
  4520.000000   4323012   4321617   4320373   4319289   4318436  
  4510.000000   4317814   4317496   4317482   4317867   4318673  
  4500.000000   4320018   4321932   4324529   4327820   4331890  
  4490.000000   4336720   4342367   4348784   4355990   4363888  
  4480.000000   4372442   4381502   4390992   4400759   4410756  
  4470.000000   4420894   4431196   4441641   4452293   4463143  
  4460.000000   4474228   4485510   4496983   4508583   4520281  
  4450.000000   4532020   4543771   4555498   4567190   4578841  
  4440.000000   4590461   4602075   4613707   4625395   4637148  
  4430.000000   4648995   4660910   4672899   4684900   4696899  
  4420.000000   4708805   4720584   4732114   4743341   4754121  
  4410.000000   4764396   4774027   4782975   4791131   4798488  
  4400.000000   4804970   4810603   4815341   4819244   4822310  
  4390.000000   4824648   4826311   4827450   4828152   4828565  
  4380.000000   4828761   4828844   4828850   4828848   4828872  
  4370.000000   4828995   4829283   4829824   4830696   4831956  
  4360.000000   4833641   4835746   4838246   4841083   4844199  
  4350.000000   4847537   4851052   4854727   4858563   4862589  
  4340.000000   4866830   4871304   4875976   4880759   4885475  
  4330.000000   4889888   4893713   4896683   4898591   4899357  
  4320.000000   4899038   4897846   4896075   4894080   4892162  
  4310.000000   4890574   4889426   4888763   4888515   4888607  
  4300.000000   4888920   4889379   4889900   4890442   4890958  
  4290.000000   4891424   4891821   4892143   4892405   4892633  
  4280.000000   4892860   4893125   4893445   4893844   4894309  
  4270.000000   4894840   4895403   4895969   4896469   4896824  
  4260.000000   4896912   4896612   4895790   4894364   4892294  
  4250.000000   4889634   4886496   4883068   4879543   4876125  
  4240.000000   4872949   4870107   4867596   4865375   4863345  
  4230.000000   4861406   4859454   4857413   4855228   4852869  
  4220.000000   4850342   4847660   4844881   4842062   4839302  
  4210.000000   4836685   4834312   4832236   4830507   4829109  
  4200.000000   4828019   4827170   4826521   4826007   4825626  
  4190.000000   4825351   4825225   4825243   4825462   4825869  
  4180.000000   4826514   4827370   4828484   4829835   4831489  
  4170.000000   4833446   4835794   4838549   4841803   4845557  
  4160.000000   4849875   4854721   4860120   4866000   4872374  
  4150.000000   4879165   4886402   4894028   4902098   4910575  
  4140.000000   4919529   4928931   4938852   4949259   4960214  
  4130.000000   4971675   4983691   4996213   5009279   5022840  
  4120.000000   5036930   5051502   5066581   5082117   5098121  
  4110.000000   5114534   5131353   5148511   5165992   5183725  
  4100.000000   5201689   5219824   5238125   5256568   5275174  
  4090.000000   5293957   5312942   5332143   5351548   5371140  
  4080.000000   5390868   5410699   5430564   5450438   5470245  
  4070.000000   5489954   5509469   5528753   5547708   5566324  
  4060.000000   5584533   5602367   5619767   5636771   5653293  
  4050.000000   5669364   5684890   5699929   5714408   5728408  
  4040.000000   5741835   5754732   5766944   5778474   5789154  
  4030.000000   5799017   5807944   5816004   5823105   5829293  
  4020.000000   5834421   5838530   5841556   5843584   5844551  
  4010.000000   5844640   5843957   5842556   5840193   5836980  
  4000.000000   5833341  
##END= 
