##TITLE= Sample 019 By ssteindl date Donnerstag, November 22 2018
##JCAMP-DX= 4.24
##DATA TYPE= INFRARED SPECTRUM
##ORIGIN= Exported PE Spectrum Data File
##OWNER= Sandra Steindl
##DATE= 18/11/22
##TIME= 10:44:55.00
##SPECTROMETER/DATA SYSTEM= PERKIN-ELMER Frontier FT-IR/NIR IR
##INSTRUMENT PARAMETERS=
  APODIZATION=stark
  DETECTOR=INGAAS
##RESOLUTION= 16.000000
##DELTAX= -2.000000
##XUNITS= 1/CM
##YUNITS= A
##XFACTOR= 1.00
##YFACTOR= 0.00000011920928955078
##FIRSTX= 10000.00
##LASTX= 4000.00
##NPOINTS= 3001
##FIRSTY= 0.218157
##MAXY= 0.642420
##MINY= 0.181158
##XYDATA= (X++(Y..Y))
 10000.000000   1830036   1828119   1826095   1824059   1822572  
  9990.000000   1822078   1822507   1823326   1824050   1824479  
  9980.000000   1824637   1824821   1825466   1827082   1829947  
  9970.000000   1834153   1839510   1845648   1851947   1857613  
  9960.000000   1861760   1863521   1862324   1857990   1850899  
  9950.000000   1841829   1831804   1821781   1812493   1804375  
  9940.000000   1797630   1792425   1788898   1787271   1787577  
  9930.000000   1789679   1793073   1797099   1801083   1804598  
  9920.000000   1807559   1810127   1812540   1814782   1816576  
  9910.000000   1817318   1816506   1813874   1809732   1804791  
  9900.000000   1799947   1795870   1792703   1790136   1787571  
  9890.000000   1784672   1781553   1778979   1777959   1779379  
  9880.000000   1783431   1789450   1796030   1801456   1804321  
  9870.000000   1803861   1800245   1794264   1787106   1779838  
  9860.000000   1773236   1767687   1763318   1760184   1758318  
  9850.000000   1757788   1758547   1760440   1763131   1766249  
  9840.000000   1769408   1772319   1774730   1776376   1776993  
  9830.000000   1776296   1774240   1771034   1767320   1763934  
  9820.000000   1761682   1760965   1761533   1762578   1762982  
  9810.000000   1761898   1759098   1755237   1751578   1749532  
  9800.000000   1750018   1753043   1757658   1762255   1765209  
  9790.000000   1765386   1762581   1757433   1751179   1745155  
  9780.000000   1740395   1737457   1736372   1736888   1738584  
  9770.000000   1741085   1744046   1747168   1750129   1752611  
  9760.000000   1754319   1755051   1754697   1753204   1750570  
  9750.000000   1746787   1741990   1736460   1730780   1725717  
  9740.000000   1722056   1720324   1720488   1721956   1723656  
  9730.000000   1724508   1723797   1721559   1718588   1716158  
  9720.000000   1715501   1717254   1721175   1726137   1730566  
  9710.000000   1732952   1732462   1729148   1723942   1718209  
  9700.000000   1713259   1709897   1708270   1707957   1708310  
  9690.000000   1708746   1708988   1709057   1709131   1709402  
  9680.000000   1709884   1710502   1711103   1711679   1712392  
  9670.000000   1713558   1715482   1718248   1721588   1724894  
  9660.000000   1727365   1728288   1727242   1724255   1719749  
  9650.000000   1714401   1708918   1703843   1699457   1695789  
  9640.000000   1692716   1690086   1687762   1685663   1683651  
  9630.000000   1681588   1679292   1676724   1674032   1671621  
  9620.000000   1670043   1669784   1671049   1673554   1676566  
  9610.000000   1679026   1679955   1678712   1675327   1670401  
  9600.000000   1664986   1660119   1656522   1654334   1653204  
  9590.000000   1652510   1651757   1650810   1649963   1649780  
  9580.000000   1650736   1653016   1656307   1659982   1663323  
  9570.000000   1665831   1667445   1668471   1669432   1670698  
  9560.000000   1672278   1673722   1674298   1673305   1670446  
  9550.000000   1665987   1660774   1655896   1652337   1650610  
  9540.000000   1650600   1651689   1652987   1653747   1653578  
  9530.000000   1652638   1651484   1650900   1651554   1653796  
  9520.000000   1657517   1662179   1666991   1671050   1673623  
  9510.000000   1674211   1672701   1669300   1664531   1659101  
  9500.000000   1653788   1649305   1646142   1644525   1644340  
  9490.000000   1645267   1646811   1648550   1650144   1651487  
  9480.000000   1652590   1653562   1654460   1655221   1655660  
  9470.000000   1655475   1654430   1652399   1649509   1646074  
  9460.000000   1642510   1639206   1636354   1633999   1631988  
  9450.000000   1630189   1628492   1626965   1625773   1625136  
  9440.000000   1625177   1625788   1626600   1627003   1626371  
  9430.000000   1624210   1620400   1615162   1609102   1602987  
  9420.000000   1597649   1593752   1591682   1591459   1592743  
  9410.000000   1594974   1597488   1599732   1601348   1602285  
  9400.000000   1602772   1603216   1604079   1605607   1607777  
  9390.000000   1610135   1612041   1612774   1611893   1609335  
  9380.000000   1605495   1601121   1597077   1594180   1592945  
  9370.000000   1593560   1595841   1599377   1603624   1608025  
  9360.000000   1612050   1615230   1617177   1617656   1616660  
  9350.000000   1614463   1611617   1608795   1606656   1605614  
  9340.000000   1605759   1606822   1608254   1609425   1609765  
  9330.000000   1609026   1607254   1604831   1602254   1600049  
  9320.000000   1598637   1598272   1599000   1600593   1602571  
  9310.000000   1604271   1605010   1604268   1601858   1598017  
  9300.000000   1593404   1588938   1585553   1583859   1583964  
  9290.000000   1585406   1587376   1588974   1589537   1588827  
  9280.000000   1587087   1584934   1583105   1582214   1582557  
  9270.000000   1584100   1586566   1589563   1592699   1595639  
  9260.000000   1598126   1599984   1601084   1601353   1600792  
  9250.000000   1599488   1597649   1595511   1593324   1591232  
  9240.000000   1589279   1587414   1585521   1583530   1581412  
  9230.000000   1579317   1577494   1576302   1576034   1576892  
  9220.000000   1578836   1581597   1584642   1587304   1588944  
  9210.000000   1589123   1587767   1585141   1581799   1578348  
  9200.000000   1575273   1572738   1570590   1568453   1565970  
  9190.000000   1562983   1559643   1556391   1553773   1552248  
  9180.000000   1551955   1552699   1554036   1555474   1556686  
  9170.000000   1557583   1558333   1559170   1560268   1561580  
  9160.000000   1562864   1563770   1564013   1563496   1562362  
  9150.000000   1560942   1559636   1558782   1558545   1558883  
  9140.000000   1559581   1560337   1560841   1560810   1560036  
  9130.000000   1558429   1556084   1553283   1550448   1548094  
  9120.000000   1546688   1546542   1547674   1549840   1552592  
  9110.000000   1555459   1558039   1560110   1561589   1562498  
  9100.000000   1562858   1562647   1561830   1560412   1558527  
  9090.000000   1556404   1554325   1552495   1550956   1549565  
  9080.000000   1548044   1546151   1543811   1541208   1538722  
  9070.000000   1536777   1535676   1535456   1535908   1536643  
  9060.000000   1537309   1537697   1537854   1537987   1538356  
  9050.000000   1539125   1540305   1541782   1543415   1545141  
  9040.000000   1547003   1549123   1551575   1554290   1556991  
  9030.000000   1559278   1560748   1561151   1560467   1558907  
  9020.000000   1556807   1554484   1552117   1549732   1547261  
  9010.000000   1544664   1541994   1539441   1537239   1535600  
  9000.000000   1534566   1534047   1533824   1533700   1533581  
  8990.000000   1533504   1533623   1534053   1534809   1535691  
  8980.000000   1536367   1536450   1535702   1534106   1531945  
  8970.000000   1529699   1527940   1527132   1527496   1528963  
  8960.000000   1531193   1533716   1536042   1537813   1538873  
  8950.000000   1539284   1539268   1539106   1539029   1539143  
  8940.000000   1539406   1539652   1539675   1539314   1538524  
  8930.000000   1537406   1536146   1534972   1534016   1533313  
  8920.000000   1532756   1532188   1531469   1530554   1529524  
  8910.000000   1528527   1527715   1527146   1526749   1526335  
  8900.000000   1525684   1524647   1523259   1521728   1520414  
  8890.000000   1519662   1519712   1520564   1521993   1523580  
  8880.000000   1524887   1525578   1525574   1525060   1524463  
  8870.000000   1524281   1524949   1526671   1529363   1532670  
  8860.000000   1536075   1539057   1541255   1542567   1543164  
  8850.000000   1543410   1543711   1544371   1545492   1546951  
  8840.000000   1548464   1549696   1550386   1550448   1549979  
  8830.000000   1549236   1548520   1548105   1548143   1548655  
  8820.000000   1549530   1550571   1551548   1552245   1552514  
  8810.000000   1552303   1551677   1550814   1549976   1549442  
  8800.000000   1549446   1550093   1551345   1552995   1554755  
  8790.000000   1556307   1557426   1558018   1558148   1558004  
  8780.000000   1557836   1557897   1558390   1559443   1561098  
  8770.000000   1563324   1566000   1568941   1571882   1574533  
  8760.000000   1576619   1577953   1578503   1578377   1577825  
  8750.000000   1577117   1576499   1576079   1575831   1575624  
  8740.000000   1575296   1574782   1574134   1573584   1573430  
  8730.000000   1573995   1575467   1577844   1580887   1584164  
  8720.000000   1587167   1589406   1590581   1590593   1589624  
  8710.000000   1588031   1586292   1584858   1584065   1584061  
  8700.000000   1584818   1586178   1587931   1589899   1591954  
  8690.000000   1594049   1596159   1598259   1600285   1602135  
  8680.000000   1603719   1604973   1605920   1606632   1607237  
  8670.000000   1607832   1608477   1609170   1609883   1610604  
  8660.000000   1611363   1612237   1613320   1614679   1616314  
  8650.000000   1618151   1620069   1621955   1623748   1625467  
  8640.000000   1627190   1629002   1630952   1633011   1635093  
  8630.000000   1637077   1638879   1640452   1641814   1642995  
  8620.000000   1644041   1644961   1645759   1646446   1647090  
  8610.000000   1647820   1648796   1650179   1652057   1654429  
  8600.000000   1657189   1660181   1663237   1666230   1669072  
  8590.000000   1671707   1674084   1676135   1677792   1679011  
  8580.000000   1679818   1680324   1680700   1681138   1681765  
  8570.000000   1682633   1683685   1684824   1685939   1686976  
  8560.000000   1687919   1688791   1689585   1690249   1690695  
  8550.000000   1690830   1690634   1690185   1689681   1689360  
  8540.000000   1689433   1689996   1691008   1692321   1693749  
  8530.000000   1695160   1696527   1697929   1699488   1701286  
  8520.000000   1703314   1705435   1707452   1709161   1710449  
  8510.000000   1711317   1711892   1712353   1712884   1713613  
  8500.000000   1714595   1715826   1717258   1718845   1720525  
  8490.000000   1722253   1723957   1725575   1727043   1728344  
  8480.000000   1729500   1730578   1731662   1732796   1733975  
  8470.000000   1735096   1736013   1736561   1736649   1736280  
  8460.000000   1735583   1734779   1734150   1733958   1734390  
  8450.000000   1735526   1737320   1739643   1742283   1745037  
  8440.000000   1747721   1750241   1752576   1754765   1756871  
  8430.000000   1758908   1760835   1762500   1763700   1764218  
  8420.000000   1763935   1762885   1761268   1759447   1757834  
  8410.000000   1756839   1756712   1757539   1759181   1761373  
  8400.000000   1763764   1766011   1767821   1769007   1769507  
  8390.000000   1769368   1768728   1767781   1766760   1765892  
  8380.000000   1765358   1765263   1765623   1766387   1767434  
  8370.000000   1768625   1769798   1770829   1771601   1772045  
  8360.000000   1772106   1771782   1771130   1770257   1769316  
  8350.000000   1768451   1767774   1767302   1766962   1766596  
  8340.000000   1766033   1765159   1763976   1762610   1761289  
  8330.000000   1760261   1759725   1759761   1760316   1761232  
  8320.000000   1762317   1763415   1764446   1765425   1766413  
  8310.000000   1767483   1768653   1769878   1771052   1772045  
  8300.000000   1772764   1773159   1773249   1773076   1772687  
  8290.000000   1772103   1771306   1770271   1768979   1767495  
  8280.000000   1765954   1764584   1763614   1763244   1763527  
  8270.000000   1764384   1765563   1766734   1767554   1767787  
  8260.000000   1767359   1766364   1765024   1763586   1762258  
  8250.000000   1761119   1760124   1759131   1757985   1756613  
  8240.000000   1755056   1753489   1752137   1751233   1750902  
  8230.000000   1751141   1751794   1752595   1753237   1753444  
  8220.000000   1753039   1751975   1750332   1748298   1746125  
  8210.000000   1744082   1742403   1741235   1740610   1740435  
  8200.000000   1740515   1740604   1740450   1739874   1738796  
  8190.000000   1737275   1735476   1733637   1731998   1730734  
  8180.000000   1729920   1729506   1729340   1729210   1728890  
  8170.000000   1728210   1727090   1725577   1723825   1722053  
  8160.000000   1720476   1719235   1718358   1717743   1717198  
  8150.000000   1716507   1715507   1714164   1712577   1710959  
  8140.000000   1709544   1708503   1707878   1707560   1707333  
  8130.000000   1706940   1706178   1704948   1703283   1701323  
  8120.000000   1699257   1697274   1695512   1694036   1692846  
  8110.000000   1691884   1691062   1690271   1689407   1688384  
  8100.000000   1687163   1685758   1684258   1682789   1681501  
  8090.000000   1680493   1679792   1679322   1678944   1678497  
  8080.000000   1677872   1677056   1676138   1675288   1674677  
  8070.000000   1674428   1674557   1674973   1675503   1675943  
  8060.000000   1676112   1675886   1675214   1674112   1672654  
  8050.000000   1670949   1669136   1667357   1665747   1664396  
  8040.000000   1663334   1662517   1661841   1661191   1660473  
  8030.000000   1659684   1658893   1658240   1657859   1657823  
  8020.000000   1658096   1658526   1658894   1658972   1658605  
  8010.000000   1657740   1656438   1654834   1653092   1651353  
  8000.000000   1649715   1648230   1646915   1645773   1644794  
  7990.000000   1643957   1643221   1642531   1641829   1641082  
  7980.000000   1640297   1639518   1638818   1638248   1637819  
  7970.000000   1637474   1637122   1636665   1636059   1635327  
  7960.000000   1634568   1633908   1633454   1633246   1633248  
  7950.000000   1633364   1633487   1633537   1633490   1633369  
  7940.000000   1633214   1633046   1632849   1632579   1632194  
  7930.000000   1631688   1631117   1630576   1630173   1629969  
  7920.000000   1629960   1630056   1630134   1630073   1629816  
  7910.000000   1629385   1628875   1628413   1628114   1628051  
  7900.000000   1628235   1628646   1629246   1630003   1630894  
  7890.000000   1631890   1632941   1633959   1634822   1635397  
  7880.000000   1635574   1635300   1634596   1633561   1632352  
  7870.000000   1631157   1630146   1629462   1629158   1629225  
  7860.000000   1629549   1629968   1630279   1630314   1629970  
  7850.000000   1629247   1628245   1627119   1626033   1625075  
  7840.000000   1624251   1623463   1622580   1621492   1620183  
  7830.000000   1618754   1617394   1616335   1615754   1615742  
  7820.000000   1616254   1617153   1618249   1619356   1620336  
  7810.000000   1621095   1621584   1621760   1621589   1621042  
  7800.000000   1620131   1618921   1617550   1616198   1615047  
  7790.000000   1614229   1613776   1613625   1613624   1613600  
  7780.000000   1613398   1612932   1612190   1611221   1610109  
  7770.000000   1608937   1607770   1606651   1605616   1604695  
  7760.000000   1603929   1603360   1603018   1602912   1603016  
  7750.000000   1603274   1603608   1603933   1604176   1604279  
  7740.000000   1604213   1603965   1603548   1602984   1602312  
  7730.000000   1601576   1600830   1600130   1599521   1599041  
  7720.000000   1598697   1598478   1598342   1598238   1598104  
  7710.000000   1597894   1597577   1597148   1596624   1596035  
  7700.000000   1595410   1594766   1594111   1593437   1592741  
  7690.000000   1592024   1591306   1590620   1590001   1589474  
  7680.000000   1589038   1588666   1588313   1587934   1587505  
  7670.000000   1587034   1586567   1586161   1585875   1585731  
  7660.000000   1585712   1585753   1585767   1585666   1585398  
  7650.000000   1584955   1584388   1583778   1583224   1582808  
  7640.000000   1582579   1582545   1582674   1582916   1583213  
  7630.000000   1583525   1583835   1584147   1584484   1584861  
  7620.000000   1585286   1585739   1586184   1586570   1586856  
  7610.000000   1587012   1587044   1586983   1586882   1586801  
  7600.000000   1586790   1586883   1587094   1587420   1587852  
  7590.000000   1588373   1588967   1589607   1590260   1590879  
  7580.000000   1591423   1591854   1592167   1592384   1592572  
  7570.000000   1592817   1593213   1593830   1594697   1595791  
  7560.000000   1597049   1598379   1599697   1600934   1602062  
  7550.000000   1603082   1604028   1604930   1605821   1606705  
  7540.000000   1607581   1608427   1609236   1610004   1610751  
  7530.000000   1611506   1612303   1613171   1614119   1615146  
  7520.000000   1616240   1617391   1618606   1619895   1621287  
  7510.000000   1622788   1624395   1626063   1627729   1629312  
  7500.000000   1630758   1632044   1633218   1634367   1635614  
  7490.000000   1637068   1638803   1640828   1643091   1645487  
  7480.000000   1647902   1650233   1652426   1654464   1656380  
  7470.000000   1658218   1660033   1661867   1663755   1665716  
  7460.000000   1667775   1669944   1672235   1674635   1677113  
  7450.000000   1679612   1682074   1684446   1686708   1688871  
  7440.000000   1690988   1693124   1695339   1697667   1700111  
  7430.000000   1702647   1705234   1707836   1710430   1713007  
  7420.000000   1715561   1718079   1720536   1722896   1725131  
  7410.000000   1727232   1729221   1731149   1733082   1735076  
  7400.000000   1737162   1739337   1741575   1743848   1746140  
  7390.000000   1748458   1750825   1753259   1755754   1758273  
  7380.000000   1760752   1763130   1765383   1767542   1769689  
  7370.000000   1771928   1774346   1776970   1779748   1782570  
  7360.000000   1785298   1787828   1790122   1792226   1794246  
  7350.000000   1796307   1798500   1800845   1803286   1805706  
  7340.000000   1807985   1810029   1811811   1813365   1814777  
  7330.000000   1816160   1817618   1819248   1821109   1823235  
  7320.000000   1825621   1828234   1831006   1833853   1836667  
  7310.000000   1839353   1841836   1844084   1846105   1847939  
  7300.000000   1849638   1851245   1852783   1854255   1855649  
  7290.000000   1856958   1858174   1859316   1860401   1861462  
  7280.000000   1862515   1863578   1864647   1865714   1866753  
  7270.000000   1867730   1868611   1869363   1869974   1870451  
  7260.000000   1870835   1871185   1871585   1872109   1872830  
  7250.000000   1873787   1875012   1876504   1878263   1880266  
  7240.000000   1882491   1884880   1887376   1889887   1892345  
  7230.000000   1894678   1896884   1898981   1901056   1903192  
  7220.000000   1905490   1908002   1910761   1913740   1916905  
  7210.000000   1920195   1923574   1927002   1930476   1933989  
  7200.000000   1937566   1941217   1944982   1948873   1952922  
  7190.000000   1957116   1961444   1965842   1970259   1974616  
  7180.000000   1978882   1983044   1987152   1991273   1995502  
  7170.000000   1999907   2004542   2009397   2014446   2019616  
  7160.000000   2024849   2030075   2035269   2040410   2045534  
  7150.000000   2050679   2055929   2061354   2067043   2073032  
  7140.000000   2079336   2085901   2092661   2099516   2106408  
  7130.000000   2113292   2120186   2127113   2134125   2141232  
  7120.000000   2148441   2155706   2162999   2170280   2177559  
  7110.000000   2184851   2192207   2199650   2207201   2214836  
  7100.000000   2222529   2230238   2237952   2245672   2253435  
  7090.000000   2261274   2269227   2277305   2285508   2293814  
  7080.000000   2302200   2310635   2319096   2327554   2335988  
  7070.000000   2344375   2352708   2360986   2369226   2377447  
  7060.000000   2385665   2393879   2402077   2410234   2418330  
  7050.000000   2426360   2434334   2442269   2450175   2458043  
  7040.000000   2465842   2473542   2481116   2488588   2496007  
  7030.000000   2503461   2511020   2518728   2526555   2534426  
  7020.000000   2542218   2549823   2557156   2564195   2570955  
  7010.000000   2577487   2583835   2590047   2596146   2602169  
  7000.000000   2608141   2614107   2620083   2626082   2632062  
  6990.000000   2637974   2643743   2649341   2654756   2660044  
  6980.000000   2665259   2670461   2675649   2680791   2685797  
  6970.000000   2690598   2695135   2699427   2703523   2707520  
  6960.000000   2711486   2715471   2719458   2723410   2727254  
  6950.000000   2730943   2734437   2737737   2740850   2743812  
  6940.000000   2746647   2749403   2752113   2754825   2757566  
  6930.000000   2760362   2763201   2766067   2768919   2771728  
  6920.000000   2774462   2777104   2779628   2782010   2784209  
  6910.000000   2786198   2787963   2789538   2790994   2792441  
  6900.000000   2793980   2795690   2797582   2799615   2801699  
  6890.000000   2803745   2805677   2807471   2809130   2810681  
  6880.000000   2812147   2813539   2814856   2816107   2817311  
  6870.000000   2818512   2819753   2821067   2822449   2823863  
  6860.000000   2825243   2826538   2827719   2828809   2829860  
  6850.000000   2830944   2832111   2833386   2834747   2836153  
  6840.000000   2837550   2838892   2840144   2841279   2842274  
  6830.000000   2843118   2843807   2844372   2844864   2845367  
  6820.000000   2845956   2846693   2847583   2848592   2849643  
  6810.000000   2850659   2851573   2852360   2853013   2853548  
  6800.000000   2853970   2854280   2854465   2854534   2854514  
  6790.000000   2854466   2854458   2854550   2854757   2855052  
  6780.000000   2855360   2855597   2855686   2855587   2855293  
  6770.000000   2854830   2854227   2853518   2852729   2851900  
  6760.000000   2851077   2850330   2849725   2849313   2849095  
  6750.000000   2849029   2849026   2848989   2848834   2848523  
  6740.000000   2848061   2847493   2846872   2846247   2845643  
  6730.000000   2845064   2844495   2843919   2843309   2842639  
  6720.000000   2841875   2840991   2839963   2838803   2837548  
  6710.000000   2836270   2835052   2833966   2833048   2832292  
  6700.000000   2831645   2831042   2830411   2829711   2828921  
  6690.000000   2828054   2827128   2826172   2825205   2824241  
  6680.000000   2823284   2822324   2821334   2820268   2819070  
  6670.000000   2817691   2816109   2814354   2812500   2810664  
  6660.000000   2808952   2807445   2806151   2805025   2803972  
  6650.000000   2802901   2801741   2800473   2799104   2797663  
  6640.000000   2796159   2794587   2792922   2791149   2789278  
  6630.000000   2787356   2785444   2783600   2781840   2780139  
  6620.000000   2778425   2776628   2774697   2772640   2770507  
  6610.000000   2768383   2766340   2764418   2762606   2760854  
  6600.000000   2759100   2757296   2755421   2753481   2751500  
  6590.000000   2749499   2747493   2745490   2743499   2741537  
  6580.000000   2739630   2737801   2736065   2734410   2732811  
  6570.000000   2731227   2729627   2727994   2726339   2724683  
  6560.000000   2723056   2721475   2719951   2718478   2717052  
  6550.000000   2715666   2714320   2713008   2711721   2710442  
  6540.000000   2709155   2707848   2706530   2705223   2703959  
  6530.000000   2702758   2701623   2700529   2699435   2698300  
  6520.000000   2697101   2695842   2694552   2693270   2692033  
  6510.000000   2690857   2689742   2688674   2687640   2686630  
  6500.000000   2685642   2684668   2683695   2682697   2681648  
  6490.000000   2680532   2679361   2678173   2677021   2675955  
  6480.000000   2674998   2674134   2673316   2672485   2671596  
  6470.000000   2670635   2669627   2668618   2667655   2666765  
  6460.000000   2665943   2665160   2664377   2663563   2662711  
  6450.000000   2661827   2660927   2660024   2659115   2658191  
  6440.000000   2657238   2656254   2655254   2654263   2653314  
  6430.000000   2652429   2651618   2650867   2650154   2649447  
  6420.000000   2648727   2647979   2647207   2646426   2645661  
  6410.000000   2644940   2644294   2643742   2643296   2642949  
  6400.000000   2642679   2642449   2642228   2641985   2641709  
  6390.000000   2641400   2641069   2640724   2640367   2639994  
  6380.000000   2639600   2639190   2638780   2638401   2638084  
  6370.000000   2637852   2637700   2637603   2637513   2637384  
  6360.000000   2637177   2636880   2636495   2636041   2635534  
  6350.000000   2634987   2634404   2633792   2633159   2632524  
  6340.000000   2631904   2631314   2630749   2630198   2629633  
  6330.000000   2629039   2628405   2627742   2627062   2626374  
  6320.000000   2625665   2624909   2624060   2623085   2621968  
  6310.000000   2620730   2619408   2618058   2616716   2615404  
  6300.000000   2614110   2612813   2611489   2610131   2608741  
  6290.000000   2607341   2605940   2604546   2603150   2601739  
  6280.000000   2600301   2598837   2597348   2595847   2594327  
  6270.000000   2592779   2591173   2589488   2587711   2585853  
  6260.000000   2583941   2582014   2580098   2578200   2576302  
  6250.000000   2574373   2572380   2570315   2568189   2566038  
  6240.000000   2563900   2561811   2559777   2557790   2555820  
  6230.000000   2553842   2551831   2549789   2547725   2545659  
  6220.000000   2543611   2541594   2539610   2537650   2535693  
  6210.000000   2533719   2531701   2529619   2527465   2525241  
  6200.000000   2522964   2520665   2518378   2516134   2513951  
  6190.000000   2511832   2509765   2507733   2505717   2503709  
  6180.000000   2501710   2499733   2497793   2495906   2494084  
  6170.000000   2492328   2490633   2488984   2487363   2485743  
  6160.000000   2484103   2482420   2480686   2478900   2477079  
  6150.000000   2475242   2473414   2471614   2469852   2468130  
  6140.000000   2466445   2464794   2463175   2461591   2460044  
  6130.000000   2458533   2457053   2455595   2454153   2452725  
  6120.000000   2451321   2449948   2448620   2447331   2446074  
  6110.000000   2444821   2443552   2442249   2440918   2439580  
  6100.000000   2438276   2437047   2435930   2434941   2434081  
  6090.000000   2433328   2432657   2432033   2431437   2430847  
  6080.000000   2430264   2429686   2429127   2428594   2428098  
  6070.000000   2427638   2427214   2426809   2426419   2426034  
  6060.000000   2425671   2425346   2425097   2424951   2424935  
  6050.000000   2425045   2425270   2425576   2425941   2426341  
  6040.000000   2426781   2427273   2427843   2428508   2429280  
  6030.000000   2430149   2431105   2432123   2433193   2434298  
  6020.000000   2435435   2436590   2437755   2438910   2440047  
  6010.000000   2441153   2442235   2443297   2444360   2445429  
  6000.000000   2446515   2447610   2448716   2449826   2450950  
  5990.000000   2452096   2453283   2454514   2455797   2457121  
  5980.000000   2458485   2459879   2461319   2462816   2464403  
  5970.000000   2466099   2467925   2469876   2471950   2474122  
  5960.000000   2476378   2478690   2481051   2483439   2485851  
  5950.000000   2488274   2490715   2493174   2495670   2498210  
  5940.000000   2500810   2503466   2506169   2508900   2511641  
  5930.000000   2514379   2517112   2519847   2522589   2525335  
  5920.000000   2528065   2530745   2533336   2535803   2538133  
  5910.000000   2540334   2542437   2544484   2546517   2548571  
  5900.000000   2550664   2552806   2554995   2557231   2559513  
  5890.000000   2561843   2564220   2566644   2569110   2571616  
  5880.000000   2574152   2576707   2579261   2581784   2584242  
  5870.000000   2586597   2588822   2590903   2592853   2594705  
  5860.000000   2596510   2598320   2600184   2602133   2604188  
  5850.000000   2606349   2608617   2610981   2613434   2615962  
  5840.000000   2618552   2621192   2623873   2626587   2629336  
  5830.000000   2632120   2634935   2637768   2640597   2643396  
  5820.000000   2646144   2648830   2651459   2654051   2656621  
  5810.000000   2659184   2661728   2664238   2666674   2669021  
  5800.000000   2671252   2673386   2675421   2677389   2679280  
  5790.000000   2681099   2682806   2684376   2685753   2686905  
  5780.000000   2687775   2688333   2688528   2688348   2687782  
  5770.000000   2686876   2685689   2684330   2682894   2681483  
  5760.000000   2680153   2678939   2677834   2676834   2675923  
  5750.000000   2675108   2674400   2673812   2673347   2672994  
  5740.000000   2672730   2672526   2672369   2672244   2672165  
  5730.000000   2672131   2672154   2672226   2672343   2672492  
  5720.000000   2672678   2672901   2673174   2673496   2673863  
  5710.000000   2674252   2674649   2675041   2675439   2675874  
  5700.000000   2676387   2677015   2677772   2678646   2679597  
  5690.000000   2680577   2681540   2682462   2683333   2684162  
  5680.000000   2684953   2685706   2686401   2687013   2687508  
  5670.000000   2687862   2688052   2688071   2687905   2687558  
  5660.000000   2687029   2686340   2685517   2684611   2683665  
  5650.000000   2682725   2681808   2680923   2680052   2679185  
  5640.000000   2678314   2677452   2676620   2675844   2675137  
  5630.000000   2674498   2673907   2673338   2672770   2672189  
  5620.000000   2671596   2670994   2670386   2669768   2669127  
  5610.000000   2668455   2667747   2667016   2666279   2665563  
  5600.000000   2664880   2664237   2663625   2663033   2662445  
  5590.000000   2661858   2661266   2660666   2660041   2659374  
  5580.000000   2658633   2657797   2656855   2655816   2654698  
  5570.000000   2653530   2652332   2651118   2649890   2648650  
  5560.000000   2647398   2646145   2644900   2643676   2642472  
  5550.000000   2641281   2640092   2638897   2637699   2636512  
  5540.000000   2635357   2634250   2633193   2632173   2631170  
  5530.000000   2630162   2629141   2628114   2627098   2626111  
  5520.000000   2625163   2624249   2623354   2622459   2621550  
  5510.000000   2620626   2619688   2618739   2617774   2616784  
  5500.000000   2615756   2614688   2613589   2612489   2611413  
  5490.000000   2610383   2609385   2608388   2607335   2606176  
  5480.000000   2604873   2603423   2601844   2600178   2598458  
  5470.000000   2596715   2594958   2593190   2591407   2589611  
  5460.000000   2587798   2585968   2584101   2582181   2580185  
  5450.000000   2578109   2575970   2573807   2571673   2569609  
  5440.000000   2567636   2565745   2563910   2562097   2560290  
  5430.000000   2558489   2556713   2554977   2553293   2551648  
  5420.000000   2550041   2548465   2546955   2545551   2544324  
  5410.000000   2543308   2542523   2541926   2541470   2541085  
  5400.000000   2540750   2540451   2540236   2540136   2540205  
  5390.000000   2540447   2540870   2541443   2542172   2543046  
  5380.000000   2544097   2545326   2546752   2548338   2550068  
  5370.000000   2551885   2553793   2555774   2557884   2560133  
  5360.000000   2562591   2565246   2568148   2571272   2574686  
  5350.000000   2578396   2582507   2587039   2592083   2597609  
  5340.000000   2603654   2610144   2617113   2624500   2632367  
  5330.000000   2640664   2649454   2658668   2668358   2678461  
  5320.000000   2689068   2700168   2711908   2724295   2737472  
  5310.000000   2751396   2766150   2781636   2797907   2814875  
  5300.000000   2832628   2851128   2870507   2890758   2912017  
  5290.000000   2934252   2957530   2981735   3006825   3032615  
  5280.000000   3059040   3085972   3113451   3141485   3170200  
  5270.000000   3199624   3229773   3260504   3291614   3322837  
  5260.000000   3353953   3384846   3415501   3446009   3476434  
  5250.000000   3506824   3537052   3566966   3596268   3624792  
  5240.000000   3652338   3678959   3704657   3729634   3753929  
  5230.000000   3777684   3800801   3823278   3844904   3865645  
  5220.000000   3885338   3904064   3921793   3938719   3954876  
  5210.000000   3970446   3985382   3999739   4013341   4026165  
  5200.000000   4038035   4049005   4059025   4068267   4076749  
  5190.000000   4084637   4091894   4098594   4104635   4110058  
  5180.000000   4114778   4118875   4122307   4125170   4127414  
  5170.000000   4129108   4130196   4130754   4130762   4130329  
  5160.000000   4129449   4128211   4126567   4124543   4122060  
  5150.000000   4119143   4115752   4111964   4107788   4103311  
  5140.000000   4098534   4093510   4088213   4082681   4076901  
  5130.000000   4070930   4064771   4058477   4052038   4045476  
  5120.000000   4038766   4031925   4024946   4017872   4010716  
  5110.000000   4003520   3996287   3989034   3981748   3974437  
  5100.000000   3967095   3959742   3952384   3945039   3937699  
  5090.000000   3930368   3923027   3915679   3908315   3900946  
  5080.000000   3893570   3886191   3878791   3871360   3863877  
  5070.000000   3856340   3848745   3841109   3833437   3825745  
  5060.000000   3818022   3810266   3802459   3794599   3786684  
  5050.000000   3778734   3770760   3762781   3754799   3746814  
  5040.000000   3738814   3730794   3722753   3714701   3706656  
  5030.000000   3698635   3690656   3682725   3674849   3667029  
  5020.000000   3659277   3651599   3644018   3636544   3629198  
  5010.000000   3621979   3614901   3607953   3601151   3594488  
  5000.000000   3587992   3581661   3575526   3569581   3563854  
  4990.000000   3558327   3553025   3547927   3543063   3538412  
  4980.000000   3534010   3529837   3525934   3522282   3518927  
  4970.000000   3515853   3513106   3510666   3508574   3506802  
  4960.000000   3505386   3504291   3503556   3503150   3503112  
  4950.000000   3503410   3504079   3505078   3506434   3508107  
  4940.000000   3510129   3512469   3515170   3518204   3521608  
  4930.000000   3525340   3529421   3533796   3538479   3543422  
  4920.000000   3548650   3554128   3559889   3565906   3572208  
  4910.000000   3578766   3585604   3592696   3600061   3607668  
  4900.000000   3615520   3623576   3631819   3640204   3648711  
  4890.000000   3657307   3665979   3674708   3683479   3692269  
  4880.000000   3701049   3709788   3718445   3726991   3735384  
  4870.000000   3743601   3751605   3759381   3766902   3774177  
  4860.000000   3781197   3787993   3794572   3800968   3807178  
  4850.000000   3813226   3819097   3824813   3830368   3835799  
  4840.000000   3841109   3846340   3851484   3856563   3861547  
  4830.000000   3866437   3871196   3875823   3880286   3884586  
  4820.000000   3888692   3892603   3896292   3899769   3903028  
  4810.000000   3906104   3909015   3911808   3914502   3917129  
  4800.000000   3919691   3922201   3924653   3927059   3929416  
  4790.000000   3931740   3934028   3936294   3938530   3940747  
  4780.000000   3942939   3945121   3947289   3949452   3951595  
  4770.000000   3953710   3955766   3957746   3959620   3961385  
  4760.000000   3963024   3964551   3965954   3967244   3968404  
  4750.000000   3969438   3970324   3971068   3971650   3972082  
  4740.000000   3972343   3972443   3972360   3972105   3971661  
  4730.000000   3971048   3970260   3969322   3968231   3967006  
  4720.000000   3965641   3964150   3962530   3960801   3958971  
  4710.000000   3957067   3955104   3953111   3951099   3949094  
  4700.000000   3947106   3945157   3943257   3941417   3939635  
  4690.000000   3937907   3936212   3934532   3932844   3931127  
  4680.000000   3929372   3927567   3925713   3923806   3921849  
  4670.000000   3919839   3917786   3915696   3913599   3911520  
  4660.000000   3909507   3907598   3905843   3904271   3902911  
  4650.000000   3901769   3900850   3900134   3899611   3899253  
  4640.000000   3899044   3898957   3898982   3899094   3899279  
  4630.000000   3899510   3899765   3900015   3900237   3900409  
  4620.000000   3900521   3900564   3900540   3900443   3900272  
  4610.000000   3900017   3899674   3899243   3898732   3898169  
  4600.000000   3897586   3897025   3896517   3896088   3895736  
  4590.000000   3895453   3895206   3894970   3894707   3894399  
  4580.000000   3894022   3893575   3893050   3892453   3891786  
  4570.000000   3891058   3890267   3889413   3888480   3887455  
  4560.000000   3886310   3885031   3883604   3882041   3880355  
  4550.000000   3878582   3876750   3874892   3873019   3871144  
  4540.000000   3869265   3867388   3865519   3863669   3861856  
  4530.000000   3860085   3858367   3856687   3855050   3853438  
  4520.000000   3851874   3850357   3848948   3847662   3846578  
  4510.000000   3845712   3845147   3844895   3845043   3845601  
  4500.000000   3846659   3848209   3850329   3852989   3856252  
  4490.000000   3860079   3864539   3869605   3875357   3881766  
  4480.000000   3888896   3896691   3905181   3914283   3924005  
  4470.000000   3934261   3945050   3956287   3967961   3979982  
  4460.000000   3992330   4004918   4017727   4030688   4043787  
  4450.000000   4056964   4070201   4083444   4096669   4109842  
  4440.000000   4122948   4135986   4148954   4161871   4174725  
  4430.000000   4187537   4200271   4212939   4225484   4237913  
  4420.000000   4250145   4262175   4273893   4285271   4296174  
  4410.000000   4306562   4316292   4325329   4333539   4340904  
  4400.000000   4347322   4352807   4357307   4360891   4363573  
  4390.000000   4365481   4366687   4367348   4367561   4367474  
  4380.000000   4367174   4366786   4366389   4366096   4365993  
  4370.000000   4366189   4366774   4367832   4369430   4371596  
  4360.000000   4374345   4377648   4381468   4385733   4390376  
  4350.000000   4395321   4400504   4405888   4411449   4417201  
  4340.000000   4423145   4429281   4435543   4441800   4447820  
  4330.000000   4453307   4457918   4461348   4463377   4463952  
  4320.000000   4463187   4461383   4458930   4456289   4453839  
  4310.000000   4451900   4450612   4450031   4450069   4450623  
  4300.000000   4451530   4452672   4453924   4455202   4456434  
  4290.000000   4457566   4458567   4459417   4460129   4460723  
  4280.000000   4461236   4461713   4462190   4462717   4463317  
  4270.000000   4464038   4464881   4465849   4466868   4467836  
  4260.000000   4468571   4468881   4468558   4467464   4465532  
  4250.000000   4462822   4459482   4455753   4451878   4448106  
  4240.000000   4444595   4441448   4438657   4436177   4433902  
  4230.000000   4431738   4429581   4427365   4425039   4422574  
  4220.000000   4419969   4417223   4414373   4411449   4408519  
  4210.000000   4405633   4402873   4400285   4397939   4395860  
  4200.000000   4394091   4392627   4391482   4390621   4390036  
  4190.000000   4389666   4389498   4389471   4389598   4389844  
  4180.000000   4390260   4390844   4391668   4392739   4394137  
  4170.000000   4395865   4398010   4400580   4403663   4407259  
  4160.000000   4411434   4416146   4421420   4427171   4433400  
  4150.000000   4440018   4447048   4454434   4462239   4470442  
  4140.000000   4479134   4488308   4498052   4508348   4519255  
  4130.000000   4530724   4542776   4555331   4568389   4581869  
  4120.000000   4595778   4610061   4624746   4639802   4655262  
  4110.000000   4671093   4687317   4703886   4720799   4737997  
  4100.000000   4755463   4773140   4791009   4809029   4827191  
  4090.000000   4845478   4863888   4882414   4901046   4919778  
  4080.000000   4938594   4957498   4976468   4995516   5014603  
  4070.000000   5033719   5052784   5071765   5090560   5109145  
  4060.000000   5127434   5145436   5163072   5180356   5197190  
  4050.000000   5213581   5229424   5244752   5259476   5273655  
  4040.000000   5287191   5300125   5312321   5323806   5334443  
  4030.000000   5344287   5353227   5361325   5368461   5374651  
  4020.000000   5379717   5383688   5386508   5388290   5389009  
  4010.000000   5388890   5388075   5386623   5384270   5381094  
  4000.000000   5377498  
##END= 
