##TITLE= Sample 041 By ssteindl date Donnerstag, November 22 2018
##JCAMP-DX= 4.24
##DATA TYPE= INFRARED SPECTRUM
##ORIGIN= Exported PE Spectrum Data File
##OWNER= Sandra Steindl
##DATE= 18/11/22
##TIME= 12:19:09.00
##SPECTROMETER/DATA SYSTEM= PERKIN-ELMER Frontier FT-IR/NIR IR
##INSTRUMENT PARAMETERS=
  APODIZATION=stark
  DETECTOR=INGAAS
##RESOLUTION= 16.000000
##DELTAX= -2.000000
##XUNITS= 1/CM
##YUNITS= A
##XFACTOR= 1.00
##YFACTOR= 0.00000011920928955078
##FIRSTX= 10000.00
##LASTX= 4000.00
##NPOINTS= 3001
##FIRSTY= 0.219878
##MAXY= 0.633249
##MINY= 0.188246
##XYDATA= (X++(Y..Y))
 10000.000000   1844469   1840328   1837105   1835861   1836482  
  9990.000000   1838086   1840193   1842890   1846400   1850756  
  9980.000000   1855810   1861012   1865352   1867681   1867308  
  9970.000000   1864356   1859847   1855416   1852711   1852763  
  9960.000000   1855528   1859955   1864356   1867106   1867207  
  9950.000000   1864618   1860108   1854863   1849912   1845834  
  9940.000000   1842630   1839971   1837508   1835129   1833061  
  9930.000000   1831698   1831345   1831976   1833116   1834029  
  9920.000000   1833959   1832492   1829735   1826275   1823001  
  9910.000000   1820727   1819960   1820709   1822528   1824680  
  9900.000000   1826370   1826989   1826258   1824266   1821414  
  9890.000000   1818271   1815435   1813362   1812281   1812121  
  9880.000000   1812539   1813016   1812988   1812063   1810119  
  9870.000000   1807416   1804509   1802114   1800880   1801146  
  9860.000000   1802810   1805269   1807592   1808735   1807942  
  9850.000000   1804946   1800180   1794606   1789481   1785936  
  9840.000000   1784617   1785524   1788032   1791214   1794188  
  9830.000000   1796489   1798151   1799636   1801499   1804079  
  9820.000000   1807258   1810452   1812844   1813680   1812615  
  9810.000000   1809799   1805837   1801535   1797618   1794564  
  9800.000000   1792492   1791307   1790746   1790585   1790588  
  9790.000000   1790578   1790339   1789650   1788353   1786413  
  9780.000000   1784044   1781585   1779453   1777853   1776714  
  9770.000000   1775636   1774105   1771765   1768679   1765447  
  9760.000000   1763039   1762487   1764426   1768838   1774924  
  9750.000000   1781380   1786756   1789927   1790430   1788503  
  9740.000000   1785011   1781010   1777462   1774860   1773176  
  9730.000000   1771923   1770406   1768033   1764547   1760216  
  9720.000000   1755744   1752160   1750403   1751106   1754231  
  9710.000000   1759095   1764468   1768952   1771413   1771315  
  9700.000000   1768910   1765070   1760986   1757673   1755654  
  9690.000000   1754762   1754354   1753561   1751782   1748840  
  9680.000000   1745101   1741241   1737950   1735706   1734587  
  9670.000000   1734434   1734940   1735944   1737463   1739722  
  9660.000000   1742972   1747324   1752583   1758209   1763402  
  9650.000000   1767248   1768980   1768096   1764565   1758764  
  9640.000000   1751477   1743709   1736479   1730659   1726710  
  9630.000000   1724710   1724288   1724881   1725870   1726816  
  9620.000000   1727515   1727955   1728195   1728171   1727677  
  9610.000000   1726360   1723946   1720401   1716084   1711732  
  9600.000000   1708280   1706605   1707237   1710188   1714915  
  9590.000000   1720450   1725638   1729363   1730792   1729471  
  9580.000000   1725453   1719256   1711855   1704485   1698435  
  9570.000000   1694722   1693830   1695560   1699075   1703179  
  9560.000000   1706692   1708846   1709448   1708876   1707767  
  9550.000000   1706728   1706059   1705731   1705529   1705282  
  9540.000000   1705074   1705213   1706095   1707915   1710463  
  9530.000000   1713083   1714836   1714852   1712647   1708343  
  9520.000000   1702639   1696578   1691245   1687451   1685594  
  9510.000000   1685646   1687239   1689829   1692755   1695374  
  9500.000000   1697073   1697447   1696381   1694201   1691633  
  9490.000000   1689622   1689018   1690181   1692824   1695984  
  9480.000000   1698414   1698959   1697031   1692776   1687013  
  9470.000000   1680927   1675620   1671813   1669678   1669022  
  9460.000000   1669481   1670806   1672873   1675647   1678960  
  9450.000000   1682446   1685525   1687576   1688161   1687147  
  9440.000000   1684833   1681709   1678374   1675192   1672301  
  9430.000000   1669620   1667014   1664500   1662225   1660526  
  9420.000000   1659695   1659964   1661344   1663714   1666792  
  9410.000000   1670228   1673578   1676313   1677876   1677733  
  9400.000000   1675609   1671572   1666188   1660367   1655157  
  9390.000000   1651354   1649249   1648540   1648505   1648358  
  9380.000000   1647579   1646145   1644456   1643141   1642691  
  9370.000000   1643236   1644500   1645953   1647147   1647876  
  9360.000000   1648296   1648704   1649351   1650190   1650885  
  9350.000000   1650958   1650104   1648395   1646339   1644676  
  9340.000000   1644062   1644791   1646605   1648858   1650726  
  9330.000000   1651680   1651638   1651036   1650513   1650619  
  9320.000000   1651536   1652986   1654362   1654903   1654025  
  9310.000000   1651419   1647192   1641714   1635552   1629311  
  9300.000000   1623584   1618947   1615878   1614743   1615648  
  9290.000000   1618415   1622545   1627364   1632177   1636452  
  9280.000000   1639904   1642479   1644272   1645359   1645791  
  9270.000000   1645524   1644604   1643170   1641558   1640157  
  9260.000000   1639274   1638997   1639102   1639202   1638828  
  9250.000000   1637725   1635899   1633725   1631752   1630512  
  9240.000000   1630297   1631060   1632486   1634064   1635278  
  9230.000000   1635676   1635009   1633226   1630500   1627169  
  9220.000000   1623713   1620729   1618822   1618475   1619860  
  9210.000000   1622771   1626649   1630732   1634261   1636677  
  9200.000000   1637765   1637646   1636687   1635290   1633776  
  9190.000000   1632298   1630920   1629684   1628687   1628110  
  9180.000000   1628118   1628828   1630142   1631829   1633501  
  9170.000000   1634846   1635670   1635978   1635902   1635575  
  9160.000000   1635073   1634301   1633081   1631204   1628595  
  9150.000000   1625348   1621742   1618173   1615048   1612707  
  9140.000000   1611319   1610938   1611470   1612778   1614633  
  9130.000000   1616786   1618950   1620859   1622297   1623129  
  9120.000000   1623340   1622978   1622168   1620991   1619519  
  9110.000000   1617732   1615604   1613125   1610352   1607439  
  9100.000000   1604598   1602097   1600186   1599086   1598911  
  9090.000000   1599664   1601197   1603224   1605341   1607092  
  9080.000000   1608088   1608103   1607178   1605600   1603843  
  9070.000000   1602399   1601637   1601658   1602281   1603128  
  9060.000000   1603776   1603930   1603474   1602515   1601281  
  9050.000000   1600039   1598965   1598110   1597407   1596727  
  9040.000000   1595959   1595013   1593849   1592443   1590818  
  9030.000000   1589031   1587212   1585549   1584277   1583588  
  9020.000000   1583571   1584149   1585114   1586191   1587159  
  9010.000000   1587938   1588617   1589400   1590494   1591978  
  9000.000000   1593764   1595591   1597162   1598224   1598678  
  8990.000000   1598581   1598093   1597397   1596591   1595731  
  8980.000000   1594828   1593956   1593238   1592866   1592993  
  8970.000000   1593632   1594576   1595423   1595711   1595052  
  8960.000000   1593303   1590605   1587400   1584233   1581618  
  8950.000000   1579880   1579124   1579282   1580163   1581601  
  8940.000000   1583462   1585697   1588248   1591034   1593923  
  8930.000000   1596719   1599228   1601237   1602603   1603174  
  8920.000000   1602856   1601590   1599444   1596646   1593595  
  8910.000000   1590850   1588983   1588477   1589511   1591920  
  8900.000000   1595162   1598504   1601203   1602724   1602878  
  8890.000000   1601830   1600029   1597999   1596182   1594819  
  8880.000000   1593968   1593559   1593506   1593771   1594386  
  8870.000000   1595407   1596790   1598370   1599815   1600761  
  8860.000000   1600932   1600262   1598983   1597510   1596357  
  8850.000000   1595882   1596170   1596969   1597781   1598083  
  8840.000000   1597554   1596250   1594608   1593310   1593031  
  8830.000000   1594173   1596690   1600061   1603457   1606002  
  8820.000000   1607097   1606581   1604800   1602437   1600294  
  8810.000000   1599023   1598942   1599990   1601795   1603860  
  8800.000000   1605735   1607154   1608083   1608674   1609168  
  8790.000000   1609777   1610603   1611585   1612553   1613255  
  8780.000000   1613507   1613208   1612466   1611522   1610736  
  8770.000000   1610461   1610940   1612238   1614204   1616559  
  8760.000000   1618978   1621236   1623267   1625194   1627239  
  8750.000000   1629617   1632395   1635433   1638409   1640921  
  8740.000000   1642639   1643394   1643245   1642431   1641288  
  8730.000000   1640140   1639197   1638547   1638166   1637996  
  8720.000000   1637983   1638110   1638378   1638792   1639322  
  8710.000000   1639924   1640551   1641193   1641896   1642747  
  8700.000000   1643845   1645244   1646927   1648793   1650694  
  8690.000000   1652485   1654074   1655429   1656581   1657572  
  8680.000000   1658445   1659196   1659803   1660224   1660457  
  8670.000000   1660533   1660543   1660589   1660777   1661174  
  8660.000000   1661801   1662641   1663649   1664788   1666037  
  8650.000000   1667410   1668951   1670718   1672763   1675097  
  8640.000000   1677669   1680353   1682964   1685289   1687149  
  8630.000000   1688453   1689256   1689742   1690188   1690876  
  8620.000000   1692007   1693626   1695605   1697688   1699580  
  8610.000000   1701051   1701996   1702478   1702680   1702864  
  8600.000000   1703270   1704082   1705383   1707167   1709340  
  8590.000000   1711755   1714228   1716559   1718556   1720079  
  8580.000000   1721091   1721655   1721931   1722113   1722376  
  8570.000000   1722805   1723378   1723989   1724522   1724942  
  8560.000000   1725336   1725928   1726972   1728667   1731009  
  8550.000000   1733783   1736589   1738978   1740610   1741364  
  8540.000000   1741402   1741081   1740833   1740979   1741638  
  8530.000000   1742689   1743868   1744882   1745549   1745862  
  8520.000000   1745978   1746141   1746557   1747335   1748449  
  8510.000000   1749796   1751272   1752829   1754492   1756309  
  8500.000000   1758281   1760303   1762165   1763614   1764471  
  8490.000000   1764729   1764600   1764455   1764706   1765631  
  8480.000000   1767254   1769325   1771403   1773027   1773894  
  8470.000000   1773983   1773569   1773111   1773076   1773763  
  8460.000000   1775204   1777172   1779281   1781144   1782518  
  8450.000000   1783380   1783916   1784433   1785238   1786533  
  8440.000000   1788336   1790499   1792741   1794752   1796270  
  8430.000000   1797160   1797444   1797307   1797037   1796947  
  8420.000000   1797259   1798036   1799141   1800263   1801016  
  8410.000000   1801066   1800270   1798750   1796870   1795127  
  8400.000000   1793983   1793724   1794371   1795695   1797332  
  8390.000000   1798917   1800237   1801267   1802139   1803046  
  8380.000000   1804130   1805419   1806825   1808205   1809465  
  8370.000000   1810598   1811703   1812895   1814234   1815652  
  8360.000000   1816939   1817824   1818073   1817619   1816599  
  8350.000000   1815335   1814209   1813553   1813523   1814074  
  8340.000000   1814970   1815899   1816578   1816846   1816677  
  8330.000000   1816169   1815461   1814702   1813978   1813336  
  8320.000000   1812776   1812307   1811962   1811796   1811858  
  8310.000000   1812149   1812601   1813062   1813331   1813198  
  8300.000000   1812500   1811183   1809331   1807172   1805027  
  8290.000000   1803245   1802107   1801781   1802264   1803403  
  8280.000000   1804913   1806457   1807713   1808440   1808511  
  8270.000000   1807915   1806755   1805204   1803493   1801850  
  8260.000000   1800475   1799496   1798961   1798829   1798975  
  8250.000000   1799239   1799463   1799562   1799523   1799422  
  8240.000000   1799359   1799418   1799611   1799874   1800078  
  8230.000000   1800084   1799806   1799243   1798478   1797643  
  8220.000000   1796848   1796136   1795465   1794730   1793809  
  8210.000000   1792630   1791190   1789583   1787945   1786434  
  8200.000000   1785158   1784182   1783503   1783082   1782854  
  8190.000000   1782731   1782610   1782359   1781836   1780920  
  8180.000000   1779550   1777771   1775733   1773684   1771895  
  8170.000000   1770613   1769969   1769966   1770457   1771201  
  8160.000000   1771902   1772276   1772093   1771206   1769565  
  8150.000000   1767219   1764317   1761091   1757833   1754850  
  8140.000000   1752400   1750650   1749620   1749201   1749161  
  8130.000000   1749225   1749130   1748682   1747794   1746458  
  8120.000000   1744747   1742750   1740585   1738352   1736174  
  8110.000000   1734160   1732438   1731105   1730225   1729798  
  8100.000000   1729754   1729967   1730275   1730529   1730618  
  8090.000000   1730493   1730175   1729727   1729234   1728766  
  8080.000000   1728362   1728021   1727709   1727379   1726984  
  8070.000000   1726500   1725917   1725242   1724473   1723592  
  8060.000000   1722559   1721322   1719843   1718128   1716247  
  8050.000000   1714339   1712576   1711129   1710106   1709537  
  8040.000000   1709348   1709410   1709561   1709674   1709672  
  8030.000000   1709537   1709289   1708949   1708519   1707972  
  8020.000000   1707273   1706405   1705388   1704285   1703177  
  8010.000000   1702148   1701237   1700448   1699741   1699063  
  8000.000000   1698361   1697590   1696708   1695664   1694400  
  7990.000000   1692864   1691055   1689046   1687011   1685190  
  7980.000000   1683837   1683129   1683099   1683604   1684368  
  7970.000000   1685062   1685425   1685338   1684860   1684180  
  7960.000000   1683536   1683112   1682975   1683064   1683244  
  7950.000000   1683366   1683349   1683190   1682956   1682725  
  7940.000000   1682534   1682352   1682090   1681644   1680958  
  7930.000000   1680053   1679035   1678053   1677248   1676707  
  7920.000000   1676433   1676372   1676434   1676549   1676677  
  7910.000000   1676823   1677003   1677224   1677455   1677632  
  7900.000000   1677673   1677502   1677087   1676442   1675639  
  7890.000000   1674770   1673939   1673223   1672662   1672253  
  7880.000000   1671958   1671718   1671474   1671185   1670843  
  7870.000000   1670469   1670115   1669837   1669680   1669660  
  7860.000000   1669754   1669912   1670072   1670188   1670248  
  7850.000000   1670275   1670320   1670432   1670636   1670915  
  7840.000000   1671212   1671446   1671533   1671420   1671086  
  7830.000000   1670566   1669916   1669224   1668566   1668016  
  7820.000000   1667606   1667341   1667173   1667021   1666773  
  7810.000000   1666321   1665582   1664532   1663213   1661731  
  7800.000000   1660225   1658829   1657633   1656670   1655912  
  7790.000000   1655293   1654743   1654210   1653669   1653126  
  7780.000000   1652593   1652083   1651601   1651143   1650709  
  7770.000000   1650304   1649942   1649626   1649352   1649090  
  7760.000000   1648796   1648425   1647955   1647398   1646801  
  7750.000000   1646234   1645764   1645430   1645228   1645113  
  7740.000000   1645009   1644828   1644495   1643957   1643198  
  7730.000000   1642241   1641149   1640019   1638974   1638140  
  7720.000000   1637615   1637447   1637610   1638006   1638486  
  7710.000000   1638886   1639072   1638967   1638562   1637912  
  7700.000000   1637104   1636239   1635405   1634670   1634084  
  7690.000000   1633669   1633426   1633315   1633258   1633148  
  7680.000000   1632867   1632333   1631526   1630514   1629442  
  7670.000000   1628487   1627807   1627491   1627533   1627837  
  7660.000000   1628262   1628663   1628944   1629066   1629047  
  7650.000000   1628922   1628721   1628448   1628088   1627627  
  7640.000000   1627079   1626490   1625943   1625519   1625273  
  7630.000000   1625201   1625243   1625290   1625230   1624979  
  7620.000000   1624515   1623877   1623169   1622514   1622042  
  7610.000000   1621848   1621977   1622421   1623119   1623984  
  7600.000000   1624917   1625828   1626660   1627375   1627971  
  7590.000000   1628446   1628811   1629055   1629174   1629160  
  7580.000000   1629030   1628830   1628645   1628583   1628755  
  7570.000000   1629244   1630083   1631235   1632601   1634040  
  7560.000000   1635401   1636558   1637442   1638048   1638444  
  7550.000000   1638738   1639067   1639536   1640205   1641064  
  7540.000000   1642051   1643069   1644036   1644906   1645699  
  7530.000000   1646482   1647349   1648374   1649583   1650933  
  7520.000000   1652344   1653715   1654986   1656149   1657268  
  7510.000000   1658436   1659749   1661250   1662931   1664716  
  7500.000000   1666511   1668215   1669775   1671170   1672433  
  7490.000000   1673604   1674738   1675878   1677073   1678368  
  7480.000000   1679814   1681449   1683296   1685343   1687545  
  7470.000000   1689830   1692131   1694394   1696606   1698779  
  7460.000000   1700945   1703120   1705309   1707482   1709618  
  7450.000000   1711695   1713726   1715741   1717781   1719868  
  7440.000000   1721994   1724121   1726205   1728220   1730182  
  7430.000000   1732157   1734240   1736521   1739043   1741779  
  7420.000000   1744639   1747491   1750208   1752705   1754967  
  7410.000000   1757043   1759028   1761020   1763095   1765276  
  7400.000000   1767541   1769825   1772052   1774152   1776092  
  7390.000000   1777878   1779562   1781232   1782987   1784927  
  7380.000000   1787114   1789573   1792269   1795126   1798044  
  7370.000000   1800920   1803671   1806237   1808593   1810735  
  7360.000000   1812687   1814474   1816146   1817755   1819362  
  7350.000000   1821031   1822818   1824769   1826898   1829206  
  7340.000000   1831671   1834275   1836989   1839780   1842600  
  7330.000000   1845373   1848005   1850386   1852431   1854101  
  7320.000000   1855433   1856540   1857588   1858774   1860256  
  7310.000000   1862141   1864426   1867033   1869794   1872528  
  7300.000000   1875054   1877248   1879038   1880425   1881457  
  7290.000000   1882217   1882794   1883266   1883692   1884112  
  7280.000000   1884548   1885015   1885525   1886091   1886714  
  7270.000000   1887394   1888117   1888868   1889642   1890449  
  7260.000000   1891329   1892330   1893509   1894893   1896476  
  7250.000000   1898198   1899974   1901698   1903306   1904763  
  7240.000000   1906110   1907412   1908765   1910225   1911827  
  7230.000000   1913536   1915315   1917106   1918898   1920699  
  7220.000000   1922571   1924578   1926797   1929276   1932051  
  7210.000000   1935117   1938463   1942035   1945780   1949605  
  7200.000000   1953437   1957188   1960826   1964336   1967781  
  7190.000000   1971235   1974812   1978584   1982606   1986858  
  7180.000000   1991296   1995837   2000424   2005013   2009612  
  7170.000000   2014232   2018911   2023648   2028445   2033259  
  7160.000000   2038071   2042849   2047619   2052408   2057297  
  7150.000000   2062353   2067662   2073272   2079215   2085472  
  7140.000000   2092004   2098729   2105578   2112469   2119369  
  7130.000000   2126242   2133095   2139909   2146685   2153381  
  7120.000000   2159979   2166446   2172816   2179150   2185572  
  7110.000000   2192201   2199146   2206439   2214048   2221861  
  7100.000000   2229751   2237594   2245341   2253000   2260656  
  7090.000000   2268397   2276307   2284408   2292681   2301061  
  7080.000000   2309490   2317914   2326321   2334706   2343075  
  7070.000000   2351409   2359675   2367825   2375826   2383662  
  7060.000000   2391359   2398962   2406536   2414134   2421802  
  7050.000000   2429569   2437447   2445443   2453543   2461721  
  7040.000000   2469924   2478093   2486165   2494105   2501909  
  7030.000000   2509618   2517293   2524989   2532721   2540455  
  7020.000000   2548101   2555560   2562741   2569625   2576245  
  7010.000000   2582710   2589134   2595629   2602235   2608947  
  7000.000000   2615680   2622340   2628815   2635044   2640992  
  6990.000000   2646693   2652194   2657577   2662896   2668201  
  6980.000000   2673486   2678731   2683872   2688865   2693659  
  6970.000000   2698264   2702696   2707025   2711297   2715560  
  6960.000000   2719806   2724014   2728119   2732076   2735839  
  6950.000000   2739410   2742797   2746037   2749148   2752158  
  6940.000000   2755070   2757903   2760666   2763387   2766075  
  6930.000000   2768737   2771343   2773861   2776243   2778472  
  6920.000000   2780553   2782538   2784487   2786471   2788518  
  6910.000000   2790627   2792752   2794838   2796830   2798699  
  6900.000000   2800444   2802087   2803658   2805183   2806678  
  6890.000000   2808153   2809616   2811082   2812568   2814095  
  6880.000000   2815671   2817294   2818945   2820605   2822243  
  6870.000000   2823842   2825386   2826868   2828284   2829635  
  6860.000000   2830921   2832151   2833332   2834473   2835572  
  6850.000000   2836624   2837617   2838546   2839419   2840269  
  6840.000000   2841135   2842068   2843090   2844202   2845358  
  6830.000000   2846499   2847557   2848490   2849285   2849964  
  6820.000000   2850565   2851132   2851687   2852248   2852811  
  6810.000000   2853381   2853956   2854545   2855140   2855727  
  6800.000000   2856266   2856723   2857062   2857279   2857381  
  6790.000000   2857400   2857356   2857260   2857097   2856854  
  6780.000000   2856522   2856125   2855702   2855311   2854976  
  6770.000000   2854693   2854410   2854062   2853597   2853017  
  6760.000000   2852373   2851763   2851275   2850960   2850793  
  6750.000000   2850688   2850525   2850205   2849675   2848949  
  6740.000000   2848081   2847146   2846199   2845274   2844380  
  6730.000000   2843538   2842779   2842151   2841689   2841388  
  6720.000000   2841175   2840927   2840488   2839740   2838635  
  6710.000000   2837228   2835648   2834063   2832621   2831412  
  6700.000000   2830444   2829668   2828989   2828312   2827549  
  6690.000000   2826639   2825537   2824227   2822716   2821057  
  6680.000000   2819330   2817645   2816105   2814778   2813664  
  6670.000000   2812707   2811796   2810822   2809697   2808395  
  6660.000000   2806933   2805363   2803732   2802068   2800369  
  6650.000000   2798623   2796818   2794972   2793115   2791297  
  6640.000000   2789552   2787899   2786323   2784803   2783303  
  6630.000000   2781798   2780264   2778679   2777013   2775232  
  6620.000000   2773304   2771222   2769010   2766730   2764460  
  6610.000000   2762279   2760234   2758332   2756540   2754809  
  6600.000000   2753083   2751329   2749531   2747687   2745797  
  6590.000000   2743861   2741877   2739849   2737802   2735766  
  6580.000000   2733782   2731871   2730032   2728235   2726435  
  6570.000000   2724595   2722700   2720767   2718840   2716967  
  6560.000000   2715184   2713506   2711929   2710437   2709023  
  6550.000000   2707687   2706435   2705258   2704128   2702990  
  6540.000000   2701787   2700467   2699022   2697481   2695916  
  6530.000000   2694405   2693015   2691777   2690687   2689710  
  6520.000000   2688801   2687920   2687033   2686119   2685155  
  6510.000000   2684122   2683007   2681808   2680545   2679252  
  6500.000000   2677970   2676720   2675503   2674292   2673049  
  6490.000000   2671749   2670398   2669043   2667756   2666610  
  6480.000000   2665652   2664880   2664250   2663688   2663124  
  6470.000000   2662503   2661803   2661021   2660169   2659252  
  6460.000000   2658277   2657250   2656193   2655142   2654146  
  6450.000000   2653253   2652488   2651843   2651278   2650736  
  6440.000000   2650161   2649516   2648791   2647998   2647164  
  6430.000000   2646309   2645452   2644598   2643752   2642917  
  6420.000000   2642101   2641309   2640546   2639810   2639103  
  6410.000000   2638426   2637794   2637226   2636741   2636342  
  6400.000000   2636016   2635730   2635445   2635128   2634768  
  6390.000000   2634377   2633983   2633610   2633267   2632939  
  6380.000000   2632590   2632182   2631694   2631127   2630510  
  6370.000000   2629886   2629291   2628746   2628249   2627786  
  6360.000000   2627335   2626883   2626423   2625952   2625466  
  6350.000000   2624953   2624396   2623785   2623117   2622412  
  6340.000000   2621696   2621004   2620355   2619757   2619196  
  6330.000000   2618657   2618117   2617571   2617016   2616458  
  6320.000000   2615893   2615313   2614691   2614001   2613211  
  6310.000000   2612307   2611276   2610125   2608862   2607513  
  6300.000000   2606099   2604661   2603229   2601839   2600497  
  6290.000000   2599194   2597882   2596509   2595013   2593368  
  6280.000000   2591566   2589647   2587654   2585640   2583630  
  6270.000000   2581631   2579622   2577589   2575517   2573419  
  6260.000000   2571315   2569232   2567178   2565152   2563131  
  6250.000000   2561098   2559038   2556961   2554887   2552842  
  6240.000000   2550837   2548871   2546921   2544961   2542963  
  6230.000000   2540910   2538794   2536613   2534363   2532039  
  6220.000000   2529638   2527166   2524644   2522110   2519603  
  6210.000000   2517160   2514798   2512512   2510277   2508067  
  6200.000000   2505855   2503632   2501398   2499162   2496932  
  6190.000000   2494709   2492491   2490276   2488067   2485868  
  6180.000000   2483684   2481511   2479336   2477139   2474903  
  6170.000000   2472630   2470341   2468080   2465898   2463835  
  6160.000000   2461907   2460099   2458374   2456681   2454979  
  6150.000000   2453240   2451461   2449645   2447809   2445961  
  6140.000000   2444113   2442271   2440451   2438668   2436938  
  6130.000000   2435268   2433656   2432087   2430544   2429013  
  6120.000000   2427497   2426005   2424558   2423164   2421827  
  6110.000000   2420528   2419251   2417975   2416704   2415452  
  6100.000000   2414251   2413128   2412102   2411170   2410317  
  6090.000000   2409511   2408733   2407962   2407197   2406434  
  6080.000000   2405679   2404925   2404175   2403424   2402684  
  6070.000000   2401964   2401286   2400662   2400108   2399622  
  6060.000000   2399213   2398880   2398639   2398497   2398465  
  6050.000000   2398532   2398683   2398883   2399111   2399346  
  6040.000000   2399608   2399917   2400319   2400835   2401475  
  6030.000000   2402213   2403012   2403824   2404624   2405406  
  6020.000000   2406193   2407017   2407914   2408898   2409971  
  6010.000000   2411108   2412283   2413457   2414609   2415713  
  6000.000000   2416764   2417755   2418698   2419610   2420525  
  5990.000000   2421474   2422496   2423606   2424819   2426122  
  5980.000000   2427507   2428957   2430472   2432049   2433698  
  5970.000000   2435415   2437195   2439016   2440866   2442731  
  5960.000000   2444626   2446565   2448577   2450672   2452854  
  5950.000000   2455095   2457371   2459648   2461918   2464186  
  5940.000000   2466479   2468818   2471223   2473690   2476206  
  5930.000000   2478747   2481296   2483843   2486389   2488935  
  5920.000000   2491476   2493994   2496468   2498874   2501207  
  5910.000000   2503470   2505682   2507860   2510017   2512149  
  5900.000000   2514249   2516309   2518339   2520367   2522432  
  5890.000000   2524578   2526831   2529192   2531636   2534124  
  5880.000000   2536616   2539080   2541507   2543895   2546252  
  5870.000000   2548580   2550879   2553139   2555362   2557550  
  5860.000000   2559720   2561887   2564062   2566243   2568426  
  5850.000000   2570603   2572775   2574960   2577188   2579494  
  5840.000000   2581904   2584428   2587058   2589769   2592530  
  5830.000000   2595316   2598104   2600880   2603628   2606331  
  5820.000000   2608972   2611539   2614026   2616446   2618811  
  5810.000000   2621142   2623439   2625701   2627896   2630014  
  5800.000000   2632030   2633964   2635822   2637641   2639417  
  5790.000000   2641152   2642793   2644293   2645573   2646585  
  5780.000000   2647272   2647615   2647592   2647210   2646473  
  5770.000000   2645417   2644089   2642569   2640943   2639310  
  5760.000000   2637748   2636319   2635050   2633957   2633036  
  5750.000000   2632287   2631707   2631296   2631045   2630934  
  5740.000000   2630939   2631020   2631156   2631318   2631502  
  5730.000000   2631693   2631893   2632082   2632255   2632398  
  5720.000000   2632521   2632639   2632789   2633002   2633308  
  5710.000000   2633711   2634203   2634759   2635356   2635973  
  5700.000000   2636605   2637252   2637920   2638611   2639321  
  5690.000000   2640050   2640794   2641560   2642352   2643175  
  5680.000000   2644020   2644868   2645680   2646423   2647054  
  5670.000000   2647557   2647911   2648119   2648173   2648074  
  5660.000000   2647812   2647394   2646825   2646137   2645360  
  5650.000000   2644538   2643695   2642854   2642014   2641179  
  5640.000000   2640342   2639512   2638692   2637894   2637117  
  5630.000000   2636357   2635604   2634852   2634107   2633383  
  5620.000000   2632704   2632085   2631527   2631010   2630502  
  5610.000000   2629966   2629380   2628742   2628071   2627398  
  5600.000000   2626750   2626144   2625576   2625031   2624487  
  5590.000000   2623927   2623336   2622708   2622032   2621302  
  5580.000000   2620506   2619640   2618707   2617727   2616720  
  5570.000000   2615708   2614699   2613687   2612655   2611587  
  5560.000000   2610473   2609321   2608149   2606981   2605832  
  5550.000000   2604702   2603578   2602442   2601282   2600100  
  5540.000000   2598914   2597748   2596624   2595554   2594537  
  5530.000000   2593562   2592615   2591683   2590758   2589832  
  5520.000000   2588895   2587933   2586934   2585896   2584826  
  5510.000000   2583748   2582684   2581654   2580656   2579673  
  5500.000000   2578670   2577618   2576497   2575313   2574085  
  5490.000000   2572843   2571603   2570366   2569112   2567822  
  5480.000000   2566474   2565072   2563629   2562175   2560724  
  5470.000000   2559284   2557836   2556354   2554801   2553157  
  5460.000000   2551406   2549548   2547584   2545523   2543375  
  5450.000000   2541160   2538908   2536658   2534450   2532312  
  5440.000000   2530255   2528265   2526323   2524408   2522518  
  5430.000000   2520657   2518845   2517084   2515373   2513681  
  5420.000000   2511994   2510300   2508636   2507055   2505644  
  5410.000000   2504459   2503537   2502847   2502345   2501955  
  5400.000000   2501640   2501373   2501181   2501082   2501119  
  5390.000000   2501291   2501606   2502035   2502585   2503252  
  5380.000000   2504077   2505075   2506281   2507671   2509238  
  5370.000000   2510927   2512731   2514615   2516618   2518736  
  5360.000000   2521033   2523503   2526205   2529127   2532342  
  5350.000000   2535856   2539758   2544055   2548820   2554018  
  5340.000000   2559688   2565772   2572320   2579290   2586756  
  5330.000000   2594676   2603107   2611975   2621315   2631049  
  5320.000000   2641252   2651899   2663128   2674949   2687512  
  5310.000000   2700797   2714907   2729767   2745443   2761853  
  5300.000000   2779074   2797056   2815914   2835635   2856350  
  5290.000000   2878035   2900764   2924425   2948972   2974205  
  5280.000000   3000037   3026315   3053068   3080297   3108151  
  5270.000000   3136684   3165957   3195863   3226231   3256807  
  5260.000000   3287366   3317768   3347971   3378040   3408019  
  5250.000000   3437950   3467710   3497156   3526001   3554087  
  5240.000000   3581221   3607447   3632765   3657368   3681287  
  5230.000000   3704661   3727394   3749486   3770733   3791102  
  5220.000000   3810437   3828813   3846201   3862791   3878612  
  5210.000000   3893848   3908455   3922497   3935807   3948363  
  5200.000000   3959989   3970728   3980512   3989487   3997654  
  5190.000000   4005163   4011981   4018199   4023740   4028677  
  5180.000000   4032948   4036646   4039721   4042247   4044146  
  5170.000000   4045456   4046100   4046147   4045582   4044532  
  5160.000000   4043020   4041162   4038938   4036397   4033475  
  5150.000000   4030204   4026541   4022546   4018204   4013575  
  5140.000000   4008628   4003395   3997843   3992015   3985914  
  5130.000000   3979618   3973151   3966577   3959885   3953092  
  5120.000000   3946161   3939105   3931915   3924638   3917296  
  5110.000000   3909937   3902564   3895190   3887788   3880356  
  5100.000000   3872881   3865381   3857860   3850340   3842814  
  5090.000000   3835282   3827722   3820134   3812511   3804873  
  5080.000000   3797230   3789601   3781978   3774353   3766695  
  5070.000000   3758988   3751209   3743361   3735447   3727484  
  5060.000000   3719475   3711429   3703340   3695213   3687049  
  5050.000000   3678861   3670660   3662459   3654261   3646066  
  5040.000000   3637869   3629670   3621477   3613306   3605187  
  5030.000000   3597140   3589190   3581340   3573593   3565933  
  5020.000000   3558359   3550862   3543459   3536153   3528975  
  5010.000000   3521934   3515056   3508340   3501808   3495445  
  5000.000000   3489271   3483266   3477448   3471795   3466332  
  4990.000000   3461045   3455971   3451106   3446500   3442146  
  4980.000000   3438089   3434309   3430841   3427658   3424798  
  4970.000000   3422241   3420034   3418156   3416649   3415476  
  4960.000000   3414666   3414173   3414030   3414203   3414746  
  4950.000000   3415636   3416926   3418577   3420614   3422973  
  4940.000000   3425665   3428632   3431906   3435459   3439346  
  4930.000000   3443552   3448125   3453033   3458298   3463870  
  4920.000000   3469760   3475917   3482354   3489028   3495951  
  4910.000000   3503085   3510443   3517994   3525753   3533700  
  4900.000000   3541851   3550186   3558710   3567398   3576238  
  4890.000000   3585195   3594243   3603345   3612466   3621570  
  4880.000000   3630624   3639605   3648491   3657276   3665945  
  4870.000000   3674494   3682898   3691146   3699202   3707058  
  4860.000000   3714689   3722109   3729311   3736325   3743146  
  4850.000000   3749800   3756271   3762581   3768715   3774702  
  4840.000000   3780537   3786253   3791838   3797313   3802646  
  4830.000000   3807839   3812855   3817697   3822338   3826794  
  4820.000000   3831055   3835145   3839062   3842833   3846455  
  4810.000000   3849955   3853328   3856595   3859749   3862804  
  4800.000000   3865756   3868623   3871406   3874128   3876789  
  4790.000000   3879404   3881958   3884456   3886878   3889233  
  4780.000000   3891516   3893750   3895939   3898100   3900219  
  4770.000000   3902290   3904272   3906147   3907880   3909470  
  4760.000000   3910903   3912198   3913348   3914368   3915235  
  4750.000000   3915950   3916479   3916818   3916942   3916864  
  4740.000000   3916574   3916100   3915444   3914641   3913692  
  4730.000000   3912623   3911422   3910097   3908622   3906997  
  4720.000000   3905205   3903262   3901177   3898991   3896733  
  4710.000000   3894445   3892143   3889845   3887543   3885235  
  4700.000000   3882910   3880570   3878218   3875872   3873545  
  4690.000000   3871255   3869011   3866817   3864668   3862551  
  4680.000000   3860446   3858324   3856160   3853923   3851600  
  4670.000000   3849180   3846683   3844133   3841579   3839062  
  4660.000000   3836631   3834313   3832138   3830113   3828255  
  4650.000000   3826564   3825056   3823732   3822601   3821652  
  4640.000000   3820878   3820255   3819767   3819391   3819119  
  4630.000000   3818932   3818819   3818753   3818708   3818644  
  4620.000000   3818531   3818337   3818050   3817667   3817200  
  4610.000000   3816662   3816073   3815450   3814811   3814177  
  4600.000000   3813567   3813003   3812498   3812058   3811671  
  4590.000000   3811321   3810975   3810613   3810208   3809755  
  4580.000000   3809244   3808682   3808061   3807381   3806627  
  4570.000000   3805795   3804871   3803859   3802759   3801581  
  4560.000000   3800326   3799002   3797600   3796121   3794556  
  4550.000000   3792911   3791187   3789395   3787548   3785658  
  4540.000000   3783742   3781814   3779895   3777998   3776145  
  4530.000000   3774342   3772606   3770931   3769337   3767819  
  4520.000000   3766412   3765123   3764005   3763062   3762351  
  4510.000000   3761864   3761658   3761722   3762131   3762891  
  4500.000000   3764099   3765768   3767996   3770777   3774195  
  4490.000000   3778221   3782926   3788273   3794326   3801037  
  4480.000000   3808452   3816500   3825203   3834478   3844337  
  4470.000000   3854701   3865582   3876904   3888669   3900796  
  4460.000000   3913272   3926017   3939010   3952182   3965510  
  4450.000000   3978929   3992408   4005885   4019326   4032694  
  4440.000000   4045974   4059170   4072290   4085362   4098383  
  4430.000000   4111376   4124298   4137150   4149853   4162396  
  4420.000000   4174675   4186677   4198284   4209480   4220136  
  4410.000000   4230229   4239624   4248291   4256100   4263031  
  4400.000000   4268981   4273970   4277956   4281021   4283193  
  4390.000000   4284608   4285340   4285542   4285298   4284745  
  4380.000000   4283962   4283067   4282141   4281298   4280628  
  4370.000000   4280237   4280216   4280641   4281581   4283070  
  4360.000000   4285141   4287786   4291002   4294741   4298958  
  4350.000000   4303581   4308542   4313779   4319248   4324932  
  4340.000000   4330826   4336922   4343172   4349466   4355606  
  4330.000000   4361320   4366286   4370200   4372833   4374109  
  4320.000000   4374112   4373113   4371475   4369636   4367956  
  4310.000000   4366730   4366071   4366002   4366400   4367135  
  4300.000000   4368028   4368972   4369867   4370678   4371380  
  4290.000000   4371970   4372447   4372814   4373083   4373279  
  4280.000000   4373436   4373608   4373840   4374192   4374687  
  4270.000000   4375361   4376189   4377146   4378134   4379044  
  4260.000000   4379702   4379943   4379593   4378540   4376732  
  4250.000000   4374223   4371135   4367674   4364053   4360493  
  4240.000000   4357144   4354116   4351420   4349037   4346885  
  4230.000000   4344892   4342964   4341034   4339040   4336932  
  4220.000000   4334683   4332268   4329703   4327010   4324257  
  4210.000000   4321505   4318851   4316355   4314091   4312079  
  4200.000000   4310344   4308861   4307624   4306590   4305753  
  4190.000000   4305074   4304567   4304207   4304034   4304037  
  4180.000000   4304274   4304736   4305486   4306509   4307868  
  4170.000000   4309555   4311650   4314160   4317182   4320722  
  4160.000000   4324858   4329557   4334849   4340656   4346984  
  4150.000000   4353744   4360958   4368564   4376615   4385080  
  4140.000000   4394032   4403454   4413425   4423920   4434999  
  4130.000000   4446616   4458796   4471465   4484625   4498199  
  4120.000000   4512199   4526571   4541350   4556506   4572076  
  4110.000000   4588026   4604376   4621078   4638129   4655470  
  4100.000000   4673085   4690913   4708930   4727086   4745365  
  4090.000000   4763743   4782219   4800794   4819476   4838279  
  4080.000000   4857198   4876243   4895387   4914623   4933890  
  4070.000000   4953159   4972339   4991396   5010233   5028837  
  4060.000000   5047129   5065121   5082730   5099971   5116746  
  4050.000000   5133074   5148864   5164172   5178921   5193183  
  4040.000000   5206856   5219976   5232395   5244131   5255037  
  4030.000000   5265166   5274405   5282816   5290273   5296784  
  4020.000000   5302156   5306398   5309427   5311334   5312079  
  4010.000000   5311880   5310871   5309145   5306484   5303012  
  4000.000000   5299130  
##END= 
