##TITLE= Sample 020 By ssteindl date Donnerstag, November 22 2018
##JCAMP-DX= 4.24
##DATA TYPE= INFRARED SPECTRUM
##ORIGIN= Exported PE Spectrum Data File
##OWNER= Sandra Steindl
##DATE= 18/11/22
##TIME= 10:46:21.00
##SPECTROMETER/DATA SYSTEM= PERKIN-ELMER Frontier FT-IR/NIR IR
##INSTRUMENT PARAMETERS=
  APODIZATION=stark
  DETECTOR=INGAAS
##RESOLUTION= 16.000000
##DELTAX= -2.000000
##XUNITS= 1/CM
##YUNITS= A
##XFACTOR= 1.00
##YFACTOR= 0.00000011920928955078
##FIRSTX= 10000.00
##LASTX= 4000.00
##NPOINTS= 3001
##FIRSTY= 0.220644
##MAXY= 0.665453
##MINY= 0.184728
##XYDATA= (X++(Y..Y))
 10000.000000   1850898   1850968   1851984   1855133   1860269  
  9990.000000   1866163   1871590   1875752   1878193   1878779  
  9980.000000   1877818   1875751   1872889   1869349   1865318  
  9970.000000   1861212   1857676   1855528   1855327   1857215  
  9960.000000   1860651   1864760   1868571   1871556   1873704  
  9950.000000   1875481   1877387   1879546   1881487   1882218  
  9940.000000   1880704   1876320   1869289   1860626   1851834  
  9930.000000   1844312   1838875   1835538   1833655   1832332  
  9920.000000   1830881   1829090   1827241   1825848   1825320  
  9910.000000   1825776   1826967   1828550   1830251   1832114  
  9900.000000   1834429   1837593   1841834   1847011   1852575  
  9890.000000   1857650   1861295   1862662   1861272   1856946  
  9880.000000   1849964   1840860   1830495   1819864   1810024  
  9870.000000   1801926   1796226   1793251   1792906   1794882  
  9860.000000   1798693   1803941   1810261   1817369   1824893  
  9850.000000   1832306   1838945   1844101   1847297   1848390  
  9840.000000   1847715   1845888   1843635   1841493   1839681  
  9830.000000   1838096   1836421   1834356   1831672   1828356  
  9820.000000   1824443   1820058   1815263   1810207   1805127  
  9810.000000   1800469   1796796   1794623   1794193   1795269  
  9800.000000   1797163   1798895   1799582   1798735   1796489  
  9790.000000   1793486   1790640   1788731   1788153   1788805  
  9780.000000   1790231   1791864   1793262   1794251   1794867  
  9770.000000   1795256   1795493   1795548   1795279   1794552  
  9760.000000   1793304   1791567   1789431   1786951   1784140  
  9750.000000   1780961   1777422   1773652   1769925   1766611  
  9740.000000   1764025   1762306   1761323   1760762   1760253  
  9730.000000   1759585   1758796   1758160   1758037   1758645  
  9720.000000   1759953   1761609   1763130   1764016   1764010  
  9710.000000   1763085   1761474   1759481   1757391   1755405  
  9700.000000   1753663   1752336   1751632   1751801   1753002  
  9690.000000   1755216   1758186   1761436   1764414   1766611  
  9680.000000   1767723   1767665   1766556   1764610   1762063  
  9670.000000   1759174   1756248   1753726   1752121   1751948  
  9660.000000   1753500   1756709   1761044   1765617   1769357  
  9650.000000   1771331   1770976   1768270   1763731   1758233  
  9640.000000   1752815   1748377   1745533   1744483   1744986  
  9630.000000   1746481   1748170   1749309   1749333   1748116  
  9620.000000   1745944   1743504   1741590   1740835   1741434  
  9610.000000   1743004   1744728   1745577   1744746   1741888  
  9600.000000   1737276   1731671   1726026   1721179   1717575  
  9590.000000   1715243   1713910   1713217   1712934   1712986  
  9580.000000   1713407   1714161   1715033   1715620   1715465  
  9570.000000   1714273   1712106   1709406   1706934   1705460  
  9560.000000   1705545   1707296   1710322   1713865   1717005  
  9550.000000   1718989   1719412   1718338   1716210   1713681  
  9540.000000   1711395   1709796   1709032   1708925   1709055  
  9530.000000   1708884   1707940   1705970   1703026   1699490  
  9520.000000   1695922   1692937   1690945   1690088   1690157  
  9510.000000   1690732   1691304   1691479   1691073   1690145  
  9500.000000   1688926   1687672   1686566   1685578   1684532  
  9490.000000   1683097   1681007   1678090   1674429   1670304  
  9480.000000   1666168   1662553   1659924   1658643   1658827  
  9470.000000   1660403   1663086   1666490   1670204   1673836  
  9460.000000   1677059   1679544   1681008   1681156   1679841  
  9450.000000   1677044   1673053   1668367   1663712   1659819  
  9440.000000   1657251   1656251   1656647   1658008   1659771  
  9430.000000   1661548   1663170   1664773   1666578   1668764  
  9420.000000   1671269   1673772   1675815   1676956   1677014  
  9410.000000   1676066   1674432   1672455   1670360   1668171  
  9400.000000   1665751   1662980   1659887   1656779   1654135  
  9390.000000   1652454   1651986   1652623   1653898   1655187  
  9380.000000   1655930   1655822   1654872   1653336   1651580  
  9370.000000   1649927   1648582   1647641   1647156   1647206  
  9360.000000   1647837   1649016   1650506   1651884   1652645  
  9350.000000   1652385   1650995   1648682   1645918   1643187  
  9340.000000   1640777   1638614   1636327   1633461   1629833  
  9330.000000   1625756   1622030   1619671   1619439   1621539  
  9320.000000   1625425   1630001   1633960   1636289   1636650  
  9310.000000   1635416   1633493   1631836   1631105   1631367  
  9300.000000   1632156   1632673   1632184   1630318   1627254  
  9290.000000   1623618   1620223   1617826   1616838   1617312  
  9280.000000   1618867   1620930   1622848   1624156   1624639  
  9270.000000   1624376   1623658   1622882   1622389   1622292  
  9260.000000   1622390   1622165   1621009   1618394   1614141  
  9250.000000   1608495   1602119   1595927   1590785   1587312  
  9240.000000   1585666   1585633   1586714   1588369   1590162  
  9230.000000   1591824   1593252   1594353   1595044   1595139  
  9220.000000   1594519   1593092   1590968   1588368   1585653  
  9210.000000   1583197   1581326   1580321   1580393   1581747  
  9200.000000   1584478   1588535   1593588   1599037   1604065  
  9190.000000   1607786   1609501   1608904   1606266   1602301  
  9180.000000   1597986   1594212   1591582   1590269   1590054  
  9170.000000   1590510   1591166   1591728   1592060   1592214  
  9160.000000   1592284   1592372   1592552   1592865   1593363  
  9150.000000   1594053   1594924   1595830   1596542   1596794  
  9140.000000   1596418   1595481   1594286   1593401   1593423  
  9130.000000   1594804   1597584   1601393   1605524   1609147  
  9120.000000   1611534   1612246   1611225   1608717   1605137  
  9110.000000   1600910   1596410   1591979   1587944   1584641  
  9100.000000   1582333   1581199   1581203   1582113   1583470  
  9090.000000   1584774   1585619   1585798   1585333   1584366  
  9080.000000   1583105   1581659   1580050   1578213   1576168  
  9070.000000   1574076   1572296   1571251   1571285   1572517  
  9060.000000   1574741   1577465   1580008   1581747   1582320  
  9050.000000   1581722   1580303   1578609   1577246   1576639  
  9040.000000   1576937   1577966   1579334   1580564   1581240  
  9030.000000   1581152   1580339   1579103   1577867   1577069  
  9020.000000   1576984   1577659   1578887   1580270   1581343  
  9010.000000   1581731   1581264   1580033   1578326   1576548  
  9000.000000   1575058   1574083   1573639   1573565   1573598  
  8990.000000   1573466   1572979   1572055   1570727   1569110  
  8980.000000   1567339   1565552   1563847   1562313   1561013  
  8970.000000   1560009   1559345   1559047   1559121   1559526  
  8960.000000   1560187   1560962   1561682   1562115   1562050  
  8950.000000   1561298   1559810   1557672   1555153   1552660  
  8940.000000   1550669   1549613   1549749   1551126   1553553  
  8930.000000   1556669   1560006   1563107   1565611   1567280  
  8920.000000   1568006   1567787   1566743   1565059   1562995  
  8910.000000   1560834   1558888   1557426   1556623   1556526  
  8900.000000   1557024   1557914   1558916   1559778   1560310  
  8890.000000   1560431   1560181   1559657   1559020   1558388  
  8880.000000   1557887   1557562   1557431   1557466   1557646  
  8870.000000   1557971   1558475   1559254   1560427   1562133  
  8860.000000   1564432   1567295   1570550   1573904   1576989  
  8850.000000   1579435   1580979   1581512   1581110   1579991  
  8840.000000   1578450   1576774   1575184   1573803   1572676  
  8830.000000   1571801   1571163   1570742   1570484   1570310  
  8820.000000   1570085   1569687   1569046   1568221   1567440  
  8810.000000   1567038   1567378   1568676   1570926   1573817  
  8800.000000   1576834   1579384   1581041   1581672   1581535  
  8790.000000   1581150   1581127   1581916   1583650   1586100  
  8780.000000   1588776   1591140   1592821   1593766   1594235  
  8770.000000   1594678   1595504   1596930   1598856   1600948  
  8760.000000   1602768   1603967   1604433   1604304   1603896  
  8750.000000   1603544   1603453   1603622   1603858   1603898  
  8740.000000   1603548   1602790   1601811   1600928   1600471  
  8730.000000   1600656   1601509   1602862   1604433   1605915  
  8720.000000   1607115   1607959   1608546   1609035   1609627  
  8710.000000   1610456   1611582   1612975   1614562   1616260  
  8700.000000   1618025   1619871   1621879   1624162   1626820  
  8690.000000   1629874   1633225   1636634   1639763   1642247  
  8680.000000   1643814   1644358   1644011   1643128   1642211  
  8670.000000   1641777   1642206   1643643   1645973   1648865  
  8660.000000   1651881   1654590   1656677   1658008   1658636  
  8650.000000   1658782   1658754   1658893   1659500   1660792  
  8640.000000   1662867   1665684   1669056   1672680   1676186  
  8630.000000   1679219   1681512   1682936   1683516   1683416  
  8620.000000   1682896   1682246   1681724   1681515   1681725  
  8610.000000   1682385   1683470   1684904   1686574   1688330  
  8600.000000   1690011   1691453   1692538   1693207   1693505  
  8590.000000   1693562   1693587   1693828   1694550   1695966  
  8580.000000   1698202   1701259   1704998   1709148   1713329  
  8570.000000   1717132   1720211   1722372   1723641   1724250  
  8560.000000   1724584   1725046   1725932   1727344   1729147  
  8550.000000   1731070   1732794   1734118   1735005   1735629  
  8540.000000   1736251   1737126   1738343   1739793   1741183  
  8530.000000   1742160   1742456   1742002   1740979   1739754  
  8520.000000   1738759   1738345   1738674   1739676   1741094  
  8510.000000   1742582   1743833   1744652   1745007   1745001  
  8500.000000   1744838   1744744   1744930   1745537   1746648  
  8490.000000   1748247   1750252   1752500   1754802   1756965  
  8480.000000   1758851   1760417   1761727   1762942   1764258  
  8470.000000   1765851   1767803   1770076   1772527   1774943  
  8460.000000   1777118   1778894   1780201   1781054   1781537  
  8450.000000   1781758   1781821   1781821   1781840   1781958  
  8440.000000   1782239   1782749   1783532   1784616   1785992  
  8430.000000   1787631   1789478   1791466   1793497   1795451  
  8420.000000   1797186   1798569   1799502   1799974   1800078  
  8410.000000   1800027   1800097   1800551   1801539   1803051  
  8400.000000   1804903   1806776   1808307   1809201   1809328  
  8390.000000   1808746   1807660   1806357   1805115   1804160  
  8380.000000   1803613   1803526   1803893   1804712   1805957  
  8370.000000   1807590   1809489   1811477   1813299   1814695  
  8360.000000   1815444   1815433   1814707   1813436   1811882  
  8350.000000   1810294   1808868   1807685   1806722   1805895  
  8340.000000   1805113   1804348   1803647   1803139   1802958  
  8330.000000   1803208   1803885   1804878   1805975   1806935  
  8320.000000   1807560   1807757   1807573   1807162   1806728  
  8310.000000   1806429   1806325   1806340   1806320   1806078  
  8300.000000   1805512   1804614   1803520   1802419   1801501  
  8290.000000   1800873   1800536   1800413   1800407   1800493  
  8280.000000   1800744   1801345   1802483   1804292   1806735  
  8270.000000   1809615   1812585   1815252   1817274   1818427  
  8260.000000   1818653   1818013   1816647   1814712   1812358  
  8250.000000   1809730   1806988   1804326   1801938   1800009  
  8240.000000   1798623   1797774   1797318   1797072   1796821  
  8230.000000   1796439   1795876   1795193   1794490   1793865  
  8220.000000   1793368   1792976   1792622   1792201   1791619  
  8210.000000   1790785   1789638   1788144   1786311   1784203  
  8200.000000   1781942   1779706   1777682   1776035   1774832  
  8190.000000   1774031   1773475   1772961   1772304   1771410  
  8180.000000   1770295   1769069   1767863   1766775   1765817  
  8170.000000   1764922   1763988   1762930   1761737   1760467  
  8160.000000   1759219   1758061   1756998   1755946   1754774  
  8150.000000   1753362   1751658   1749724   1747704   1745802  
  8140.000000   1744192   1742995   1742245   1741904   1741894  
  8130.000000   1742098   1742395   1742622   1742608   1742151  
  8120.000000   1741089   1739338   1736956   1734173   1731350  
  8110.000000   1728920   1727252   1726582   1726914   1728051  
  8100.000000   1729609   1731141   1732207   1732476   1731777  
  8090.000000   1730107   1727635   1724628   1721418   1718309  
  8080.000000   1715543   1713246   1711429   1710016   1708879  
  8070.000000   1707911   1707045   1706285   1705664   1705218  
  8060.000000   1704929   1704717   1704458   1704011   1703309  
  8050.000000   1702355   1701265   1700192   1699301   1698678  
  8040.000000   1698318   1698121   1697940   1697632   1697114  
  8030.000000   1696391   1695539   1694683   1693941   1693402  
  8020.000000   1693091   1692990   1693033   1693140   1693232  
  8010.000000   1693242   1693126   1692861   1692448   1691889  
  8000.000000   1691194   1690354   1689359   1688190   1686860  
  7990.000000   1685417   1683961   1682633   1681574   1680900  
  7980.000000   1680638   1680740   1681075   1681492   1681858  
  7970.000000   1682099   1682208   1682201   1682091   1681829  
  7960.000000   1681329   1680475   1679209   1677561   1675690  
  7950.000000   1673846   1672300   1671264   1670810   1670874  
  7940.000000   1671265   1671769   1672209   1672503   1672665  
  7930.000000   1672755   1672826   1672858   1672765   1672407  
  7920.000000   1671676   1670533   1669067   1667463   1665966  
  7910.000000   1664805   1664125   1663961   1664226   1664760  
  7900.000000   1665372   1665891   1666199   1666245   1666043  
  7890.000000   1665649   1665153   1664650   1664234   1663969  
  7880.000000   1663891   1663989   1664219   1664508   1664772  
  7870.000000   1664941   1664969   1664846   1664592   1664258  
  7860.000000   1663906   1663602   1663397   1663319   1663363  
  7850.000000   1663495   1663652   1663763   1663763   1663620  
  7840.000000   1663334   1662941   1662492   1662031   1661576  
  7830.000000   1661114   1660615   1660045   1659392   1658679  
  7820.000000   1657948   1657251   1656619   1656053   1655523  
  7810.000000   1654997   1654458   1653926   1653457   1653116  
  7800.000000   1652939   1652910   1652944   1652924   1652732  
  7790.000000   1652313   1651691   1650975   1650307   1649810  
  7780.000000   1649530   1649409   1649303   1649026   1648417  
  7770.000000   1647395   1645983   1644301   1642524   1640837  
  7760.000000   1639381   1638235   1637408   1636858   1636510  
  7750.000000   1636287   1636115   1635946   1635743   1635491  
  7740.000000   1635187   1634837   1634449   1634023   1633557  
  7730.000000   1633030   1632424   1631712   1630883   1629936  
  7720.000000   1628890   1627779   1626646   1625540   1624508  
  7710.000000   1623587   1622806   1622170   1621668   1621259  
  7700.000000   1620894   1620512   1620069   1619547   1618965  
  7690.000000   1618379   1617872   1617525   1617404   1617527  
  7680.000000   1617865   1618339   1618841   1619251   1619474  
  7670.000000   1619447   1619165   1618667   1618041   1617375  
  7660.000000   1616759   1616232   1615804   1615441   1615110  
  7650.000000   1614795   1614526   1614374   1614428   1614762  
  7640.000000   1615392   1616267   1617271   1618266   1619138  
  7630.000000   1619829   1620360   1620793   1621200   1621607  
  7620.000000   1621986   1622248   1622304   1622097   1621648  
  7610.000000   1621047   1620430   1619925   1619606   1619483  
  7600.000000   1619507   1619620   1619786   1620015   1620351  
  7590.000000   1620831   1621458   1622163   1622838   1623356  
  7580.000000   1623649   1623719   1623674   1623663   1623849  
  7570.000000   1624327   1625109   1626117   1627224   1628309  
  7560.000000   1629304   1630208   1631085   1632022   1633104  
  7550.000000   1634364   1635787   1637294   1638789   1640157  
  7540.000000   1641327   1642255   1642967   1643528   1644044  
  7530.000000   1644627   1645375   1646339   1647520   1648876  
  7520.000000   1650351   1651900   1653510   1655195   1656986  
  7510.000000   1658884   1660852   1662795   1664604   1666175  
  7500.000000   1667483   1668576   1669596   1670707   1672059  
  7490.000000   1673720   1675673   1677816   1680014   1682139  
  7480.000000   1684126   1685971   1687727   1689464   1691252  
  7470.000000   1693131   1695124   1697231   1699457   1701796  
  7460.000000   1704246   1706780   1709358   1711920   1714418  
  7450.000000   1716814   1719110   1721326   1723510   1725696  
  7440.000000   1727920   1730191   1732521   1734917   1737400  
  7430.000000   1739991   1742708   1745550   1748490   1751486  
  7420.000000   1754495   1757492   1760478   1763475   1766517  
  7410.000000   1769622   1772782   1775948   1779050   1781997  
  7400.000000   1784717   1787162   1789324   1791240   1792990  
  7390.000000   1794687   1796460   1798436   1800703   1803301  
  7380.000000   1806191   1809282   1812436   1815530   1818480  
  7370.000000   1821271   1823937   1826540   1829130   1831710  
  7360.000000   1834242   1836656   1838903   1840971   1842913  
  7350.000000   1844829   1846825   1848982   1851314   1853783  
  7340.000000   1856312   1858838   1861326   1863790   1866259  
  7330.000000   1868763   1871294   1873815   1876267   1878610  
  7320.000000   1880838   1882990   1885122   1887286   1889484  
  7310.000000   1891670   1893748   1895625   1897235   1898581  
  7300.000000   1899725   1900778   1901851   1903031   1904350  
  7290.000000   1905804   1907345   1908929   1910509   1912062  
  7280.000000   1913572   1915037   1916448   1917807   1919116  
  7270.000000   1920379   1921604   1922784   1923905   1924927  
  7260.000000   1925817   1926539   1927099   1927533   1927931  
  7250.000000   1928398   1929056   1929995   1931272   1932887  
  7240.000000   1934809   1936971   1939317   1941788   1944364  
  7230.000000   1947017   1949751   1952532   1955345   1958132  
  7220.000000   1960864   1963502   1966063   1968580   1971150  
  7210.000000   1973869   1976848   1980153   1983809   1987770  
  7200.000000   1991958   1996258   2000582   2004849   2009040  
  7190.000000   2013141   2017182   2021170   2025137   2029092  
  7180.000000   2033079   2037131   2041317   2045683   2050281  
  7170.000000   2055105   2060137   2065300   2070534   2075765  
  7160.000000   2080977   2086162   2091363   2096614   2101972  
  7150.000000   2107471   2113171   2119108   2125340   2131878  
  7140.000000   2138727   2145814   2153047   2160284   2167426  
  7130.000000   2174386   2181173   2187829   2194477   2201216  
  7120.000000   2208160   2215346   2222792   2230455   2238296  
  7110.000000   2246261   2254333   2262494   2270758   2279126  
  7100.000000   2287616   2296221   2304938   2313732   2322567  
  7090.000000   2331380   2340128   2348772   2357324   2365827  
  7080.000000   2374366   2383025   2391872   2400913   2410099  
  7070.000000   2419328   2428492   2437501   2446326   2454984  
  7060.000000   2463539   2472057   2480592   2489175   2497816  
  7050.000000   2506527   2515326   2524245   2533304   2542507  
  7040.000000   2551809   2561135   2570383   2579462   2588298  
  7030.000000   2596860   2605138   2613146   2620899   2628424  
  7020.000000   2635755   2642964   2650128   2657347   2664678  
  7010.000000   2672146   2679690   2687222   2694616   2701798  
  7000.000000   2708724   2715436   2721987   2728452   2734852  
  6990.000000   2741186   2747410   2753507   2759466   2765338  
  6980.000000   2771160   2776973   2782735   2788370   2793742  
  6970.000000   2798752   2803333   2807525   2811420   2815173  
  6960.000000   2818908   2822727   2826652   2830678   2834746  
  6950.000000   2838812   2842813   2846706   2850426   2853928  
  6940.000000   2857169   2860162   2862959   2865671   2868410  
  6930.000000   2871279   2874306   2877457   2880626   2883708  
  6920.000000   2886602   2889285   2891770   2894126   2896406  
  6910.000000   2898649   2900850   2902989   2905034   2906975  
  6900.000000   2908807   2910545   2912185   2913726   2915151  
  6890.000000   2916467   2917699   2918911   2920168   2921526  
  6880.000000   2922991   2924525   2926048   2927486   2928793  
  6870.000000   2929983   2931119   2932290   2933566   2934974  
  6860.000000   2936488   2938049   2939582   2941033   2942378  
  6850.000000   2943621   2944781   2945878   2946927   2947945  
  6840.000000   2948947   2949964   2951019   2952126   2953271  
  6830.000000   2954420   2955518   2956526   2957421   2958221  
  6820.000000   2958952   2959650   2960315   2960934   2961470  
  6810.000000   2961905   2962246   2962544   2962864   2963267  
  6800.000000   2963761   2964304   2964802   2965160   2965304  
  6790.000000   2965230   2964985   2964661   2964340   2964080  
  6780.000000   2963880   2963712   2963529   2963303   2963025  
  6770.000000   2962719   2962403   2962094   2961783   2961455  
  6760.000000   2961090   2960688   2960258   2959817   2959373  
  6750.000000   2958913   2958409   2957828   2957150   2956387  
  6740.000000   2955574   2954761   2953992   2953289   2952646  
  6730.000000   2952043   2951455   2950871   2950289   2949721  
  6720.000000   2949164   2948609   2948024   2947384   2946668  
  6710.000000   2945883   2945043   2944168   2943260   2942294  
  6700.000000   2941225   2940009   2938621   2937083   2935452  
  6690.000000   2933819   2932267   2930860   2929613   2928509  
  6680.000000   2927495   2926520   2925530   2924498   2923398  
  6670.000000   2922225   2920968   2919632   2918220   2916753  
  6660.000000   2915249   2913732   2912208   2910676   2909111  
  6650.000000   2907487   2905770   2903939   2901982   2899902  
  6640.000000   2897714   2895446   2893140   2890850   2888629  
  6630.000000   2886533   2884586   2882793   2881121   2879528  
  6620.000000   2877962   2876398   2874828   2873268   2871733  
  6610.000000   2870220   2868696   2867104   2865384   2863493  
  6600.000000   2861434   2859245   2856992   2854738   2852521  
  6590.000000   2850347   2848198   2846051   2843902   2841772  
  6580.000000   2839700   2837726   2835866   2834111   2832428  
  6570.000000   2830776   2829133   2827498   2825892   2824340  
  6560.000000   2822851   2821405   2819963   2818477   2816917  
  6550.000000   2815277   2813583   2811870   2810172   2808496  
  6540.000000   2806836   2805164   2803465   2801736   2800003  
  6530.000000   2798308   2796700   2795216   2793879   2792692  
  6520.000000   2791638   2790689   2789806   2788938   2788040  
  6510.000000   2787070   2786013   2784880   2783715   2782578  
  6500.000000   2781530   2780600   2779779   2779019   2778255  
  6490.000000   2777437   2776546   2775609   2774680   2773817  
  6480.000000   2773042   2772331   2771613   2770794   2769797  
  6470.000000   2768582   2767167   2765619   2764029   2762489  
  6460.000000   2761066   2759798   2758689   2757726   2756878  
  6450.000000   2756113   2755396   2754694   2753980   2753237  
  6440.000000   2752461   2751661   2750855   2750057   2749279  
  6430.000000   2748519   2747777   2747048   2746339   2745658  
  6420.000000   2745014   2744408   2743832   2743266   2742696  
  6410.000000   2742118   2741545   2741009   2740539   2740155  
  6400.000000   2739852   2739601   2739362   2739095   2738777  
  6390.000000   2738405   2737988   2737534   2737046   2736513  
  6380.000000   2735922   2735269   2734571   2733861   2733180  
  6370.000000   2732560   2732009   2731506   2731013   2730495  
  6360.000000   2729932   2729334   2728726   2728146   2727613  
  6350.000000   2727133   2726688   2726259   2725827   2725384  
  6340.000000   2724927   2724450   2723933   2723350   2722669  
  6330.000000   2721883   2721004   2720082   2719170   2718324  
  6320.000000   2717558   2716855   2716153   2715385   2714484  
  6310.000000   2713427   2712212   2710876   2709458   2707996  
  6300.000000   2706507   2705006   2703490   2701968   2700437  
  6290.000000   2698900   2697338   2695735   2694062   2692310  
  6280.000000   2690479   2688599   2686701   2684820   2682958  
  6270.000000   2681104   2679214   2677252   2675187   2673025  
  6260.000000   2670789   2668524   2666263   2664034   2661831  
  6250.000000   2659644   2657453   2655251   2653035   2650815  
  6240.000000   2648596   2646378   2644149   2641901   2639621  
  6230.000000   2637307   2634958   2632577   2630158   2627695  
  6220.000000   2625180   2622617   2620025   2617440   2614900  
  6210.000000   2612436   2610056   2607742   2605452   2603147  
  6200.000000   2600795   2598393   2595959   2593525   2591123  
  6190.000000   2588772   2586477   2584232   2582030   2579867  
  6180.000000   2577744   2575660   2573606   2571559   2569489  
  6170.000000   2567366   2565174   2562918   2560629   2558348  
  6160.000000   2556121   2553977   2551930   2549971   2548081  
  6150.000000   2546233   2544407   2542589   2540776   2538971  
  6140.000000   2537183   2535422   2533699   2532014   2530363  
  6130.000000   2528727   2527087   2525420   2523724   2522009  
  6120.000000   2520313   2518680   2517160   2515776   2514534  
  6110.000000   2513401   2512337   2511290   2510226   2509128  
  6100.000000   2508008   2506887   2505799   2504766   2503809  
  6090.000000   2502931   2502136   2501412   2500755   2500148  
  6080.000000   2499582   2499041   2498527   2498036   2497585  
  6070.000000   2497176   2496820   2496502   2496215   2495933  
  6060.000000   2495653   2495378   2495142   2494983   2494950  
  6050.000000   2495070   2495356   2495789   2496347   2496991  
  6040.000000   2497701   2498457   2499256   2500085   2500941  
  6030.000000   2501806   2502675   2503543   2504431   2505356  
  6020.000000   2506348   2507415   2508555   2509740   2510940  
  6010.000000   2512121   2513265   2514364   2515427   2516458  
  6000.000000   2517461   2518428   2519360   2520260   2521157  
  5990.000000   2522089   2523113   2524270   2525591   2527071  
  5980.000000   2528689   2530400   2532169   2533961   2535766  
  5970.000000   2537581   2539424   2541306   2543256   2545291  
  5960.000000   2547437   2549697   2552075   2554543   2557066  
  5950.000000   2559591   2562081   2564509   2566884   2569228  
  5940.000000   2571584   2573987   2576458   2578995   2581584  
  5930.000000   2584204   2586843   2589499   2592180   2594890  
  5920.000000   2597624   2600359   2603067   2605711   2608273  
  5910.000000   2610741   2613125   2615435   2617691   2619909  
  5900.000000   2622112   2624330   2626600   2628967   2631461  
  5890.000000   2634097   2636850   2639675   2642505   2645285  
  5880.000000   2647978   2650578   2653101   2655572   2658006  
  5870.000000   2660398   2662734   2664990   2667158   2669248  
  5860.000000   2671291   2673323   2675374   2677457   2679573  
  5850.000000   2681715   2683885   2686096   2688378   2690761  
  5840.000000   2693262   2695880   2698594   2701368   2704173  
  5830.000000   2706985   2709798   2712608   2715408   2718184  
  5820.000000   2720910   2723566   2726136   2728631   2731067  
  5810.000000   2733474   2735857   2738216   2740512   2742717  
  5800.000000   2744787   2746722   2748518   2750213   2751814  
  5790.000000   2753341   2754762   2756056   2757162   2758045  
  5780.000000   2758655   2758975   2758974   2758648   2757988  
  5770.000000   2757020   2755780   2754346   2752802   2751243  
  5760.000000   2749741   2748349   2747081   2745941   2744917  
  5750.000000   2744012   2743233   2742595   2742106   2741758  
  5740.000000   2741529   2741378   2741276   2741191   2741126  
  5730.000000   2741080   2741077   2741125   2741235   2741401  
  5720.000000   2741623   2741890   2742207   2742564   2742964  
  5710.000000   2743391   2743838   2744292   2744757   2745244  
  5700.000000   2745776   2746377   2747061   2747831   2748668  
  5690.000000   2749550   2750448   2751344   2752222   2753075  
  5680.000000   2753886   2754636   2755293   2755832   2756223  
  5670.000000   2756459   2756533   2756457   2756236   2755885  
  5660.000000   2755410   2754832   2754173   2753473   2752769  
  5650.000000   2752099   2751474   2750897   2750344   2749794  
  5640.000000   2749225   2748632   2748017   2747392   2746758  
  5630.000000   2746112   2745440   2744733   2743988   2743222  
  5620.000000   2742458   2741725   2741039   2740403   2739803  
  5610.000000   2739219   2738636   2738051   2737471   2736907  
  5600.000000   2736360   2735818   2735249   2734618   2733892  
  5590.000000   2733057   2732116   2731094   2730017   2728918  
  5580.000000   2727814   2726723   2725650   2724602   2723574  
  5570.000000   2722561   2721542   2720497   2719401   2718244  
  5560.000000   2717028   2715772   2714503   2713245   2712008  
  5550.000000   2710784   2709557   2708308   2707032   2705739  
  5540.000000   2704453   2703197   2701988   2700827   2699700  
  5530.000000   2698594   2697499   2696420   2695369   2694358  
  5520.000000   2693384   2692430   2691463   2690448   2689364  
  5510.000000   2688209   2686999   2685765   2684531   2683317  
  5500.000000   2682120   2680936   2679750   2678560   2677360  
  5490.000000   2676150   2674914   2673636   2672285   2670843  
  5480.000000   2669298   2667665   2665963   2664229   2662482  
  5470.000000   2660736   2658981   2657204   2655383   2653510  
  5460.000000   2651569   2649555   2647451   2645246   2642933  
  5450.000000   2640522   2638044   2635548   2633095   2630729  
  5440.000000   2628476   2626330   2624276   2622295   2620385  
  5430.000000   2618552   2616818   2615184   2613643   2612157  
  5420.000000   2610699   2609242   2607808   2606431   2605185  
  5410.000000   2604111   2603243   2602547   2601985   2601491  
  5400.000000   2601045   2600634   2600298   2600065   2599984  
  5390.000000   2600055   2600291   2600669   2601204   2601902  
  5380.000000   2602809   2603935   2605302   2606867   2608605  
  5370.000000   2610443   2612378   2614382   2616512   2618782  
  5360.000000   2621264   2623952   2626898   2630080   2633564  
  5350.000000   2637356   2641561   2646194   2651341   2656966  
  5340.000000   2663101   2669668   2676704   2684155   2692096  
  5330.000000   2700486   2709400   2718769   2728645   2738956  
  5320.000000   2749793   2761139   2773149   2785836   2799357  
  5310.000000   2813676   2828879   2844862   2861676   2879221  
  5300.000000   2897586   2916735   2936820   2957848   2979979  
  5290.000000   3003191   3027559   3052955   3079326   3106457  
  5280.000000   3134264   3162599   3191496   3220964   3251144  
  5270.000000   3282076   3313790   3346146   3378933   3411871  
  5260.000000   3444718   3477341   3509708   3541907   3573995  
  5250.000000   3606022   3637853   3669330   3700131   3730080  
  5240.000000   3758958   3786814   3813644   3839665   3864920  
  5230.000000   3889577   3913546   3936844   3959258   3980760  
  5220.000000   4001172   4020572   4038910   4056380   4073000  
  5210.000000   4088957   4104201   4118798   4132574   4145520  
  5200.000000   4157457   4168451   4178444   4187606   4195946  
  5190.000000   4203627   4210603   4216957   4222587   4227552  
  5180.000000   4231774   4235350   4238233   4240519   4242142  
  5170.000000   4243163   4243505   4243243   4242352   4240952  
  5160.000000   4239050   4236757   4234039   4230947   4227409  
  5150.000000   4223464   4219072   4214311   4209185   4203776  
  5140.000000   4198075   4192128   4185902   4179425   4172679  
  5130.000000   4165713   4158532   4151194   4143703   4136102  
  5120.000000   4128393   4120620   4112794   4104963   4097135  
  5110.000000   4089328   4081518   4073692   4065815   4057887  
  5100.000000   4049904   4041903   4033904   4025942   4018020  
  5090.000000   4010138   4002274   3994418   3986552   3978680  
  5080.000000   3970796   3962903   3954985   3947028   3939005  
  5070.000000   3930907   3922724   3914472   3906162   3897818  
  5060.000000   3889450   3881069   3872672   3864263   3855840  
  5050.000000   3847414   3838987   3830571   3822166   3813772  
  5040.000000   3805387   3797012   3788652   3780317   3772018  
  5030.000000   3763763   3755559   3747406   3739309   3731268  
  5020.000000   3723303   3715422   3707655   3700010   3692510  
  5010.000000   3685150   3677944   3670880   3663977   3657225  
  5000.000000   3650656   3644260   3638068   3632064   3626275  
  4990.000000   3620682   3615326   3610197   3605353   3600793  
  4980.000000   3596574   3592684   3589165   3585981   3583165  
  4970.000000   3580674   3578544   3576743   3575319   3574247  
  4960.000000   3573578   3573285   3573415   3573932   3574876  
  4950.000000   3576203   3577950   3580068   3582592   3585474  
  4940.000000   3588747   3592365   3596356   3600667   3605321  
  4930.000000   3610261   3615509   3621021   3626832   3632917  
  4920.000000   3639315   3646000   3652996   3660260   3667798  
  4910.000000   3675562   3683565   3691777   3700221   3708881  
  4900.000000   3717771   3726867   3736163   3745626   3755242  
  4890.000000   3764986   3774843   3784784   3794775   3804765  
  4880.000000   3814696   3824513   3834164   3843625   3852875  
  4870.000000   3861918   3870741   3879349   3887717   3895845  
  4860.000000   3903712   3911339   3918725   3925914   3932909  
  4850.000000   3939746   3946408   3952915   3959244   3965422  
  4840.000000   3971444   3977358   3983168   3988911   3994568  
  4830.000000   4000139   4005571   4010838   4015880   4020679  
  4820.000000   4025200   4029454   4033442   4037206   4040773  
  4810.000000   4044200   4047516   4050768   4053964   4057125  
  4800.000000   4060235   4063295   4066279   4069190   4072012  
  4790.000000   4074755   4077416   4080017   4082560   4085075  
  4780.000000   4087567   4090063   4092556   4095054   4097524  
  4770.000000   4099947   4102272   4104472   4106502   4108353  
  4760.000000   4110002   4111460   4112713   4113780   4114647  
  4750.000000   4115329   4115813   4116120   4116240   4116199  
  4740.000000   4115988   4115630   4115110   4114448   4113629  
  4730.000000   4112668   4111553   4110298   4108889   4107339  
  4720.000000   4105639   4103804   4101835   4099760   4097594  
  4710.000000   4095374   4093120   4090864   4088619   4086403  
  4700.000000   4084212   4082051   4079903   4077767   4075630  
  4690.000000   4073496   4071364   4069246   4067145   4065063  
  4680.000000   4062989   4060898   4058760   4056536   4054202  
  4670.000000   4051741   4049167   4046504   4043802   4041106  
  4660.000000   4038469   4035925   4033508   4031232   4029119  
  4650.000000   4027176   4025419   4023855   4022491   4021322  
  4640.000000   4020342   4019530   4018871   4018338   4017913  
  4630.000000   4017562   4017256   4016954   4016619   4016211  
  4620.000000   4015706   4015086   4014357   4013529   4012623  
  4610.000000   4011657   4010646   4009599   4008523   4007431  
  4600.000000   4006337   4005268   4004243   4003289   4002411  
  4590.000000   4001609   4000864   4000151   3999437   3998697  
  4580.000000   3997904   3997047   3996115   3995111   3994035  
  4570.000000   3992900   3991707   3990466   3989172   3987824  
  4560.000000   3986404   3984906   3983314   3981630   3979856  
  4550.000000   3978011   3976109   3974169   3972200   3970204  
  4540.000000   3968178   3966115   3964018   3961889   3959750  
  4530.000000   3957615   3955519   3953478   3951533   3949693  
  4520.000000   3948003   3946463   3945126   3943980   3943083  
  4510.000000   3942423   3942072   3942032   3942402   3943200  
  4500.000000   3944539   3946426   3948958   3952113   3955969  
  4490.000000   3960486   3965742   3971702   3978446   3985928  
  4480.000000   3994199   4003177   4012876   4023191   4034125  
  4470.000000   4045589   4057601   4070095   4083089   4096513  
  4460.000000   4110357   4124528   4138983   4153616   4168368  
  4450.000000   4183139   4197875   4212505   4227001   4241341  
  4440.000000   4255530   4269590   4283540   4297422   4311233  
  4430.000000   4325009   4338709   4352353   4365868   4379256  
  4420.000000   4392412   4405319   4417842   4429946   4441474  
  4410.000000   4452382   4462511   4471820   4480166   4487532  
  4400.000000   4493816   4499055   4503219   4506412   4508674  
  4390.000000   4510157   4510936   4511167   4510930   4510366  
  4380.000000   4509557   4508637   4507702   4506886   4506293  
  4370.000000   4506037   4506206   4506868   4508078   4509858  
  4360.000000   4512233   4515188   4518719   4522774   4527306  
  4350.000000   4532234   4537486   4542992   4548706   4554612  
  4340.000000   4560705   4566981   4573389   4579818   4586066  
  4330.000000   4591863   4596897   4600884   4603621   4605059  
  4320.000000   4605299   4604612   4603345   4601899   4600593  
  4310.000000   4599693   4599291   4599420   4599980   4600882  
  4300.000000   4601980   4603190   4604413   4605594   4606677  
  4290.000000   4607626   4608416   4609041   4609519   4609889  
  4280.000000   4610199   4610512   4610869   4611324   4611888  
  4270.000000   4612592   4613413   4614340   4615287   4616157  
  4260.000000   4616779   4616984   4616581   4615443   4613503  
  4250.000000   4610809   4607488   4603759   4599852   4596007  
  4240.000000   4592389   4589117   4586205   4583629   4581297  
  4230.000000   4579122   4576996   4574843   4572591   4570197  
  4220.000000   4567640   4564914   4562052   4559087   4556094  
  4210.000000   4553129   4550273   4547569   4545070   4542787  
  4200.000000   4540744   4538925   4537340   4535957   4534781  
  4190.000000   4533770   4532930   4532221   4531672   4531262  
  4180.000000   4531052   4531043   4531315   4531869   4532792  
  4170.000000   4534084   4535840   4538073   4540888   4544290  
  4160.000000   4548360   4553060   4558420   4564352   4570862  
  4150.000000   4577862   4585383   4593370   4601890   4610908  
  4140.000000   4620496   4630610   4641303   4652515   4664279  
  4130.000000   4676525   4689274   4702450   4716073   4730077  
  4120.000000   4744495   4759289   4774512   4790152   4806261  
  4110.000000   4822821   4839858   4857321   4875198   4893415  
  4100.000000   4911940   4930702   4949677   4968822   4988128  
  4090.000000   5007577   5027163   5046871   5066687   5086600  
  4080.000000   5106594   5126674   5146819   5167035   5187268  
  4070.000000   5207490   5227598   5247544   5267221   5286622  
  4060.000000   5305681   5324443   5342851   5360938   5378599  
  4050.000000   5395834   5412514   5428660   5444168   5459100  
  4040.000000   5473354   5486974   5499816   5511901   5523080  
  4030.000000   5533411   5542789   5551300   5558848   5565475  
  4020.000000   5571009   5575472   5578779   5581006   5582086  
  4010.000000   5582223   5581548   5580138   5577750   5574500  
  4000.000000   5570816  
##END= 
