##TITLE= Sample 031 By ssteindl date Donnerstag, November 22 2018
##JCAMP-DX= 4.24
##DATA TYPE= INFRARED SPECTRUM
##ORIGIN= Exported PE Spectrum Data File
##OWNER= Sandra Steindl
##DATE= 18/11/22
##TIME= 11:21:02.00
##SPECTROMETER/DATA SYSTEM= PERKIN-ELMER Frontier FT-IR/NIR IR
##INSTRUMENT PARAMETERS=
  APODIZATION=stark
  DETECTOR=INGAAS
##RESOLUTION= 16.000000
##DELTAX= -2.000000
##XUNITS= 1/CM
##YUNITS= A
##XFACTOR= 1.00
##YFACTOR= 0.00000011920928955078
##FIRSTX= 10000.00
##LASTX= 4000.00
##NPOINTS= 3001
##FIRSTY= 0.237746
##MAXY= 0.644477
##MINY= 0.201689
##XYDATA= (X++(Y..Y))
 10000.000000   1994358   1992653   1990182   1985758   1979038  
  9990.000000   1970474   1960879   1951461   1943876   1939887  
  9980.000000   1940457   1945514   1953890   1963782   1973148  
  9970.000000   1980344   1984477   1985413   1983592   1979578  
  9960.000000   1973920   1966892   1958790   1949890   1940740  
  9950.000000   1931918   1924009   1917331   1911953   1907783  
  9940.000000   1904724   1902886   1902503   1903911   1907225  
  9930.000000   1912283   1918560   1925368   1932151   1938642  
  9920.000000   1945029   1951603   1958573   1965569   1971691  
  9910.000000   1975592   1976047   1972434   1965140   1955609  
  9900.000000   1945940   1938368   1934466   1934877   1938989  
  9890.000000   1945410   1952230   1957765   1960838   1961079  
  9880.000000   1958808   1954811   1950006   1945112   1940532  
  9870.000000   1936241   1932021   1927553   1922716   1917649  
  9860.000000   1912762   1908654   1905811   1904526   1904678  
  9850.000000   1905857   1907500   1909088   1910367   1911262  
  9840.000000   1911904   1912322   1912470   1912081   1910917  
  9830.000000   1908859   1906128   1903277   1901043   1900145  
  9820.000000   1900984   1903584   1907583   1912433   1917582  
  9810.000000   1922569   1927047   1930640   1932916   1933367  
  9800.000000   1931603   1927579   1921786   1915296   1909509  
  9790.000000   1905804   1905035   1907325   1911935   1917621  
  9780.000000   1922931   1926701   1928251   1927480   1924737  
  9770.000000   1920603   1915707   1910591   1905683   1901316  
  9760.000000   1897731   1895077   1893362   1892469   1892177  
  9750.000000   1892257   1892503   1892768   1892880   1892590  
  9740.000000   1891559   1889411   1885955   1881303   1876077  
  9730.000000   1871243   1867944   1867025   1868737   1872548  
  9720.000000   1877286   1881550   1884165   1884607   1883143  
  9710.000000   1880708   1878552   1877783   1879003   1882136  
  9700.000000   1886492   1891019   1894635   1896527   1896376  
  9690.000000   1894398   1891265   1887886   1885102   1883440  
  9680.000000   1882917   1883056   1883086   1882247   1880149  
  9670.000000   1876972   1873409   1870468   1868979   1869349  
  9660.000000   1871280   1873987   1876484   1878037   1878458  
  9650.000000   1878121   1877715   1877810   1878514   1879337  
  9640.000000   1879413   1877873   1874316   1869004   1862813  
  9630.000000   1856882   1852153   1849098   1847590   1847161  
  9620.000000   1847259   1847549   1847965   1848599   1849494  
  9610.000000   1850457   1851073   1850856   1849523   1847151  
  9600.000000   1844253   1841529   1839674   1839037   1839560  
  9590.000000   1840827   1842245   1843329   1843795   1843666  
  9580.000000   1843136   1842496   1842017   1841895   1842268  
  9570.000000   1843144   1844407   1845694   1846453   1845994  
  9560.000000   1843776   1839649   1834075   1828117   1823149  
  9550.000000   1820449   1820690   1823750   1828708   1834244  
  9540.000000   1839068   1842366   1843955   1844207   1843753  
  9530.000000   1843123   1842539   1841853   1840766   1839015  
  9520.000000   1836612   1833827   1831085   1828787   1827125  
  9510.000000   1826116   1825594   1825428   1825502   1825808  
  9500.000000   1826290   1826831   1827175   1827037   1826197  
  9490.000000   1824640   1822585   1820380   1818364   1816654  
  9480.000000   1815120   1813396   1811087   1807927   1803932  
  9470.000000   1799399   1794831   1790765   1787644   1785700  
  9460.000000   1784954   1785250   1786310   1787806   1789393  
  9450.000000   1790775   1791746   1792267   1792494   1792753  
  9440.000000   1793442   1794821   1796902   1799296   1801371  
  9430.000000   1802371   1801754   1799332   1795384   1790571  
  9420.000000   1785723   1781646   1778868   1777630   1777831  
  9410.000000   1779221   1781430   1784103   1786872   1789377  
  9400.000000   1791286   1792304   1792276   1791136   1789003  
  9390.000000   1786036   1782504   1778651   1774777   1771186  
  9380.000000   1768226   1766284   1765681   1766662   1769195  
  9370.000000   1773037   1777653   1782441   1786803   1790328  
  9360.000000   1792831   1794314   1794949   1794882   1794239  
  9350.000000   1792984   1791046   1788317   1784790   1780576  
  9340.000000   1775942   1771307   1767167   1764066   1762402  
  9330.000000   1762389   1763890   1766523   1769698   1772815  
  9320.000000   1775406   1777248   1778402   1779108   1779652  
  9310.000000   1780158   1780551   1780546   1779864   1778349  
  9300.000000   1776127   1773563   1771142   1769279   1768129  
  9290.000000   1767581   1767299   1766941   1766282   1765353  
  9280.000000   1764367   1763630   1763335   1763510   1763983  
  9270.000000   1764523   1764939   1765167   1765259   1765281  
  9260.000000   1765252   1765044   1764471   1763326   1761527  
  9250.000000   1759129   1756326   1753361   1750453   1747768  
  9240.000000   1745417   1743552   1742364   1742124   1743015  
  9230.000000   1745051   1747916   1751032   1753687   1755256  
  9220.000000   1755433   1754269   1752184   1749680   1747198  
  9210.000000   1744890   1742673   1740310   1737621   1734649  
  9200.000000   1731695   1729267   1727835   1727710   1728871  
  9190.000000   1731045   1733771   1736557   1738999   1740802  
  9180.000000   1741824   1741983   1741290   1739810   1737731  
  9170.000000   1735342   1733001   1731051   1729723   1729106  
  9160.000000   1729127   1729618   1730346   1731122   1731795  
  9150.000000   1732254   1732375   1732015   1731069   1729513  
  9140.000000   1727469   1725180   1722975   1721181   1720041  
  9130.000000   1719654   1719960   1720819   1722048   1723493  
  9120.000000   1724974   1726292   1727211   1727501   1727026  
  9110.000000   1725792   1723994   1721962   1720056   1718522  
  9100.000000   1717394   1716520   1715672   1714700   1713613  
  9090.000000   1712595   1711900   1711681   1711875   1712142  
  9080.000000   1712044   1711191   1709514   1707253   1704938  
  9070.000000   1703157   1702359   1702696   1703989   1705915  
  9060.000000   1708159   1710608   1713306   1716387   1719895  
  9050.000000   1723661   1727281   1730191   1731880   1732027  
  9040.000000   1730626   1727904   1724259   1720123   1715926  
  9030.000000   1712060   1708880   1706725   1705827   1706257  
  9020.000000   1707757   1709838   1711830   1713186   1713622  
  9010.000000   1713292   1712710   1712537   1713285   1715040  
  9000.000000   1717417   1719664   1720977   1720779   1718937  
  8990.000000   1715780   1711967   1708216   1705064   1702737  
  8980.000000   1701174   1700127   1699322   1698533   1697657  
  8970.000000   1696662   1695575   1694442   1693337   1692415  
  8960.000000   1691891   1692011   1692955   1694774   1697358  
  8950.000000   1700449   1703698   1706774   1709437   1711541  
  8940.000000   1713002   1713737   1713686   1712770   1710983  
  8930.000000   1708414   1705314   1702025   1698904   1696250  
  8920.000000   1694237   1692932   1692275   1692206   1692652  
  8910.000000   1693587   1694938   1696600   1698411   1700171  
  8900.000000   1701701   1702864   1703630   1703993   1703982  
  8890.000000   1703558   1702696   1701350   1699578   1697532  
  8880.000000   1695499   1693806   1692720   1692374   1692733  
  8870.000000   1693638   1694876   1696301   1697862   1699609  
  8860.000000   1701587   1703794   1706125   1708407   1710467  
  8850.000000   1712195   1713604   1714781   1715823   1716738  
  8840.000000   1717416   1717650   1717235   1716088   1714320  
  8830.000000   1712230   1710198   1708556   1707461   1706873  
  8820.000000   1706585   1706357   1706025   1705598   1705239  
  8810.000000   1705197   1705670   1706733   1708297   1710150  
  8800.000000   1712035   1713722   1715084   1716071   1716720  
  8790.000000   1717074   1717190   1717095   1716813   1716363  
  8780.000000   1715786   1715140   1714509   1713985   1713668  
  8770.000000   1713652   1714005   1714746   1715817   1717076  
  8760.000000   1718332   1719385   1720110   1720495   1720684  
  8750.000000   1720919   1721475   1722552   1724208   1726335  
  8740.000000   1728699   1731025   1733099   1734814   1736200  
  8730.000000   1737353   1738389   1739360   1740251   1740989  
  8720.000000   1741503   1741777   1741880   1741965   1742211  
  8710.000000   1742789   1743786   1745214   1746998   1749009  
  8700.000000   1751098   1753102   1754871   1756255   1757135  
  8690.000000   1757441   1757198   1756561   1755800   1755272  
  8680.000000   1755330   1756234   1758062   1760670   1763717  
  8670.000000   1766738   1769279   1770994   1771730   1771544  
  8660.000000   1770675   1769477   1768342   1767631   1767618  
  8650.000000   1768461   1770188   1772690   1775721   1778923  
  8640.000000   1781867   1784147   1785496   1785846   1785387  
  8630.000000   1784492   1783646   1783281   1783662   1784810  
  8620.000000   1786527   1788509   1790473   1792276   1793930  
  8610.000000   1795575   1797357   1799333   1801405   1803333  
  8600.000000   1804833   1805682   1805835   1805440   1804819  
  8590.000000   1804354   1804372   1805064   1806436   1808352  
  8580.000000   1810572   1812832   1814883   1816538   1817684  
  8570.000000   1818302   1818465   1818340   1818160   1818179  
  8560.000000   1818603   1819529   1820918   1822598   1824337  
  8550.000000   1825897   1827119   1827935   1828372   1828505  
  8540.000000   1828413   1828181   1827888   1827658   1827647  
  8530.000000   1828065   1829096   1830852   1833293   1836205  
  8520.000000   1839253   1842022   1844142   1845333   1845497  
  8510.000000   1844684   1843098   1841039   1838883   1837047  
  8500.000000   1835928   1835866   1837048   1839472   1842888  
  8490.000000   1846859   1850832   1854272   1856773   1858147  
  8480.000000   1858451   1857935   1856973   1855952   1855220  
  8470.000000   1855016   1855465   1856565   1858189   1860121  
  8460.000000   1862068   1863736   1864873   1865365   1865269  
  8450.000000   1864797   1864255   1863929   1864025   1864585  
  8440.000000   1865522   1866662   1867847   1869005   1870166  
  8430.000000   1871443   1872946   1874737   1876774   1878942  
  8420.000000   1881080   1883047   1884759   1886199   1887396  
  8410.000000   1888378   1889156   1889700   1889969   1889928  
  8400.000000   1889567   1888919   1888057   1887104   1886192  
  8390.000000   1885482   1885108   1885193   1885777   1886835  
  8380.000000   1888227   1889755   1891198   1892371   1893179  
  8370.000000   1893614   1893754   1893694   1893507   1893209  
  8360.000000   1892788   1892233   1891595   1890993   1890588  
  8350.000000   1890533   1890887   1891597   1892483   1893332  
  8340.000000   1893954   1894281   1894364   1894349   1894391  
  8330.000000   1894574   1894874   1895160   1895264   1895049  
  8320.000000   1894479   1893615   1892596   1891556   1890584  
  8310.000000   1889694   1888849   1888006   1887161   1886372  
  8300.000000   1885745   1885399   1885407   1885781   1886450  
  8290.000000   1887297   1888192   1889024   1889721   1890236  
  8280.000000   1890548   1890633   1890470   1890046   1889369  
  8270.000000   1888479   1887456   1886407   1885447   1884676  
  8260.000000   1884146   1883859   1883748   1883715   1883639  
  8250.000000   1883425   1883031   1882491   1881893   1881356  
  8240.000000   1880966   1880750   1880652   1880558   1880338  
  8230.000000   1879911   1879279   1878542   1877836   1877286  
  8220.000000   1876919   1876666   1876357   1875817   1874922  
  8210.000000   1873676   1872203   1870702   1869349   1868217  
  8200.000000   1867241   1866238   1864991   1863332   1861228  
  8190.000000   1858795   1856278   1853958   1852075   1850762  
  8180.000000   1850017   1849739   1849766   1849938   1850126  
  8170.000000   1850265   1850335   1850358   1850365   1850374  
  8160.000000   1850374   1850306   1850078   1849575   1848698  
  8150.000000   1847392   1845673   1843649   1841481   1839360  
  8140.000000   1837438   1835805   1834459   1833332   1832314  
  8130.000000   1831289   1830167   1828890   1827422   1825759  
  8120.000000   1823919   1821967   1820025   1818267   1816892  
  8110.000000   1816063   1815846   1816166   1816808   1817467  
  8100.000000   1817835   1817685   1816943   1815695   1814150  
  8090.000000   1812564   1811152   1810036   1809224   1808633  
  8080.000000   1808128   1807568   1806837   1805860   1804608  
  8070.000000   1803093   1801366   1799502   1797597   1795738  
  8060.000000   1793994   1792401   1790968   1789695   1788593  
  8050.000000   1787709   1787106   1786858   1786991   1787463  
  8040.000000   1788148   1788853   1789380   1789551   1789276  
  8030.000000   1788534   1787377   1785884   1784146   1782257  
  8020.000000   1780324   1778490   1776917   1775774   1775171  
  8010.000000   1775114   1775474   1776010   1776427   1776465  
  8000.000000   1775977   1774958   1773543   1771940   1770367  
  7990.000000   1768991   1767910   1767150   1766707   1766554  
  7980.000000   1766658   1766962   1767370   1767747   1767932  
  7970.000000   1767788   1767245   1766328   1765161   1763919  
  7960.000000   1762791   1761911   1761344   1761074   1761028  
  7950.000000   1761110   1761218   1761278   1761238   1761087  
  7940.000000   1760847   1760579   1760368   1760295   1760402  
  7930.000000   1760653   1760931   1761048   1760818   1760116  
  7920.000000   1758947   1757461   1755915   1754601   1753736  
  7910.000000   1753408   1753545   1753963   1754436   1754781  
  7900.000000   1754902   1754799   1754528   1754155   1753717  
  7890.000000   1753215   1752638   1751986   1751308   1750679  
  7880.000000   1750187   1749893   1749797   1749856   1749984  
  7870.000000   1750115   1750205   1750258   1750291   1750317  
  7860.000000   1750314   1750223   1749971   1749493   1748767  
  7850.000000   1747820   1746721   1745560   1744426   1743393  
  7840.000000   1742517   1741845   1741397   1741181   1741149  
  7830.000000   1741226   1741291   1741236   1740990   1740559  
  7820.000000   1740030   1739526   1739160   1738958   1738849  
  7810.000000   1738657   1738187   1737285   1735926   1734222  
  7800.000000   1732400   1730724   1729405   1728554   1728147  
  7790.000000   1728081   1728215   1728431   1728658   1728869  
  7780.000000   1729046   1729153   1729127   1728885   1728373  
  7770.000000   1727572   1726540   1725373   1724191   1723096  
  7760.000000   1722145   1721359   1720727   1720243   1719902  
  7750.000000   1719707   1719644   1719669   1719698   1719623  
  7740.000000   1719344   1718802   1718004   1717022   1715973  
  7730.000000   1714986   1714160   1713552   1713163   1712960  
  7720.000000   1712881   1712861   1712834   1712738   1712514  
  7710.000000   1712106   1711475   1710602   1709507   1708246  
  7700.000000   1706909   1705607   1704455   1703558   1702988  
  7690.000000   1702778   1702900   1703273   1703765   1704214  
  7680.000000   1704466   1704401   1703978   1703225   1702250  
  7670.000000   1701193   1700197   1699364   1698744   1698329  
  7660.000000   1698079   1697944   1697891   1697912   1698015  
  7650.000000   1698209   1698480   1698784   1699052   1699203  
  7640.000000   1699173   1698931   1698500   1697945   1697373  
  7630.000000   1696891   1696589   1696509   1696638   1696910  
  7620.000000   1697225   1697487   1697626   1697627   1697529  
  7610.000000   1697416   1697383   1697502   1697798   1698231  
  7600.000000   1698724   1699178   1699518   1699701   1699737  
  7590.000000   1699672   1699577   1699523   1699565   1699739  
  7580.000000   1700058   1700514   1701091   1701751   1702451  
  7570.000000   1703128   1703727   1704198   1704521   1704704  
  7560.000000   1704790   1704830   1704887   1705008   1705233  
  7550.000000   1705580   1706068   1706703   1707489   1708416  
  7540.000000   1709466   1710598   1711772   1712938   1714063  
  7530.000000   1715121   1716110   1717029   1717890   1718707  
  7520.000000   1719510   1720342   1721269   1722355   1723652  
  7510.000000   1725165   1726848   1728599   1730298   1731829  
  7500.000000   1733137   1734229   1735196   1736165   1737270  
  7490.000000   1738608   1740232   1742135   1744280   1746599  
  7480.000000   1749022   1751469   1753859   1756104   1758136  
  7470.000000   1759908   1761442   1762807   1764135   1765551  
  7460.000000   1767161   1768993   1771010   1773122   1775240  
  7450.000000   1777317   1779377   1781505   1783813   1786378  
  7440.000000   1789206   1792205   1795227   1798096   1800683  
  7430.000000   1802929   1804878   1806639   1808360   1810171  
  7420.000000   1812154   1814331   1816674   1819127   1821625  
  7410.000000   1824119   1826578   1828991   1831358   1833687  
  7400.000000   1835990   1838280   1840572   1842881   1845226  
  7390.000000   1847625   1850087   1852621   1855218   1857861  
  7380.000000   1860517   1863141   1865684   1868100   1870360  
  7370.000000   1872451   1874388   1876201   1877942   1879667  
  7360.000000   1881435   1883303   1885313   1887492   1889839  
  7350.000000   1892336   1894934   1897578   1900209   1902789  
  7340.000000   1905302   1907755   1910160   1912519   1914807  
  7330.000000   1916974   1918961   1920720   1922242   1923572  
  7320.000000   1924793   1926016   1927336   1928819   1930473  
  7310.000000   1932267   1934129   1935983   1937757   1939406  
  7300.000000   1940902   1942249   1943462   1944583   1945667  
  7290.000000   1946787   1948010   1949380   1950900   1952528  
  7280.000000   1954177   1955747   1957143   1958312   1959249  
  7270.000000   1960003   1960649   1961266   1961917   1962632  
  7260.000000   1963413   1964236   1965077   1965909   1966726  
  7250.000000   1967528   1968342   1969206   1970180   1971322  
  7240.000000   1972693   1974314   1976185   1978239   1980409  
  7230.000000   1982597   1984756   1986853   1988929   1991027  
  7220.000000   1993221   1995554   1998065   2000758   2003652  
  7210.000000   2006755   2010098   2013679   2017485   2021431  
  7200.000000   2025409   2029270   2032910   2036269   2039398  
  7190.000000   2042404   2045467   2048740   2052344   2056302  
  7180.000000   2060573   2065053   2069647   2074267   2078889  
  7170.000000   2083500   2088131   2092776   2097443   2102095  
  7160.000000   2106735   2111353   2116004   2120743   2125674  
  7150.000000   2130877   2136439   2142398   2148772   2155514  
  7140.000000   2162559   2169792   2177105   2184379   2191547  
  7130.000000   2198561   2205448   2212243   2219044   2225918  
  7120.000000   2232948   2240153   2247541   2255062   2262671  
  7110.000000   2270298   2277910   2285482   2293039   2300619  
  7100.000000   2308302   2316154   2324246   2332591   2341174  
  7090.000000   2349915   2358721   2367491   2376165   2384728  
  7080.000000   2393224   2401718   2410285   2418956   2427729  
  7070.000000   2436547   2445351   2454077   2462699   2471213  
  7060.000000   2479633   2487968   2496219   2504380   2512460  
  7050.000000   2520500   2528576   2536786   2545210   2553885  
  7040.000000   2562769   2571767   2580744   2589584   2598210  
  7030.000000   2606609   2614808   2622854   2630769   2638554  
  7020.000000   2646176   2653615   2660860   2667950   2674932  
  7010.000000   2681875   2688803   2695729   2702613   2709433  
  7000.000000   2716152   2722775   2729295   2735718   2742001  
  6990.000000   2748097   2753935   2759482   2764737   2769776  
  6980.000000   2774692   2779606   2784582   2789651   2794765  
  6970.000000   2799864   2804861   2809713   2814381   2818871  
  6960.000000   2823175   2827306   2831252   2835033   2838656  
  6950.000000   2842166   2845588   2848950   2852234   2855416  
  6940.000000   2858442   2861292   2863960   2866492   2868932  
  6930.000000   2871336   2873713   2876056   2878321   2880485  
  6920.000000   2882539   2884519   2886466   2888421   2890384  
  6910.000000   2892326   2894184   2895914   2897495   2898966  
  6900.000000   2900392   2901851   2903392   2905024   2906714  
  6890.000000   2908411   2910066   2911652   2913160   2914591  
  6880.000000   2915933   2917173   2918291   2919290   2920205  
  6870.000000   2921112   2922093   2923216   2924499   2925905  
  6860.000000   2927352   2928748   2930021   2931145   2932130  
  6850.000000   2933020   2933853   2934661   2935458   2936265  
  6840.000000   2937108   2938028   2939053   2940189   2941386  
  6830.000000   2942561   2943610   2944459   2945086   2945542  
  6820.000000   2945918   2946314   2946783   2947321   2947865  
  6810.000000   2948342   2948697   2948943   2949133   2949361  
  6800.000000   2949692   2950153   2950701   2951259   2951732  
  6790.000000   2952055   2952192   2952153   2951955   2951626  
  6780.000000   2951184   2950661   2950090   2949536   2949056  
  6770.000000   2948704   2948477   2948337   2948195   2947963  
  6760.000000   2947572   2947009   2946305   2945523   2944716  
  6750.000000   2943911   2943095   2942239   2941313   2940326  
  6740.000000   2939311   2938330   2937431   2936649   2935970  
  6730.000000   2935368   2934797   2934228   2933638   2933012  
  6720.000000   2932318   2931513   2930539   2929350   2927938  
  6710.000000   2926344   2924649   2922958   2921356   2919890  
  6700.000000   2918554   2917313   2916120   2914953   2913810  
  6690.000000   2912710   2911662   2910654   2909639   2908553  
  6680.000000   2907340   2905975   2904474   2902893   2901295  
  6670.000000   2899737   2898237   2896791   2895366   2893935  
  6660.000000   2892468   2890954   2889377   2887724   2885970  
  6650.000000   2884099   2882109   2880025   2877891   2875763  
  6640.000000   2873680   2871655   2869662   2867665   2865619  
  6630.000000   2863514   2861364   2859217   2857119   2855100  
  6620.000000   2853150   2851225   2849253   2847171   2844938  
  6610.000000   2842558   2840075   2837561   2835095   2832746  
  6600.000000   2830549   2828508   2826587   2824721   2822835  
  6590.000000   2820861   2818761   2816534   2814231   2811930  
  6580.000000   2809721   2807670   2805807   2804107   2802512  
  6570.000000   2800946   2799352   2797704   2796020   2794344  
  6560.000000   2792731   2791219   2789817   2788499   2787218  
  6550.000000   2785914   2784539   2783060   2781475   2779804  
  6540.000000   2778089   2776388   2774758   2773249   2771887  
  6530.000000   2770667   2769555   2768494   2767428   2766311  
  6520.000000   2765124   2763873   2762584   2761281   2759984  
  6510.000000   2758695   2757411   2756131   2754863   2753628  
  6500.000000   2752456   2751366   2750363   2749431   2748536  
  6490.000000   2747645   2746732   2745785   2744808   2743808  
  6480.000000   2742789   2741747   2740677   2739578   2738464  
  6470.000000   2737365   2736314   2735338   2734444   2733617  
  6460.000000   2732820   2732013   2731163   2730257   2729299  
  6450.000000   2728303   2727286   2726258   2725226   2724191  
  6440.000000   2723160   2722140   2721137   2720145   2719151  
  6430.000000   2718132   2717070   2715963   2714833   2713723  
  6420.000000   2712685   2711761   2710970   2710302   2709730  
  6410.000000   2709219   2708742   2708283   2707835   2707386  
  6400.000000   2706915   2706386   2705769   2705050   2704249  
  6390.000000   2703414   2702612   2701903   2701317   2700846  
  6380.000000   2700442   2700043   2699588   2699045   2698406  
  6370.000000   2697693   2696929   2696142   2695344   2694544  
  6360.000000   2693748   2692967   2692212   2691490   2690796  
  6350.000000   2690113   2689413   2688677   2687895   2687082  
  6340.000000   2686259   2685454   2684680   2683938   2683209  
  6330.000000   2682480   2681737   2680986   2680233   2679487  
  6320.000000   2678735   2677952   2677092   2676121   2675011  
  6310.000000   2673774   2672435   2671044   2669633   2668229  
  6300.000000   2666826   2665420   2663990   2662534   2661044  
  6290.000000   2659525   2657961   2656339   2654625   2652802  
  6280.000000   2650856   2648799   2646651   2644442   2642188  
  6270.000000   2639894   2637549   2635146   2632682   2630183  
  6260.000000   2627677   2625207   2622791   2620436   2618116  
  6250.000000   2615806   2613477   2611126   2608764   2606418  
  6240.000000   2604105   2601827   2599560   2597263   2594890  
  6230.000000   2592409   2589810   2587110   2584341   2581544  
  6220.000000   2578752   2575994   2573280   2570622   2568020  
  6210.000000   2565475   2562981   2560529   2558106   2555694  
  6200.000000   2553279   2550847   2548393   2545916   2543425  
  6190.000000   2540927   2538437   2535969   2533536   2531149  
  6180.000000   2528809   2526512   2524248   2522002   2519764  
  6170.000000   2517529   2515302   2513088   2510894   2508717  
  6160.000000   2506550   2504378   2502191   2499988   2497784  
  6150.000000   2495601   2493469   2491406   2489424   2487515  
  6140.000000   2485663   2483844   2482040   2480232   2478410  
  6130.000000   2476563   2474692   2472796   2470890   2468991  
  6120.000000   2467131   2465334   2463626   2462008   2460480  
  6110.000000   2459025   2457634   2456297   2455019   2453800  
  6100.000000   2452644   2451535   2450458   2449389   2448323  
  6090.000000   2447264   2446242   2445289   2444437   2443690  
  6080.000000   2443038   2442440   2441866   2441282   2440691  
  6070.000000   2440101   2439544   2439035   2438589   2438198  
  6060.000000   2437865   2437587   2437387   2437288   2437327  
  6050.000000   2437513   2437846   2438290   2438807   2439352  
  6040.000000   2439902   2440443   2440988   2441544   2442128  
  6030.000000   2442736   2443375   2444044   2444760   2445540  
  6020.000000   2446407   2447364   2448408   2449512   2450647  
  6010.000000   2451786   2452923   2454060   2455220   2456409  
  6000.000000   2457635   2458873   2460104   2461296   2462446  
  5990.000000   2463558   2464664   2465792   2466977   2468230  
  5980.000000   2469560   2470960   2472431   2473970   2475587  
  5970.000000   2477283   2479062   2480912   2482826   2484792  
  5960.000000   2486806   2488861   2490956   2493072   2495193  
  5950.000000   2497283   2499324   2501304   2503241   2505167  
  5940.000000   2507126   2509153   2511266   2513457   2515705  
  5930.000000   2517981   2520270   2522569   2524884   2527221  
  5920.000000   2529575   2531923   2534236   2536482   2538653  
  5910.000000   2540756   2542823   2544888   2546979   2549107  
  5900.000000   2551265   2553434   2555598   2557751   2559901  
  5890.000000   2562061   2564246   2566463   2568713   2570987  
  5880.000000   2573279   2575580   2577882   2580166   2582410  
  5870.000000   2584581   2586657   2588625   2590504   2592331  
  5860.000000   2594162   2596044   2598007   2600051   2602156  
  5850.000000   2604297   2606463   2608661   2610925   2613294  
  5840.000000   2615799   2618444   2621206   2624045   2626913  
  5830.000000   2629773   2632603   2635396   2638148   2640850  
  5820.000000   2643486   2646036   2648484   2650829   2653079  
  5810.000000   2655259   2657377   2659448   2661450   2663375  
  5800.000000   2665192   2666907   2668510   2670030   2671463  
  5790.000000   2672818   2674059   2675156   2676042   2676677  
  5780.000000   2677005   2677009   2676671   2676012   2675058  
  5770.000000   2673873   2672527   2671116   2669720   2668417  
  5760.000000   2667243   2666213   2665304   2664487   2663727  
  5750.000000   2663006   2662318   2661670   2661071   2660527  
  5740.000000   2660044   2659621   2659273   2659009   2658854  
  5730.000000   2658812   2658891   2659066   2659314   2659599  
  5720.000000   2659906   2660223   2660567   2660949   2661387  
  5710.000000   2661880   2662424   2663003   2663610   2664242  
  5700.000000   2664907   2665617   2666376   2667181   2668017  
  5690.000000   2668873   2669738   2670618   2671521   2672455  
  5680.000000   2673411   2674363   2675257   2676043   2676666  
  5670.000000   2677101   2677340   2677403   2677315   2677110  
  5660.000000   2676806   2676427   2675982   2675497   2674987  
  5650.000000   2674477   2673974   2673484   2672995   2672499  
  5640.000000   2671979   2671439   2670879   2670313   2669746  
  5630.000000   2669184   2668624   2668065   2667509   2666967  
  5620.000000   2666449   2665965   2665508   2665066   2664611  
  5610.000000   2664121   2663580   2662993   2662371   2661736  
  5600.000000   2661101   2660471   2659836   2659186   2658504  
  5590.000000   2657784   2657020   2656214   2655355   2654441  
  5580.000000   2653460   2652417   2651323   2650208   2649097  
  5570.000000   2648015   2646964   2645928   2644879   2643790  
  5560.000000   2642644   2641449   2640221   2638987   2637763  
  5550.000000   2636555   2635355   2634157   2632958   2631772  
  5540.000000   2630616   2629509   2628451   2627429   2626413  
  5530.000000   2625376   2624301   2623193   2622071   2620961  
  5520.000000   2619879   2618825   2617782   2616727   2615644  
  5510.000000   2614530   2613394   2612254   2611117   2609983  
  5500.000000   2608835   2607657   2606435   2605178   2603899  
  5490.000000   2602622   2601353   2600085   2598789   2597439  
  5480.000000   2596003   2594478   2592870   2591204   2589496  
  5470.000000   2587762   2585999   2584203   2582368   2580498  
  5460.000000   2578598   2576675   2574724   2572731   2570677  
  5450.000000   2568548   2566347   2564099   2561841   2559617  
  5440.000000   2557453   2555357   2553319   2551324   2549364  
  5430.000000   2547437   2545554   2543713   2541907   2540108  
  5420.000000   2538300   2536469   2534652   2532904   2531314  
  5410.000000   2529943   2528834   2527960   2527278   2526708  
  5400.000000   2526215   2525767   2525399   2525134   2525027  
  5390.000000   2525079   2525303   2525658   2526142   2526733  
  5380.000000   2527468   2528355   2529443   2530728   2532230  
  5370.000000   2533915   2535794   2537832   2540058   2542445  
  5360.000000   2545026   2547766   2550704   2553817   2557189  
  5350.000000   2560843   2564899   2569385   2574391   2579878  
  5340.000000   2585876   2592302   2599192   2606495   2614291  
  5330.000000   2622550   2631354   2640640   2650457   2660723  
  5320.000000   2671507   2682770   2694645   2707135   2720396  
  5310.000000   2734411   2749290   2764955   2781470   2798739  
  5300.000000   2816831   2835680   2855404   2875984   2897561  
  5290.000000   2920120   2943750   2968354   2993904   3020218  
  5280.000000   3047225   3074785   3102930   3131656   3161089  
  5270.000000   3191253   3222166   3253683   3285597   3317637  
  5260.000000   3349574   3381282   3412735   3444019   3475187  
  5250.000000   3506284   3537176   3567705   3597559   3626563  
  5240.000000   3654497   3681404   3707270   3732300   3756532  
  5230.000000   3780134   3803026   3825239   3846577   3867018  
  5220.000000   3886392   3904768   3922092   3938545   3954139  
  5210.000000   3969059   3983253   3996792   4009514   4021423  
  5200.000000   4032366   4042426   4051565   4059962   4067621  
  5190.000000   4074686   4081082   4086855   4091880   4096200  
  5180.000000   4099744   4102628   4104842   4106509   4107594  
  5170.000000   4108167   4108157   4107622   4106522   4104952  
  5160.000000   4102897   4100445   4097552   4094257   4090496  
  5150.000000   4086315   4081695   4076726   4071426   4065881  
  5140.000000   4060078   4054056   4047777   4041273   4034537  
  5130.000000   4027633   4020583   4013445   4006215   3998909  
  5120.000000   3991494   3983979   3976353   3968653   3960897  
  5110.000000   3953123   3945330   3937524   3929681   3921799  
  5100.000000   3913864   3905898   3897907   3889909   3881896  
  5090.000000   3873862   3865783   3857658   3849484   3841289  
  5080.000000   3833089   3824913   3816758   3808619   3800468  
  5070.000000   3792293   3784080   3775845   3767602   3759376  
  5060.000000   3751171   3742988   3734803   3726595   3718340  
  5050.000000   3710033   3701675   3693281   3684863   3676434  
  5040.000000   3668002   3659574   3651159   3642770   3634429  
  5030.000000   3626151   3617954   3609841   3601815   3593866  
  5020.000000   3585997   3578203   3570506   3562912   3555455  
  5010.000000   3548144   3541013   3534062   3527324   3520791  
  5000.000000   3514489   3508401   3502545   3496891   3491460  
  4990.000000   3486229   3481238   3476486   3472036   3467889  
  4980.000000   3464100   3460643   3457544   3454753   3452287  
  4970.000000   3450107   3448259   3446729   3445583   3444811  
  4960.000000   3444465   3444511   3444980   3445823   3447067  
  4950.000000   3448667   3450656   3452990   3455700   3458733  
  4940.000000   3462113   3465788   3469787   3474068   3478670  
  4930.000000   3483559   3488771   3494269   3500084   3506178  
  4920.000000   3512579   3519256   3526233   3533477   3541004  
  4910.000000   3548772   3556788   3565008   3573434   3582027  
  4900.000000   3590785   3599674   3608694   3617822   3627062  
  4890.000000   3636403   3645844   3655368   3664956   3674571  
  4880.000000   3684173   3693726   3703192   3712555   3721797  
  4870.000000   3730913   3739881   3748690   3757300   3765698  
  4860.000000   3773855   3781780   3789470   3796964   3804268  
  4850.000000   3811420   3818417   3825285   3832014   3838629  
  4840.000000   3845123   3851524   3857816   3864018   3870094  
  4830.000000   3876048   3881837   3887462   3892890   3898127  
  4820.000000   3903147   3907955   3912524   3916863   3920955  
  4810.000000   3924822   3928464   3931917   3935192   3938326  
  4800.000000   3941327   3944231   3947042   3949794   3952486  
  4790.000000   3955141   3957744   3960301   3962788   3965209  
  4780.000000   3967549   3969827   3972039   3974210   3976325  
  4770.000000   3978385   3980352   3982207   3983904   3985434  
  4760.000000   3986773   3987932   3988905   3989713   3990346  
  4750.000000   3990821   3991120   3991256   3991211   3990998  
  4740.000000   3990599   3990025   3989254   3988298   3987140  
  4730.000000   3985799   3984269   3982577   3980724   3978733  
  4720.000000   3976599   3974343   3971962   3969483   3966919  
  4710.000000   3964309   3961676   3959058   3956466   3953913  
  4700.000000   3951385   3948872   3946347   3943794   3941194  
  4690.000000   3938544   3935841   3933092   3930299   3927468  
  4680.000000   3924599   3921689   3918739   3915746   3912719  
  4670.000000   3909667   3906616   3903588   3900618   3897728  
  4660.000000   3894943   3892270   3889724   3887299   3885007  
  4650.000000   3882846   3880837   3878985   3877309   3875806  
  4640.000000   3874476   3873292   3872233   3871261   3870351  
  4630.000000   3869476   3868625   3867784   3866952   3866118  
  4620.000000   3865274   3864401   3863485   3862504   3861447  
  4610.000000   3860307   3859091   3857815   3856506   3855194  
  4600.000000   3853910   3852681   3851521   3850435   3849414  
  4590.000000   3848445   3847514   3846609   3845723   3844857  
  4580.000000   3844007   3843172   3842339   3841496   3840622  
  4570.000000   3839706   3838733   3837703   3836610   3835457  
  4560.000000   3834239   3832955   3831597   3830168   3828669  
  4550.000000   3827113   3825515   3823890   3822250   3820603  
  4540.000000   3818957   3817317   3815696   3814102   3812558  
  4530.000000   3811067   3809652   3808305   3807053   3805888  
  4520.000000   3804856   3803965   3803280   3802812   3802630  
  4510.000000   3802731   3803183   3803975   3805188   3806821  
  4500.000000   3808970   3811632   3814897   3818742   3823243  
  4490.000000   3828363   3834179   3840663   3847890   3855825  
  4480.000000   3864513   3873879   3883925   3894544   3905720  
  4470.000000   3917357   3929454   3941935   3954803   3967985  
  4460.000000   3981466   3995162   4009043   4023032   4037103  
  4450.000000   4051205   4065320   4079418   4093485   4107505  
  4440.000000   4121460   4135351   4149152   4162870   4176467  
  4430.000000   4189951   4203262   4216410   4229321   4242008  
  4420.000000   4254381   4266452   4278113   4289360   4300058  
  4410.000000   4310184   4319582   4328216   4335932   4342703  
  4400.000000   4348411   4353076   4356646   4359207   4360786  
  4390.000000   4361527   4361513   4360917   4359843   4358452  
  4380.000000   4356840   4355141   4353440   4351854   4350474  
  4370.000000   4349407   4348753   4348597   4349025   4350078  
  4360.000000   4351797   4354164   4357169   4360745   4364838  
  4350.000000   4369360   4374246   4379433   4384895   4390625  
  4340.000000   4396638   4402940   4409504   4416228   4422924  
  4330.000000   4429319   4435086   4439908   4443538   4445877  
  4320.000000   4446983   4447099   4446557   4445768   4445066  
  4310.000000   4444730   4444867   4445510   4446550   4447885  
  4300.000000   4449355   4450869   4452319   4453658   4454827  
  4290.000000   4455799   4456541   4457049   4457326   4457405  
  4280.000000   4457325   4457149   4456923   4456719   4456578  
  4270.000000   4456563   4456687   4456966   4457336   4457709  
  4260.000000   4457919   4457792   4457142   4455843   4453834  
  4250.000000   4451165   4447964   4444434   4440784   4437222  
  4240.000000   4433887   4430874   4428189   4425813   4423670  
  4230.000000   4421692   4419791   4417894   4415933   4413850  
  4220.000000   4411610   4409193   4406619   4403918   4401165  
  4210.000000   4398426   4395793   4393323   4391083   4389096  
  4200.000000   4387389   4385948   4384772   4383820   4383078  
  4190.000000   4382490   4382050   4381706   4381480   4381344  
  4180.000000   4381351   4381497   4381858   4382441   4383341  
  4170.000000   4384578   4386265   4388436   4391206   4394586  
  4160.000000   4398652   4403358   4408721   4414645   4421128  
  4150.000000   4428075   4435510   4443371   4451714   4460500  
  4140.000000   4469800   4479577   4489898   4500720   4512094  
  4130.000000   4523961   4536349   4549186   4562491   4576204  
  4120.000000   4590361   4604936   4619984   4635489   4651488  
  4110.000000   4667936   4684822   4702060   4719604   4737360  
  4100.000000   4755288   4773327   4791472   4809708   4828063  
  4090.000000   4846556   4865216   4884058   4903084   4922287  
  4080.000000   4941633   4961101   4980639   5000222   5019785  
  4070.000000   5039300   5058686   5077920   5096929   5115721  
  4060.000000   5134246   5152538   5170536   5188258   5205599  
  4050.000000   5222557   5239010   5254982   5270369   5285221  
  4040.000000   5299425   5313008   5325812   5337849   5348963  
  4030.000000   5359209   5368479   5376859   5384253   5390707  
  4020.000000   5396054   5400322   5403422   5405428   5406263  
  4010.000000   5406116   5405100   5403298   5400491   5396822  
  4000.000000   5392724  
##END= 
