##TITLE= Sample 033 By ssteindl date Dienstag, November 20 2018
##JCAMP-DX= 4.24
##DATA TYPE= INFRARED SPECTRUM
##ORIGIN= Exported PE Spectrum Data File
##OWNER= Sandra Steindl
##DATE= 18/11/20
##TIME= 16:43:47.00
##SPECTROMETER/DATA SYSTEM= PERKIN-ELMER Frontier FT-IR/NIR IR
##INSTRUMENT PARAMETERS=
  APODIZATION=stark
  DETECTOR=INGAAS
##RESOLUTION= 16.000000
##DELTAX= -2.000000
##XUNITS= 1/CM
##YUNITS= A
##XFACTOR= 1.00
##YFACTOR= 0.00000011920928955078
##FIRSTX= 10000.00
##LASTX= 4000.00
##NPOINTS= 3001
##FIRSTY= 0.215866
##MAXY= 0.620576
##MINY= 0.187137
##XYDATA= (X++(Y..Y))
 10000.000000   1810817   1800943   1793046   1789569   1790653  
  9990.000000   1794478   1799294   1803886   1807311   1808993  
  9980.000000   1809379   1809488   1810341   1812409   1815743  
  9970.000000   1819839   1823945   1827274   1829391   1830215  
  9960.000000   1830037   1829326   1828562   1828123   1828250  
  9950.000000   1829053   1830546   1832614   1834995   1837300  
  9940.000000   1839018   1839769   1839356   1838059   1836517  
  9930.000000   1835707   1836570   1839733   1845168   1852101  
  9920.000000   1859078   1864374   1866442   1864464   1858566  
  9910.000000   1849855   1840010   1830858   1823821   1819619  
  9900.000000   1818143   1818578   1819717   1820296   1819325  
  9890.000000   1816286   1811168   1804446   1796928   1789619  
  9880.000000   1783560   1779629   1778425   1780064   1784178  
  9870.000000   1789899   1796067   1801495   1805268   1806970  
  9860.000000   1806752   1805202   1803150   1801337   1800258  
  9850.000000   1800004   1800351   1800865   1801110   1800787  
  9840.000000   1799799   1798255   1796358   1794341   1792358  
  9830.000000   1790494   1788745   1787073   1785431   1783823  
  9820.000000   1782328   1781141   1780501   1780668   1781761  
  9810.000000   1783721   1786238   1788810   1790874   1791916  
  9800.000000   1791667   1790090   1787432   1784041   1780305  
  9790.000000   1776482   1772749   1769196   1765976   1763321  
  9780.000000   1761546   1760952   1761666   1763595   1766370  
  9770.000000   1769504   1772527   1775170   1777436   1779541  
  9760.000000   1781789   1784359   1787204   1790016   1792340  
  9750.000000   1793767   1794072   1793334   1791838   1790030  
  9740.000000   1788269   1786840   1785771   1784971   1784180  
  9730.000000   1783116   1781502   1779130   1775906   1771823  
  9720.000000   1766993   1761591   1755847   1749991   1744252  
  9710.000000   1738856   1734072   1730247   1727788   1727096  
  9700.000000   1728407   1731644   1736329   1741606   1746474  
  9690.000000   1749999   1751665   1751415   1749708   1747225  
  9680.000000   1744702   1742642   1741295   1740656   1740634  
  9670.000000   1741152   1742171   1743669   1745477   1747304  
  9660.000000   1748695   1749267   1748805   1747446   1745608  
  9650.000000   1743874   1742722   1742339   1742520   1742785  
  9640.000000   1742581   1741550   1739631   1737065   1734195  
  9630.000000   1731309   1728494   1725670   1722701   1719541  
  9620.000000   1716318   1713277   1710695   1708690   1707215  
  9610.000000   1706025   1704855   1703518   1702017   1700516  
  9600.000000   1699259   1698440   1698169   1698458   1699334  
  9590.000000   1700866   1703170   1706273   1709993   1713837  
  9580.000000   1717106   1719077   1719329   1717907   1715376  
  9570.000000   1712597   1710428   1709373   1709448   1710206  
  9560.000000   1711015   1711352   1711026   1710226   1709328  
  9550.000000   1708711   1708520   1708703   1709071   1709548  
  9540.000000   1710236   1711416   1713354   1716102   1719358  
  9530.000000   1722525   1724869   1725851   1725246   1723279  
  9520.000000   1720421   1717238   1714157   1711400   1709016  
  9510.000000   1706955   1705145   1703469   1701699   1699442  
  9500.000000   1696202   1691550   1685411   1678249   1671100  
  9490.000000   1665302   1662048   1661922   1664630   1669114  
  9480.000000   1673941   1677866   1680264   1681279   1681661  
  9470.000000   1682305   1683837   1686262   1689045   1691311  
  9460.000000   1692310   1691671   1689540   1686440   1683021  
  9450.000000   1679873   1677355   1675699   1674974   1675220  
  9440.000000   1676322   1677989   1679683   1680709   1680434  
  9430.000000   1678511   1675084   1670738   1666304   1662495  
  9420.000000   1659665   1657665   1656087   1654522   1652929  
  9410.000000   1651667   1651337   1652430   1654963   1658392  
  9400.000000   1661723   1663979   1664643   1663988   1663004  
  9390.000000   1662964   1664823   1668728   1673902   1678934  
  9380.000000   1682329   1683051   1680888   1676437   1670832  
  9370.000000   1665243   1660479   1656795   1654011   1651782  
  9360.000000   1649841   1648160   1646833   1646028   1645757  
  9350.000000   1645984   1646582   1647550   1648979   1651033  
  9340.000000   1653797   1657063   1660323   1662737   1663449  
  9330.000000   1661833   1657824   1651938   1645154   1638579  
  9320.000000   1633150   1629425   1627507   1627166   1627942  
  9310.000000   1629358   1630977   1632480   1633617   1634222  
  9300.000000   1634218   1633639   1632662   1631525   1630505  
  9290.000000   1629760   1629348   1629175   1629094   1628970  
  9280.000000   1628724   1628403   1628088   1627887   1627818  
  9270.000000   1627831   1627825   1627701   1627418   1626945  
  9260.000000   1626263   1625274   1623860   1621883   1619301  
  9250.000000   1616218   1612926   1609869   1607521   1606275  
  9240.000000   1606295   1607530   1609706   1612473   1615447  
  9230.000000   1618319   1620853   1622884   1624291   1624971  
  9220.000000   1624880   1624027   1622531   1620548   1618282  
  9210.000000   1615878   1613462   1611095   1608830   1606721  
  9200.000000   1604830   1603259   1602081   1601367   1601115  
  9190.000000   1601329   1602014   1603217   1604994   1607336  
  9180.000000   1610126   1613087   1615845   1617957   1619077  
  9170.000000   1619039   1617956   1616156   1614081   1612170  
  9160.000000   1610745   1609967   1609799   1610086   1610610  
  9150.000000   1611177   1611609   1611779   1611570   1610917  
  9140.000000   1609800   1608274   1606476   1604604   1602911  
  9130.000000   1601609   1600849   1600652   1600938   1601530  
  9120.000000   1602179   1602655   1602777   1602501   1601924  
  9110.000000   1601288   1600923   1601131   1602066   1603641  
  9100.000000   1605524   1607201   1608128   1607912   1606454  
  9090.000000   1604001   1601067   1598286   1596201   1595125  
  9080.000000   1595034   1595646   1596505   1597181   1597340  
  9070.000000   1596847   1595711   1594081   1592172   1590207  
  9060.000000   1588392   1586845   1585611   1584597   1583628  
  9050.000000   1582433   1580786   1578584   1575968   1573302  
  9040.000000   1571087   1569819   1569816   1571106   1573389  
  9030.000000   1576161   1578898   1581217   1582981   1584259  
  9020.000000   1585272   1586197   1587085   1587775   1587999  
  9010.000000   1587488   1586143   1584092   1581687   1579431  
  9000.000000   1577813   1577204   1577695   1579153   1581211  
  8990.000000   1583415   1585287   1586464   1586768   1586218  
  8980.000000   1585011   1583428   1581782   1580292   1579078  
  8970.000000   1578111   1577314   1576584   1575870   1575208  
  8960.000000   1574697   1574484   1574661   1575278   1576306  
  8950.000000   1577695   1579377   1581291   1583369   1585491  
  8940.000000   1587466   1589042   1589986   1590141   1589518  
  8930.000000   1588285   1586759   1585256   1584011   1583075  
  8920.000000   1582335   1581592   1580667   1579547   1578381  
  8910.000000   1577492   1577186   1577712   1579109   1581247  
  8900.000000   1583841   1586552   1589086   1591177   1592638  
  8890.000000   1593262   1592904   1591437   1588864   1585367  
  8880.000000   1581346   1577382   1574100   1572067   1571636  
  8870.000000   1572898   1575625   1579367   1583528   1587493  
  8860.000000   1590704   1592714   1593278   1592368   1590259  
  8850.000000   1587439   1584589   1582388   1581396   1581864  
  8840.000000   1583668   1586346   1589237   1591717   1593371  
  8830.000000   1594122   1594204   1594042   1594068   1594546  
  8820.000000   1595495   1596700   1597851   1598686   1599127  
  8810.000000   1599311   1599533   1600137   1601347   1603190  
  8800.000000   1605435   1607675   1609439   1610344   1610216  
  8790.000000   1609132   1607422   1605556   1604039   1603253  
  8780.000000   1603359   1604266   1605673   1607171   1608375  
  8770.000000   1609046   1609163   1608922   1608659   1608730  
  8760.000000   1609388   1610702   1612547   1614645   1616688  
  8750.000000   1618419   1619723   1620638   1621314   1621943  
  8740.000000   1622663   1623521   1624451   1625332   1626038  
  8730.000000   1626498   1626731   1626831   1626940   1627174  
  8720.000000   1627582   1628121   1628684   1629137   1629383  
  8710.000000   1629392   1629226   1629010   1628922   1629133  
  8700.000000   1629804   1631019   1632799   1635053   1637606  
  8690.000000   1640199   1642542   1644387   1645613   1646309  
  8680.000000   1646785   1647517   1648995   1651557   1655228  
  8670.000000   1659667   1664240   1668182   1670849   1671911  
  8660.000000   1671461   1669971   1668102   1666493   1665535  
  8650.000000   1665333   1665724   1666453   1667314   1668257  
  8640.000000   1669373   1670798   1672566   1674524   1676334  
  8630.000000   1677590   1678010   1677556   1676521   1675420  
  8620.000000   1674850   1675279   1676890   1679554   1682881  
  8610.000000   1686397   1689694   1692527   1694834   1696663  
  8600.000000   1698102   1699180   1699873   1700128   1699959  
  8590.000000   1699468   1698882   1698489   1698569   1699311  
  8580.000000   1700719   1702661   1704862   1707048   1708971  
  8570.000000   1710514   1711686   1712603   1713431   1714306  
  8560.000000   1715292   1716330   1717275   1717932   1718156  
  8550.000000   1717907   1717293   1716563   1716029   1715987  
  8540.000000   1716589   1717829   1719526   1721417   1723233  
  8530.000000   1724804   1726084   1727139   1728071   1728944  
  8520.000000   1729742   1730364   1730701   1730677   1730351  
  8510.000000   1729875   1729490   1729390   1729674   1730300  
  8500.000000   1731115   1731939   1732638   1733213   1733790  
  8490.000000   1734598   1735858   1737724   1740219   1743222  
  8480.000000   1746497   1749745   1752675   1755032   1756641  
  8470.000000   1757414   1757394   1756738   1755712   1754634  
  8460.000000   1753822   1753515   1753811   1754654   1755851  
  8450.000000   1757159   1758347   1759294   1759985   1760516  
  8440.000000   1761025   1761637   1762422   1763371   1764428  
  8430.000000   1765509   1766551   1767511   1768371   1769121  
  8420.000000   1769748   1770246   1770618   1770907   1771184  
  8410.000000   1771547   1772085   1772842   1773798   1774872  
  8400.000000   1775949   1776912   1777677   1778217   1778563  
  8390.000000   1778789   1778987   1779241   1779619   1780169  
  8380.000000   1780904   1781813   1782840   1783916   1784940  
  8370.000000   1785843   1786572   1787143   1787605   1788033  
  8360.000000   1788477   1788922   1789272   1789356   1788994  
  8350.000000   1788049   1786507   1784481   1782210   1779993  
  8340.000000   1778117   1776794   1776101   1776019   1776436  
  8330.000000   1777244   1778344   1779689   1781242   1782951  
  8320.000000   1784709   1786336   1787620   1788338   1788362  
  8310.000000   1787661   1786361   1784670   1782857   1781161  
  8300.000000   1779750   1778711   1778051   1777761   1777820  
  8290.000000   1778243   1779023   1780144   1781506   1782955  
  8280.000000   1784283   1785296   1785877   1786011   1785800  
  8270.000000   1785397   1784965   1784585   1784244   1783833  
  8260.000000   1783221   1782324   1781144   1779810   1778504  
  8250.000000   1777438   1776750   1776498   1776620   1776990  
  8240.000000   1777452   1777861   1778113   1778130   1777861  
  8230.000000   1777262   1776309   1775025   1773491   1771870  
  8220.000000   1770363   1769186   1768495   1768361   1768730  
  8210.000000   1769449   1770280   1770963   1771251   1770957  
  8200.000000   1769978   1768313   1766068   1763452   1760751  
  8190.000000   1758274   1756291   1754961   1754282   1754095  
  8180.000000   1754122   1754063   1753668   1752830   1751580  
  8170.000000   1750083   1748547   1747174   1746085   1745318  
  8160.000000   1744842   1744583   1744458   1744371   1744219  
  8150.000000   1743866   1743162   1741964   1740194   1737870  
  8140.000000   1735134   1732223   1729418   1726977   1725061  
  8130.000000   1723737   1722953   1722611   1722579   1722748  
  8120.000000   1723008   1723251   1723349   1723155   1722539  
  8110.000000   1721404   1719757   1717679   1715349   1712962  
  8100.000000   1710712   1708733   1707089   1705796   1704826  
  8090.000000   1704160   1703768   1703636   1703722   1703964  
  8080.000000   1704263   1704494   1704537   1704276   1703645  
  8070.000000   1702606   1701182   1699437   1697480   1695463  
  8060.000000   1693550   1691907   1690650   1689834   1689418  
  8050.000000   1689290   1689282   1689218   1688946   1688363  
  8040.000000   1687428   1686139   1684539   1682696   1680716  
  8030.000000   1678727   1676887   1675353   1674246   1673626  
  8020.000000   1673458   1673628   1673964   1674292   1674467  
  8010.000000   1674410   1674108   1673586   1672893   1672064  
  8000.000000   1671129   1670109   1669039   1667967   1666955  
  7990.000000   1666058   1665306   1664694   1664186   1663726  
  7980.000000   1663261   1662752   1662180   1661540   1660838  
  7970.000000   1660094   1659351   1658676   1658167   1657920  
  7960.000000   1658001   1658406   1659052   1659779   1660404  
  7950.000000   1660773   1660817   1660563   1660124   1659643  
  7940.000000   1659238   1658963   1658797   1658676   1658527  
  7930.000000   1658317   1658050   1657772   1657529   1657352  
  7920.000000   1657233   1657147   1657055   1656930   1656751  
  7910.000000   1656498   1656138   1655628   1654931   1654042  
  7900.000000   1653010   1651949   1650999   1650288   1649877  
  7890.000000   1649738   1649757   1649786   1649699   1649436  
  7880.000000   1649024   1648542   1648081   1647696   1647381  
  7870.000000   1647087   1646762   1646395   1646034   1645777  
  7860.000000   1645719   1645908   1646303   1646778   1647162  
  7850.000000   1647290   1647061   1646454   1645536   1644411  
  7840.000000   1643197   1641986   1640841   1639811   1638931  
  7830.000000   1638252   1637808   1637632   1637711   1638005  
  7820.000000   1638428   1638884   1639262   1639469   1639427  
  7810.000000   1639076   1638391   1637373   1636072   1634573  
  7800.000000   1632994   1631461   1630076   1628905   1627958  
  7790.000000   1627214   1626617   1626118   1625669   1625235  
  7780.000000   1624780   1624263   1623643   1622886   1621989  
  7770.000000   1620985   1619943   1618947   1618073   1617353  
  7760.000000   1616774   1616279   1615794   1615250   1614605  
  7750.000000   1613850   1613000   1612086   1611147   1610230  
  7740.000000   1609389   1608684   1608168   1607865   1607753  
  7730.000000   1607760   1607775   1607689   1607430   1606985  
  7720.000000   1606406   1605771   1605151   1604560   1603965  
  7710.000000   1603288   1602465   1601476   1600371   1599258  
  7700.000000   1598264   1597496   1597004   1596782   1596785  
  7690.000000   1596956   1597251   1597631   1598057   1598458  
  7680.000000   1598736   1598775   1598493   1597873   1596992  
  7670.000000   1596006   1595102   1594439   1594096   1594051  
  7660.000000   1594199   1594395   1594507   1594449   1594196  
  7650.000000   1593765   1593192   1592511   1591756   1590960  
  7640.000000   1590184   1589498   1588993   1588730   1588733  
  7630.000000   1588962   1589330   1589728   1590061   1590283  
  7620.000000   1590401   1590473   1590582   1590808   1591214  
  7610.000000   1591815   1592586   1593445   1594279   1594948  
  7600.000000   1595329   1595337   1594966   1594299   1593497  
  7590.000000   1592770   1592314   1592266   1592657   1593418  
  7580.000000   1594403   1595443   1596398   1597180   1597764  
  7570.000000   1598165   1598422   1598565   1598629   1598641  
  7560.000000   1598651   1598712   1598892   1599236   1599767  
  7550.000000   1600468   1601301   1602222   1603206   1604245  
  7540.000000   1605350   1606516   1607720   1608898   1609989  
  7530.000000   1610936   1611748   1612484   1613266   1614217  
  7520.000000   1615441   1616964   1618744   1620670   1622617  
  7510.000000   1624471   1626186   1627763   1629264   1630755  
  7500.000000   1632307   1633955   1635708   1637548   1639454  
  7490.000000   1641410   1643422   1645512   1647716   1650064  
  7480.000000   1652571   1655216   1657945   1660660   1663254  
  7470.000000   1665617   1667684   1669438   1670940   1672296  
  7460.000000   1673645   1675118   1676818   1678795   1681048  
  7450.000000   1683540   1686214   1689008   1691863   1694726  
  7440.000000   1697550   1700298   1702954   1705516   1708015  
  7430.000000   1710492   1712999   1715575   1718235   1720968  
  7420.000000   1723739   1726505   1729225   1731869   1734420  
  7410.000000   1736869   1739218   1741469   1743638   1745740  
  7400.000000   1747803   1749846   1751876   1753886   1755854  
  7390.000000   1757768   1759639   1761520   1763501   1765690  
  7380.000000   1768172   1770972   1774026   1777193   1780297  
  7370.000000   1783169   1785708   1787896   1789812   1791588  
  7360.000000   1793375   1795288   1797392   1799691   1802145  
  7350.000000   1804698   1807293   1809902   1812505   1815110  
  7340.000000   1817721   1820349   1822989   1825628   1828238  
  7330.000000   1830779   1833204   1835470   1837550   1839441  
  7320.000000   1841166   1842778   1844328   1845880   1847473  
  7310.000000   1849138   1850877   1852689   1854545   1856417  
  7300.000000   1858255   1859996   1861564   1862891   1863929  
  7290.000000   1864674   1865169   1865500   1865774   1866101  
  7280.000000   1866561   1867205   1868042   1869062   1870229  
  7270.000000   1871500   1872825   1874147   1875408   1876547  
  7260.000000   1877525   1878319   1878955   1879478   1879973  
  7250.000000   1880517   1881194   1882049   1883116   1884391  
  7240.000000   1885867   1887516   1889320   1891247   1893283  
  7230.000000   1895397   1897585   1899827   1902132   1904488  
  7220.000000   1906912   1909391   1911944   1914569   1917302  
  7210.000000   1920165   1923206   1926439   1929877   1933474  
  7200.000000   1937189   1940943   1944707   1948460   1952252  
  7190.000000   1956133   1960185   1964442   1968923   1973584  
  7180.000000   1978382   1983259   1988204   1993223   1998363  
  7170.000000   2003648   2009106   2014699   2020387   2026081  
  7160.000000   2031732   2037285   2042741   2048100   2053413  
  7150.000000   2058719   2064099   2069627   2075407   2081511  
  7140.000000   2087999   2094853   2102018   2109374   2116809  
  7130.000000   2124212   2131553   2138834   2146136   2153533  
  7120.000000   2161118   2168915   2176932   2185112   2193398  
  7110.000000   2201713   2210017   2218270   2226480   2234659  
  7100.000000   2242859   2251135   2259559   2268174   2277003  
  7090.000000   2286004   2295105   2304191   2313166   2321955  
  7080.000000   2330552   2338995   2347366   2355745   2364198  
  7070.000000   2372755   2381424   2390198   2399075   2408058  
  7060.000000   2417144   2426316   2435528   2444714   2453805  
  7050.000000   2462758   2471564   2480259   2488892   2497508  
  7040.000000   2506108   2514665   2523117   2531416   2539527  
  7030.000000   2547463   2555241   2562896   2570426   2577829  
  7020.000000   2585077   2592181   2599167   2606112   2613072  
  7010.000000   2620091   2627132   2634119   2640924   2647459  
  7000.000000   2653680   2659645   2665453   2671238   2677076  
  6990.000000   2682990   2688905   2694728   2700352   2705735  
  6980.000000   2710875   2715840   2720687   2725481   2730223  
  6970.000000   2734911   2739504   2743992   2748354   2752597  
  6960.000000   2756695   2760629   2764336   2767784   2770938  
  6950.000000   2773832   2776516   2779082   2781593   2784102  
  6940.000000   2786598   2789058   2791424   2793668   2795762  
  6930.000000   2797721   2799560   2801319   2803028   2804730  
  6920.000000   2806455   2808242   2810098   2812020   2813960  
  6910.000000   2815860   2817648   2819280   2820742   2822062  
  6900.000000   2823290   2824483   2825679   2826895   2828121  
  6890.000000   2829352   2830580   2831815   2833058   2834302  
  6880.000000   2835512   2836646   2837656   2838536   2839313  
  6870.000000   2840062   2840867   2841790   2842843   2843983  
  6860.000000   2845128   2846203   2847157   2847992   2848740  
  6850.000000   2849451   2850146   2850823   2851448   2851998  
  6840.000000   2852475   2852922   2853401   2853967   2854630  
  6830.000000   2855347   2856025   2856572   2856926   2857096  
  6820.000000   2857150   2857198   2857333   2857612   2858024  
  6810.000000   2858519   2859018   2859461   2859807   2860043  
  6800.000000   2860157   2860141   2859968   2859623   2859100  
  6790.000000   2858437   2857693   2856951   2856275   2855708  
  6780.000000   2855245   2854863   2854513   2854166   2853793  
  6770.000000   2853380   2852906   2852349   2851672   2850854  
  6760.000000   2849890   2848808   2847659   2846507   2845395  
  6750.000000   2844347   2843348   2842375   2841393   2840395  
  6740.000000   2839381   2838368   2837360   2836343   2835276  
  6730.000000   2834110   2832793   2831305   2829651   2827877  
  6720.000000   2826051   2824255   2822564   2821042   2819718  
  6710.000000   2818592   2817617   2816714   2815774   2814695  
  6700.000000   2813397   2811856   2810108   2808241   2806360  
  6690.000000   2804563   2802904   2801389   2799982   2798632  
  6680.000000   2797285   2795911   2794485   2792996   2791420  
  6670.000000   2789734   2787914   2785963   2783912   2781823  
  6660.000000   2779763   2777785   2775896   2774068   2772241  
  6650.000000   2770367   2768419   2766424   2764427   2762482  
  6640.000000   2760610   2758789   2756955   2755031   2752953  
  6630.000000   2750698   2748286   2745768   2743206   2740648  
  6620.000000   2738126   2735656   2733247   2730918   2728685  
  6610.000000   2726566   2724557   2722639   2720771   2718920  
  6600.000000   2717061   2715193   2713332   2711489   2709660  
  6590.000000   2707810   2705895   2703862   2701695   2699409  
  6580.000000   2697061   2694724   2692472   2690350   2688371  
  6570.000000   2686521   2684771   2683092   2681464   2679873  
  6560.000000   2678308   2676754   2675201   2673643   2672087  
  6550.000000   2670558   2669085   2667692   2666388   2665153  
  6540.000000   2663957   2662756   2661521   2660237   2658904  
  6530.000000   2657526   2656108   2654647   2653141   2651601  
  6520.000000   2650056   2648551   2647135   2645840   2644666  
  6510.000000   2643575   2642506   2641393   2640193   2638899  
  6500.000000   2637542   2636173   2634844   2633590   2632425  
  6490.000000   2631343   2630330   2629376   2628474   2627615  
  6480.000000   2626787   2625968   2625130   2624254   2623331  
  6470.000000   2622372   2621396   2620423   2619463   2618506  
  6460.000000   2617539   2616550   2615541   2614537   2613566  
  6450.000000   2612657   2611813   2611013   2610215   2609374  
  6440.000000   2608459   2607465   2606411   2605326   2604235  
  6430.000000   2603148   2602061   2600963   2599857   2598760  
  6420.000000   2597708   2596737   2595872   2595109   2594421  
  6410.000000   2593767   2593105   2592413   2591688   2590943  
  6400.000000   2590196   2589457   2588725   2587991   2587246  
  6390.000000   2586490   2585730   2584980   2584252   2583547  
  6380.000000   2582859   2582172   2581469   2580740   2579976  
  6370.000000   2579172   2578323   2577420   2576459   2575441  
  6360.000000   2574382   2573311   2572259   2571255   2570311  
  6350.000000   2569422   2568563   2567708   2566832   2565923  
  6340.000000   2564981   2564017   2563039   2562061   2561089  
  6330.000000   2560135   2559203   2558303   2557431   2556580  
  6320.000000   2555723   2554834   2553879   2552848   2551734  
  6310.000000   2550556   2549327   2548060   2546742   2545356  
  6300.000000   2543866   2542258   2540521   2538674   2536738  
  6290.000000   2534748   2532720   2530672   2528605   2526535  
  6280.000000   2524464   2522411   2520369   2518333   2516268  
  6270.000000   2514141   2511919   2509599   2507194   2504746  
  6260.000000   2502290   2499853   2497423   2494974   2492463  
  6250.000000   2489872   2487203   2484497   2481801   2479157  
  6240.000000   2476569   2474011   2471425   2468759   2465979  
  6230.000000   2463090   2460126   2457139   2454167   2451233  
  6220.000000   2448331   2445444   2442555   2439661   2436775  
  6210.000000   2433917   2431104   2428340   2425621   2422932  
  6200.000000   2420265   2417621   2415010   2412442   2409920  
  6190.000000   2407438   2404981   2402534   2400095   2397672  
  6180.000000   2395285   2392951   2390677   2388447   2386234  
  6170.000000   2384001   2381720   2379378   2376983   2374556  
  6160.000000   2372125   2369716   2367351   2365036   2362776  
  6150.000000   2360565   2358393   2356246   2354111   2351974  
  6140.000000   2349838   2347715   2345632   2343618   2341698  
  6130.000000   2339874   2338134   2336443   2334772   2333091  
  6120.000000   2331402   2329713   2328054   2326445   2324905  
  6110.000000   2323432   2322026   2320676   2319385   2318150  
  6100.000000   2316978   2315854   2314768   2313693   2312618  
  6090.000000   2311543   2310496   2309512   2308634   2307882  
  6080.000000   2307254   2306713   2306221   2305729   2305223  
  6070.000000   2304701   2304192   2303723   2303324   2303002  
  6060.000000   2302766   2302607   2302535   2302546   2302655  
  6050.000000   2302848   2303121   2303443   2303802   2304187  
  6040.000000   2304622   2305137   2305783   2306583   2307547  
  6030.000000   2308647   2309843   2311089   2312362   2313656  
  6020.000000   2314989   2316372   2317809   2319270   2320712  
  6010.000000   2322078   2323332   2324458   2325474   2326418  
  6000.000000   2327336   2328263   2329226   2330231   2331281  
  5990.000000   2332377   2333522   2334719   2335975   2337288  
  5980.000000   2338657   2340074   2341543   2343059   2344625  
  5970.000000   2346230   2347859   2349487   2351099   2352686  
  5960.000000   2354266   2355866   2357528   2359275   2361113  
  5950.000000   2363019   2364956   2366881   2368773   2370629  
  5940.000000   2372473   2374332   2376231   2378170   2380134  
  5930.000000   2382094   2384029   2385932   2387816   2389708  
  5920.000000   2391635   2393614   2395647   2397722   2399825  
  5910.000000   2401938   2404052   2406154   2408230   2410261  
  5900.000000   2412224   2414105   2415903   2417641   2419354  
  5890.000000   2421089   2422880   2424743   2426668   2428630  
  5880.000000   2430597   2432542   2434449   2436312   2438135  
  5870.000000   2439916   2441657   2443352   2445004   2446619  
  5860.000000   2448217   2449816   2451440   2453103   2454822  
  5850.000000   2456609   2458488   2460484   2462633   2464957  
  5840.000000   2467467   2470149   2472968   2475877   2478825  
  5830.000000   2481773   2484693   2487572   2490401   2493169  
  5820.000000   2495858   2498448   2500912   2503236   2505398  
  5810.000000   2507399   2509221   2510871   2512333   2513622  
  5800.000000   2514738   2515718   2516575   2517349   2518035  
  5790.000000   2518644   2519140   2519509   2519711   2519740  
  5780.000000   2519576   2519229   2518692   2517975   2517080  
  5770.000000   2516028   2514845   2513584   2512299   2511053  
  5760.000000   2509893   2508850   2507934   2507144   2506471  
  5750.000000   2505909   2505453   2505099   2504847   2504686  
  5740.000000   2504611   2504612   2504690   2504842   2505073  
  5730.000000   2505368   2505719   2506095   2506478   2506847  
  5720.000000   2507211   2507579   2507982   2508433   2508944  
  5710.000000   2509500   2510086   2510684   2511298   2511943  
  5700.000000   2512652   2513452   2514354   2515347   2516395  
  5690.000000   2517456   2518495   2519494   2520452   2521382  
  5680.000000   2522287   2523164   2523986   2524722   2525340  
  5670.000000   2525827   2526179   2526416   2526557   2526626  
  5660.000000   2526631   2526589   2526504   2526398   2526282  
  5650.000000   2526176   2526079   2525986   2525870   2525711  
  5640.000000   2525488   2525202   2524863   2524495   2524113  
  5630.000000   2523725   2523320   2522888   2522416   2521907  
  5620.000000   2521375   2520847   2520344   2519884   2519462  
  5610.000000   2519069   2518681   2518281   2517853   2517393  
  5600.000000   2516896   2516360   2515777   2515141   2514444  
  5590.000000   2513687   2512870   2511999   2511078   2510112  
  5580.000000   2509102   2508052   2506965   2505850   2504707  
  5570.000000   2503538   2502331   2501077   2499765   2498401  
  5560.000000   2497000   2495594   2494215   2492888   2491620  
  5550.000000   2490404   2489219   2488046   2486877   2485715  
  5540.000000   2484574   2483467   2482397   2481350   2480308  
  5530.000000   2479250   2478163   2477052   2475930   2474813  
  5520.000000   2473715   2472637   2471574   2470518   2469460  
  5510.000000   2468401   2467338   2466271   2465190   2464084  
  5500.000000   2462941   2461765   2460566   2459368   2458185  
  5490.000000   2457024   2455860   2454663   2453391   2452027  
  5480.000000   2450571   2449060   2447532   2446023   2444534  
  5470.000000   2443042   2441490   2439830   2438027   2436085  
  5460.000000   2434029   2431900   2429729   2427529   2425295  
  5450.000000   2423019   2420698   2418347   2415995   2413678  
  5440.000000   2411417   2409220   2407082   2404998   2402975  
  5430.000000   2401025   2399173   2397418   2395753   2394131  
  5420.000000   2392516   2390871   2389215   2387588   2386083  
  5410.000000   2384771   2383715   2382904   2382312   2381865  
  5400.000000   2381523   2381244   2381044   2380930   2380942  
  5390.000000   2381082   2381369   2381785   2382354   2383078  
  5380.000000   2384009   2385157   2386558   2388178   2390004  
  5370.000000   2391969   2394063   2396248   2398561   2400998  
  5360.000000   2403624   2406431   2409484   2412771   2416371  
  5350.000000   2420293   2424634   2429398   2434658   2440370  
  5340.000000   2446569   2453188   2460283   2467812   2475863  
  5330.000000   2484401   2493500   2503089   2513220   2523817  
  5320.000000   2534971   2546661   2559037   2572102   2586003  
  5310.000000   2600697   2616269   2632615   2649794   2667713  
  5300.000000   2686465   2706014   2726500   2747921   2770415  
  5290.000000   2793946   2818572   2844160   2870650   2897837  
  5280.000000   2925639   2953926   2982735   3012085   3042109  
  5270.000000   3072843   3104295   3136311   3168658   3201052  
  5260.000000   3233239   3265094   3296584   3327807   3358815  
  5250.000000   3389667   3420222   3450334   3479684   3508116  
  5240.000000   3535417   3561651   3586814   3611126   3634622  
  5230.000000   3657466   3679563   3700933   3721371   3740862  
  5220.000000   3759242   3776601   3792893   3808310   3822863  
  5210.000000   3836733   3849860   3862317   3873941   3884743  
  5200.000000   3894571   3903508   3911507   3918736   3925190  
  5190.000000   3931008   3936124   3940595   3944312   3947331  
  5180.000000   3949585   3951188   3952123   3952508   3952306  
  5170.000000   3951588   3950288   3948469   3946094   3943258  
  5160.000000   3939951   3936263   3932162   3927701   3922832  
  5150.000000   3917607   3912014   3906139   3900000   3893677  
  5140.000000   3887158   3880476   3873586   3866498   3859179  
  5130.000000   3851660   3843941   3836069   3828054   3819944  
  5120.000000   3811747   3803508   3795239   3786980   3778731  
  5110.000000   3770504   3762278   3754046   3745785   3737501  
  5100.000000   3729195   3720890   3712592   3704311   3696036  
  5090.000000   3687757   3679461   3671153   3662842   3654552  
  5080.000000   3646295   3638081   3629896   3621724   3613539  
  5070.000000   3605330   3597093   3588838   3580574   3572309  
  5060.000000   3564038   3555754   3547448   3539127   3530801  
  5050.000000   3522496   3514232   3506021   3497854   3489711  
  5040.000000   3481568   3473407   3465233   3457062   3448930  
  5030.000000   3440867   3432898   3425025   3417248   3409550  
  5020.000000   3401933   3394396   3386967   3379662   3372517  
  5010.000000   3365537   3358744   3352121   3345683   3339409  
  5000.000000   3333325   3327418   3321723   3316227   3310969  
  4990.000000   3305937   3301176   3296680   3292505   3288640  
  4980.000000   3285133   3281958   3279146   3276659   3274532  
  4970.000000   3272737   3271325   3270276   3269639   3269376  
  4960.000000   3269516   3270000   3270851   3272019   3273548  
  4950.000000   3275413   3277667   3280285   3283302   3286671  
  4940.000000   3290405   3294450   3298824   3303484   3308459  
  4930.000000   3313713   3319270   3325086   3331179   3337508  
  4920.000000   3344098   3350923   3358013   3365346   3372940  
  4910.000000   3380758   3388796   3397009   3405389   3413901  
  4900.000000   3422546   3431304   3440182   3449169   3458266  
  4890.000000   3467458   3476731   3486057   3495407   3504744  
  4880.000000   3514033   3523247   3532363   3541374   3550263  
  4870.000000   3559032   3567659   3576137   3584437   3592557  
  4860.000000   3600480   3608226   3615794   3623215   3630484  
  4850.000000   3637619   3644600   3651436   3658107   3664635  
  4840.000000   3671012   3677274   3683412   3689450   3695361  
  4830.000000   3701152   3706784   3712262   3717555   3722671  
  4820.000000   3727588   3732318   3736844   3741181   3745317  
  4810.000000   3749272   3753038   3756633   3760044   3763284  
  4800.000000   3766339   3769233   3771965   3774577   3777080  
  4790.000000   3779515   3781883   3784204   3786459   3788653  
  4780.000000   3790765   3792805   3794758   3796635   3798410  
  4770.000000   3800082   3801611   3802991   3804193   3805230  
  4760.000000   3806096   3806822   3807401   3807849   3808133  
  4750.000000   3808244   3808130   3807784   3807173   3806315  
  4740.000000   3805207   3803891   3802379   3800715   3798904  
  4730.000000   3796977   3794924   3792764   3790481   3788086  
  4720.000000   3785568   3782943   3780211   3777397   3774513  
  4710.000000   3771586   3768627   3765655   3762673   3759692  
  4700.000000   3756709   3753730   3750752   3747781   3744811  
  4690.000000   3741844   3738874   3735901   3732921   3729929  
  4680.000000   3726918   3723876   3720785   3717621   3714366  
  4670.000000   3711002   3707535   3703980   3700379   3696779  
  4660.000000   3693239   3689803   3686515   3683388   3680435  
  4650.000000   3677646   3675018   3672536   3670201   3668005  
  4640.000000   3665953   3664034   3662251   3660586   3659034  
  4630.000000   3657567   3656176   3654831   3653527   3652248  
  4620.000000   3651002   3649792   3648639   3647548   3646531  
  4610.000000   3645574   3644665   3643776   3642890   3641990  
  4600.000000   3641080   3640169   3639279   3638426   3637622  
  4590.000000   3636870   3636164   3635498   3634863   3634257  
  4580.000000   3633674   3633110   3632555   3631997   3631418  
  4570.000000   3630810   3630165   3629484   3628767   3628019  
  4560.000000   3627233   3626400   3625504   3624535   3623486  
  4550.000000   3622360   3621168   3619920   3618630   3617297  
  4540.000000   3615931   3614529   3613111   3611689   3610307  
  4530.000000   3608991   3607798   3606748   3605895   3605246  
  4520.000000   3604849   3604701   3604848   3605272   3606018  
  4510.000000   3607052   3608424   3610109   3612185   3614651  
  4500.000000   3617612   3621074   3625141   3629796   3635116  
  4490.000000   3641061   3647696   3654978   3662970   3671628  
  4480.000000   3681001   3691023   3701717   3712996   3724863  
  4470.000000   3737232   3750102   3763393   3777099   3791143  
  4460.000000   3805504   3820106   3834915   3849858   3864890  
  4450.000000   3879940   3894954   3909872   3924644   3939244  
  4440.000000   3953646   3967863   3981883   3995741   4009408  
  4430.000000   4022911   4036187   4049247   4062001   4074451  
  4420.000000   4086488   4098112   4109198   4119742   4129609  
  4410.000000   4138792   4147154   4154688   4161267   4166901  
  4400.000000   4171492   4175085   4177637   4179241   4179913  
  4390.000000   4179783   4178907   4177428   4175424   4173036  
  4380.000000   4170352   4167511   4164614   4161796   4159171  
  4370.000000   4156862   4154983   4153632   4152901   4152839  
  4360.000000   4153499   4154867   4156933   4159620   4162867  
  4350.000000   4166563   4170642   4175021   4179683   4184608  
  4340.000000   4189819   4195308   4201057   4206969   4212906  
  4330.000000   4218656   4223999   4228721   4232675   4235807  
  4320.000000   4238167   4239915   4241253   4242429   4243623  
  4310.000000   4244995   4246576   4248378   4250304   4252288  
  4300.000000   4254210   4256013   4257613   4258984   4260075  
  4290.000000   4260874   4261350   4261506   4261337   4260874  
  4280.000000   4260143   4259204   4258100   4256911   4255684  
  4270.000000   4254501   4253393   4252406   4251520   4250704  
  4260.000000   4249865   4248905   4247705   4246181   4244282  
  4250.000000   4242021   4239458   4236699   4233862   4231066  
  4240.000000   4228400   4225931   4223686   4221674   4219886  
  4230.000000   4218302   4216893   4215616   4214418   4213228  
  4220.000000   4211982   4210611   4209086   4207390   4205560  
  4210.000000   4203646   4201736   4199904   4198238   4196786  
  4200.000000   4195593   4194658   4193974   4193492   4193180  
  4190.000000   4192968   4192836   4192735   4192687   4192686  
  4180.000000   4192798   4193037   4193486   4194152   4195117  
  4170.000000   4196393   4198076   4200196   4202871   4206127  
  4160.000000   4210057   4214639   4219905   4225773   4232237  
  4150.000000   4239199   4246670   4254578   4262965   4271782  
  4140.000000   4281088   4290842   4301100   4311819   4323050  
  4130.000000   4334743   4346934   4359564   4372656   4386146  
  4120.000000   4400053   4414323   4428978   4443980   4459356  
  4110.000000   4475078   4491172   4507612   4524412   4541533  
  4100.000000   4558965   4576652   4594565   4612649   4630881  
  4090.000000   4649232   4667699   4686279   4704972   4723782  
  4080.000000   4742700   4761731   4780853   4800068   4819333  
  4070.000000   4838632   4857883   4877050   4896029   4914794  
  4060.000000   4933258   4951430   4969236   4986701   5003741  
  4050.000000   5020377   5036516   5052195   5067322   5081948  
  4040.000000   5095962   5109393   5122093   5134079   5145208  
  4030.000000   5155537   5164961   5173559   5181230   5188007  
  4020.000000   5193718   5198377   5201881   5204289   5205526  
  4010.000000   5205772   5205139   5203730   5201378   5198242  
  4000.000000   5194717  
##END= 
