##TITLE= Sample 023 By ssteindl date Dienstag, November 20 2018
##JCAMP-DX= 4.24
##DATA TYPE= INFRARED SPECTRUM
##ORIGIN= Exported PE Spectrum Data File
##OWNER= Sandra Steindl
##DATE= 18/11/20
##TIME= 16:31:44.00
##SPECTROMETER/DATA SYSTEM= PERKIN-ELMER Frontier FT-IR/NIR IR
##INSTRUMENT PARAMETERS=
  APODIZATION=stark
  DETECTOR=INGAAS
##RESOLUTION= 16.000000
##DELTAX= -2.000000
##XUNITS= 1/CM
##YUNITS= A
##XFACTOR= 1.00
##YFACTOR= 0.00000011920928955078
##FIRSTX= 10000.00
##LASTX= 4000.00
##NPOINTS= 3001
##FIRSTY= 0.206494
##MAXY= 0.664178
##MINY= 0.177755
##XYDATA= (X++(Y..Y))
 10000.000000   1732195   1733076   1735127   1739380   1744816  
  9990.000000   1749259   1751310   1750964   1748976   1746602  
  9980.000000   1745280   1746108   1749107   1753379   1757640  
  9970.000000   1760802   1762366   1762468   1761662   1760387  
  9960.000000   1758655   1755974   1751682   1745444   1737694  
  9950.000000   1729716   1723291   1720093   1720950   1725626  
  9940.000000   1732755   1740531   1747223   1751847   1754312  
  9930.000000   1755271   1755666   1756211   1757029   1757614  
  9920.000000   1757070   1754548   1749698   1742833   1734939  
  9910.000000   1727260   1720931   1716540   1713956   1712403  
  9900.000000   1710734   1707880   1703233   1696939   1689896  
  9890.000000   1683603   1679675   1679420   1683351   1691017  
  9880.000000   1701124   1711844   1721389   1728312   1731876  
  9870.000000   1731973   1729090   1724011   1717697   1711068  
  9860.000000   1705013   1700277   1697455   1696867   1698417  
  9850.000000   1701614   1705537   1709190   1711652   1712478  
  9840.000000   1711735   1710004   1708124   1706864   1706674  
  9830.000000   1707502   1708915   1710259   1710977   1710766  
  9820.000000   1709662   1707956   1706026   1704225   1702727  
  9810.000000   1701570   1700620   1699724   1698731   1697632  
  9800.000000   1696520   1695612   1695105   1695111   1695579  
  9790.000000   1696243   1696733   1696543   1695275   1692602  
  9780.000000   1688497   1683164   1677085   1670897   1665302  
  9770.000000   1660988   1658555   1658484   1661038   1666192  
  9760.000000   1673491   1682096   1690798   1698334   1703617  
  9750.000000   1706082   1705842   1703643   1700682   1698120  
  9740.000000   1696794   1696809   1697612   1698125   1697185  
  9730.000000   1693979   1688294   1680709   1672303   1664520  
  9720.000000   1658650   1655696   1656049   1659531   1665368  
  9710.000000   1672371   1679154   1684392   1687110   1686837  
  9700.000000   1683740   1678505   1672220   1666009   1660826  
  9690.000000   1657158   1655039   1654104   1653808   1653665  
  9680.000000   1653344   1652788   1652092   1651464   1651071  
  9670.000000   1650984   1651168   1651462   1651686   1651632  
  9660.000000   1651171   1650253   1648961   1647499   1646166  
  9650.000000   1645292   1645154   1645858   1647308   1649156  
  9640.000000   1650912   1652038   1652093   1650866   1648393  
  9630.000000   1645021   1641304   1637980   1635772   1635284  
  9620.000000   1636766   1640059   1644493   1649053   1652547  
  9610.000000   1653949   1652701   1648853   1643125   1636578  
  9600.000000   1630369   1625263   1621504   1618747   1616348  
  9590.000000   1613713   1610617   1607399   1604816   1603825  
  9580.000000   1605130   1608960   1614894   1622017   1629150  
  9570.000000   1635168   1639267   1641068   1640698   1638641  
  9560.000000   1635667   1632569   1630032   1628418   1627683  
  9550.000000   1627380   1626769   1625114   1621914   1617225  
  9540.000000   1611636   1606211   1602068   1600059   1600395  
  9530.000000   1602583   1605565   1608092   1609169   1608354  
  9520.000000   1605871   1602424   1598907   1596049   1594217  
  9510.000000   1593359   1593143   1593134   1592970   1592426  
  9500.000000   1591432   1590016   1588304   1586471   1584757  
  9490.000000   1583378   1582481   1582010   1581718   1581195  
  9480.000000   1580070   1578193   1575804   1573545   1572285  
  9470.000000   1572820   1575495   1580005   1585419   1590469  
  9460.000000   1594033   1595489   1594950   1593113   1590952  
  9450.000000   1589293   1588508   1588443   1588574   1588343  
  9440.000000   1587475   1586154   1584913   1584380   1584890  
  9430.000000   1586345   1588159   1589553   1589824   1588639  
  9420.000000   1586162   1582962   1579803   1577329   1575847  
  9410.000000   1575265   1575201   1575187   1574872   1574125  
  9400.000000   1573036   1571830   1570720   1569842   1569197  
  9390.000000   1568724   1568379   1568193   1568284   1568774  
  9380.000000   1569685   1570872   1572001   1572661   1572497  
  9370.000000   1571388   1569521   1567337   1565374   1564064  
  9360.000000   1563542   1563598   1563713   1563287   1561870  
  9350.000000   1559381   1556149   1552782   1549909   1547935  
  9340.000000   1546882   1546408   1545968   1545046   1543398  
  9330.000000   1541127   1538651   1536481   1535016   1534391  
  9320.000000   1534493   1535018   1535663   1536193   1536552  
  9310.000000   1536775   1536942   1537080   1537149   1537086  
  9300.000000   1536894   1536708   1536807   1537482   1538921  
  9290.000000   1541046   1543529   1545851   1547485   1548056  
  9280.000000   1547472   1545974   1544046   1542269   1541114  
  9270.000000   1540855   1541504   1542909   1544774   1546787  
  9260.000000   1548628   1550042   1550811   1550801   1549949  
  9250.000000   1548302   1546027   1543383   1540677   1538170  
  9240.000000   1536023   1534270   1532812   1531503   1530168  
  9230.000000   1528739   1527240   1525812   1524623   1523816  
  9220.000000   1523458   1523484   1523732   1523915   1523756  
  9210.000000   1523011   1521620   1519665   1517394   1515142  
  9200.000000   1513273   1512093   1511782   1512376   1513794  
  9190.000000   1515874   1518417   1521198   1523971   1526488  
  9180.000000   1528497   1529779   1530172   1529677   1528479  
  9170.000000   1526948   1525540   1524662   1524577   1525295  
  9160.000000   1526567   1527887   1528628   1528226   1526355  
  9150.000000   1523005   1518482   1513400   1508560   1504798  
  9140.000000   1502742   1502730   1504702   1508258   1512690  
  9130.000000   1517183   1520995   1523624   1524894   1524894  
  9120.000000   1523926   1522329   1520422   1518361   1516209  
  9110.000000   1513954   1511667   1509521   1507780   1506730  
  9100.000000   1506543   1507238   1508573   1510164   1511537  
  9090.000000   1512333   1512402   1511861   1511042   1510371  
  9080.000000   1510224   1510769   1511916   1513324   1514556  
  9070.000000   1515166   1514891   1513681   1511750   1509454  
  9060.000000   1507163   1505176   1503623   1502523   1501787  
  9050.000000   1501385   1501383   1501961   1503295   1505465  
  9040.000000   1508333   1511491   1514307   1516072   1516253  
  9030.000000   1514611   1511339   1506977   1502326   1498191  
  9020.000000   1495194   1493646   1493510   1494497   1496131  
  9010.000000   1497939   1499502   1500580   1501077   1501063  
  9000.000000   1500720   1500291   1500031   1500086   1500488  
  8990.000000   1501067   1501544   1501568   1500874   1499383  
  8980.000000   1497263   1494909   1492812   1491452   1491115  
  8970.000000   1491845   1493408   1495414   1497424   1499080  
  8960.000000   1500169   1500632   1500565   1500105   1499418  
  8950.000000   1498605   1497758   1496903   1496055   1495209  
  8940.000000   1494383   1493643   1493091   1492914   1493324  
  8930.000000   1494519   1496575   1499389   1502665   1505902  
  8920.000000   1508537   1510047   1510171   1508926   1506661  
  8910.000000   1503935   1501418   1499704   1499181   1499992  
  8900.000000   1502024   1505014   1508574   1512335   1515945  
  8890.000000   1519160   1521790   1523751   1525029   1525679  
  8880.000000   1525819   1525558   1525018   1524247   1523283  
  8870.000000   1522099   1520677   1519011   1517140   1515171  
  8860.000000   1513247   1511573   1510352   1509795   1510051  
  8850.000000   1511220   1513298   1516181   1519648   1523394  
  8840.000000   1527079   1530361   1532966   1534707   1535565  
  8830.000000   1535611   1535053   1534107   1533037   1532033  
  8820.000000   1531224   1530638   1530236   1529964   1529781  
  8810.000000   1529744   1529973   1530691   1532100   1534351  
  8800.000000   1537408   1541067   1544950   1548608   1551640  
  8790.000000   1553772   1554969   1555353   1555194   1554727  
  8780.000000   1554129   1553434   1552590   1551527   1550235  
  8770.000000   1548860   1547664   1547023   1547263   1548614  
  8760.000000   1551085   1554472   1558371   1562258   1565619  
  8750.000000   1568021   1569253   1569307   1568443   1567068  
  8740.000000   1565694   1564783   1564673   1565493   1567160  
  8730.000000   1569442   1572042   1574715   1577314   1579809  
  8720.000000   1582233   1584608   1586894   1588954   1590622  
  8710.000000   1591749   1592325   1592478   1592497   1592718  
  8700.000000   1593446   1594850   1596925   1599515   1602370  
  8690.000000   1605234   1607901   1610246   1612231   1613883  
  8680.000000   1615286   1616554   1617834   1619271   1620993  
  8670.000000   1623068   1625478   1628111   1630790   1633332  
  8660.000000   1635608   1637593   1639352   1641006   1642658  
  8650.000000   1644346   1646017   1647561   1648872   1649912  
  8640.000000   1650744   1651518   1652401   1653518   1654887  
  8630.000000   1656436   1658040   1659586   1661036   1662421  
  8620.000000   1663827   1665312   1666870   1668400   1669763  
  8610.000000   1670848   1671663   1672361   1673228   1674577  
  8600.000000   1676645   1679474   1682900   1686572   1690071  
  8590.000000   1693026   1695230   1696686   1697593   1698271  
  8580.000000   1699060   1700247   1702005   1704383   1707291  
  8570.000000   1710555   1713933   1717169   1720006   1722251  
  8560.000000   1723795   1724643   1724906   1724773   1724468  
  8550.000000   1724179   1724010   1723976   1724035   1724143  
  8540.000000   1724286   1724535   1725008   1725856   1727165  
  8530.000000   1728933   1731045   1733291   1735433   1737262  
  8520.000000   1738681   1739694   1740422   1741028   1741701  
  8510.000000   1742585   1743772   1745285   1747107   1749180  
  8500.000000   1751426   1753752   1756054   1758234   1760205  
  8490.000000   1761929   1763413   1764730   1765978   1767279  
  8480.000000   1768723   1770352   1772138   1773997   1775808  
  8470.000000   1777432   1778740   1779627   1780041   1779972  
  8460.000000   1779467   1778634   1777655   1776760   1776200  
  8450.000000   1776209   1776953   1778506   1780797   1783648  
  8440.000000   1786787   1789937   1792848   1795364   1797446  
  8430.000000   1799142   1800572   1801836   1802994   1804027  
  8420.000000   1804864   1805422   1805651   1805601   1805397  
  8410.000000   1805265   1805413   1806017   1807102   1808584  
  8400.000000   1810245   1811819   1813040   1813705   1813726  
  8390.000000   1813109   1811954   1810391   1808591   1806726  
  8380.000000   1804988   1803564   1802621   1802301   1802666  
  8370.000000   1803717   1805355   1807444   1809812   1812307  
  8360.000000   1814793   1817142   1819234   1820925   1822087  
  8350.000000   1822612   1822490   1821813   1820804   1819756  
  8340.000000   1818954   1818597   1818719   1819219   1819870  
  8330.000000   1820448   1820786   1820844   1820697   1820484  
  8320.000000   1820328   1820272   1820259   1820165   1819870  
  8310.000000   1819339   1818652   1818010   1817648   1817787  
  8300.000000   1818520   1819803   1821433   1823114   1824533  
  8290.000000   1825424   1825639   1825138   1823997   1822352  
  8280.000000   1820389   1818299   1816273   1814488   1813093  
  8270.000000   1812217   1811936   1812282   1813193   1814549  
  8260.000000   1816139   1817732   1819087   1820014   1820415  
  8250.000000   1820287   1819729   1818883   1817893   1816849  
  8240.000000   1815779   1814654   1813427   1812086   1810669  
  8230.000000   1809297   1808098   1807196   1806615   1806300  
  8220.000000   1806098   1805839   1805385   1804679   1803763  
  8210.000000   1802736   1801702   1800699   1799693   1798584  
  8200.000000   1797274   1795723   1793998   1792267   1790743  
  8190.000000   1789621   1788982   1788788   1788875   1789039  
  8180.000000   1789095   1788938   1788555   1787995   1787311  
  8170.000000   1786515   1785549   1784323   1782756   1780856  
  8160.000000   1778734   1776605   1774711   1773248   1772283  
  8150.000000   1771732   1771363   1770880   1770004   1768564  
  8140.000000   1766548   1764085   1761409   1758781   1756427  
  8130.000000   1754489   1753019   1751979   1751286   1750823  
  8120.000000   1750474   1750131   1749702   1749132   1748408  
  8110.000000   1747572   1746710   1745936   1745356   1745030  
  8100.000000   1744944   1745004   1745058   1744933   1744484  
  8090.000000   1743637   1742400   1740854   1739115   1737297  
  8080.000000   1735480   1733703   1731967   1730271   1728621  
  8070.000000   1727061   1725652   1724475   1723577   1722965  
  8060.000000   1722578   1722286   1721920   1721293   1720261  
  8050.000000   1718743   1716776   1714494   1712128   1709946  
  8040.000000   1708201   1707069   1706607   1706739   1707274  
  8030.000000   1707960   1708541   1708819   1708693   1708156  
  8020.000000   1707292   1706219   1705073   1703958   1702954  
  8010.000000   1702097   1701400   1700852   1700429   1700094  
  8000.000000   1699801   1699510   1699181   1698802   1698379  
  7990.000000   1697940   1697524   1697158   1696850   1696577  
  7980.000000   1696296   1695959   1695536   1695028   1694470  
  7970.000000   1693916   1693412   1692973   1692568   1692124  
  7960.000000   1691553   1690789   1689821   1688711   1687579  
  7950.000000   1686577   1685825   1685383   1685220   1685228  
  7940.000000   1685269   1685216   1685018   1684679   1684272  
  7930.000000   1683857   1683461   1683037   1682495   1681747  
  7920.000000   1680777   1679692   1678715   1678136   1678203  
  7910.000000   1679032   1680541   1682452   1684375   1685904  
  7900.000000   1686747   1686782   1686077   1684831   1683306  
  7890.000000   1681743   1680327   1679181   1678381   1677985  
  7880.000000   1678025   1678497   1679321   1680341   1681326  
  7870.000000   1682042   1682304   1682044   1681335   1680356  
  7860.000000   1679341   1678492   1677933   1677680   1677668  
  7850.000000   1677791   1677945   1678062   1678104   1678062  
  7840.000000   1677928   1677696   1677358   1676917   1676391  
  7830.000000   1675811   1675212   1674613   1674021   1673431  
  7820.000000   1672842   1672269   1671737   1671273   1670879  
  7810.000000   1670524   1670140   1669656   1669024   1668257  
  7800.000000   1667421   1666622   1665955   1665464   1665117  
  7790.000000   1664823   1664467   1663958   1663268   1662426  
  7780.000000   1661505   1660573   1659662   1658763   1657839  
  7770.000000   1656860   1655830   1654795   1653825   1652984  
  7760.000000   1652298   1651753   1651299   1650893   1650512  
  7750.000000   1650173   1649907   1649734   1649633   1649531  
  7740.000000   1649330   1648928   1648276   1647382   1646318  
  7730.000000   1645181   1644066   1643028   1642084   1641226  
  7720.000000   1640443   1639740   1639137   1638657   1638300  
  7710.000000   1638030   1637781   1637476   1637059   1636510  
  7700.000000   1635864   1635181   1634540   1633994   1633570  
  7690.000000   1633252   1633000   1632763   1632497   1632173  
  7680.000000   1631787   1631353   1630912   1630514   1630216  
  7670.000000   1630057   1630046   1630148   1630290   1630375  
  7660.000000   1630321   1630089   1629707   1629259   1628865  
  7650.000000   1628627   1628599   1628757   1629025   1629290  
  7640.000000   1629458   1629475   1629354   1629154   1628969  
  7630.000000   1628885   1628965   1629234   1629683   1630275  
  7620.000000   1630959   1631679   1632382   1633030   1633607  
  7610.000000   1634121   1634603   1635088   1635602   1636130  
  7600.000000   1636630   1637028   1637263   1637301   1637178  
  7590.000000   1636979   1636836   1636871   1637168   1637735  
  7580.000000   1638515   1639406   1640303   1641131   1641874  
  7570.000000   1642560   1643258   1644036   1644953   1646027  
  7560.000000   1647255   1648599   1650018   1651449   1652845  
  7550.000000   1654150   1655338   1656396   1657348   1658242  
  7540.000000   1659145   1660125   1661242   1662532   1664007  
  7530.000000   1665644   1667403   1669218   1671019   1672722  
  7520.000000   1674265   1675596   1676716   1677665   1678542  
  7510.000000   1679465   1680560   1681913   1683570   1685522  
  7500.000000   1687720   1690094   1692582   1695126   1697689  
  7490.000000   1700228   1702704   1705068   1707294   1709368  
  7480.000000   1711335   1713254   1715223   1717310   1719565  
  7470.000000   1721977   1724501   1727063   1729603   1732083  
  7460.000000   1734510   1736920   1739376   1741937   1744652  
  7450.000000   1747545   1750617   1753837   1757157   1760497  
  7440.000000   1763781   1766934   1769922   1772744   1775450  
  7430.000000   1778110   1780801   1783565   1786405   1789278  
  7420.000000   1792123   1794895   1797584   1800238   1802933  
  7410.000000   1805757   1808768   1811974   1815326   1818728  
  7400.000000   1822075   1825260   1828210   1830874   1833240  
  7390.000000   1835328   1837199   1838957   1840742   1842718  
  7380.000000   1845040   1847811   1851042   1854647   1858457  
  7370.000000   1862269   1865890   1869195   1872148   1874805  
  7360.000000   1877283   1879724   1882256   1884968   1887894  
  7350.000000   1891018   1894282   1897603   1900880   1904025  
  7340.000000   1906960   1909652   1912093   1914318   1916382  
  7330.000000   1918352   1920286   1922222   1924171   1926130  
  7320.000000   1928076   1930003   1931905   1933810   1935742  
  7310.000000   1937743   1939827   1941998   1944216   1946424  
  7300.000000   1948541   1950489   1952203   1953647   1954822  
  7290.000000   1955763   1956524   1957165   1957737   1958289  
  7280.000000   1958854   1959480   1960214   1961117   1962228  
  7270.000000   1963559   1965072   1966682   1968277   1969741  
  7260.000000   1971007   1972058   1972952   1973774   1974636  
  7250.000000   1975617   1976776   1978126   1979676   1981423  
  7240.000000   1983381   1985550   1987926   1990454   1993067  
  7230.000000   1995661   1998178   2000582   2002919   2005253  
  7220.000000   2007690   2010285   2013079   2016043   2019157  
  7210.000000   2022383   2025734   2029229   2032917   2036805  
  7200.000000   2040884   2045086   2049353   2053619   2057889  
  7190.000000   2062184   2066583   2071131   2075868   2080758  
  7180.000000   2085759   2090800   2095860   2100934   2106075  
  7170.000000   2111321   2116721   2122261   2127929   2133668  
  7160.000000   2139456   2145262   2151097   2156953   2162845  
  7150.000000   2168761   2174728   2180777   2186998   2193476  
  7140.000000   2200306   2207503   2215027   2222748   2230534  
  7130.000000   2238252   2245867   2253400   2260959   2268634  
  7120.000000   2276506   2284555   2292736   2300954   2309173  
  7110.000000   2317391   2325690   2334147   2342833   2351738  
  7100.000000   2360806   2369927   2379030   2388079   2397125  
  7090.000000   2406234   2415491   2424912   2434467   2444071  
  7080.000000   2453651   2463162   2472640   2482158   2491817  
  7070.000000   2501674   2511735   2521931   2532162   2542321  
  7060.000000   2552339   2562189   2571887   2581464   2590952  
  7050.000000   2600378   2609752   2619087   2628390   2637668  
  7040.000000   2646911   2656105   2665215   2674217   2683093  
  7030.000000   2691862   2700546   2709190   2717811   2726416  
  7020.000000   2734977   2743471   2751864   2760155   2768334  
  7010.000000   2776403   2784329   2792081   2799601   2806873  
  7000.000000   2813904   2820767   2827544   2834329   2841148  
  6990.000000   2847983   2854740   2861324   2867641   2873681  
  6980.000000   2879466   2885088   2890620   2896128   2901617  
  6970.000000   2907077   2912460   2917753   2922926   2927984  
  6960.000000   2932898   2937655   2942206   2946549   2950685  
  6950.000000   2954680   2958597   2962506   2966404   2970248  
  6940.000000   2973924   2977336   2980409   2983166   2985686  
  6930.000000   2988109   2990541   2993053   2995621   2998184  
  6920.000000   3000650   3002977   3005159   3007253   3009317  
  6910.000000   3011403   3013508   3015598   3017616   3019527  
  6900.000000   3021326   3023051   3024747   3026459   3028192  
  6890.000000   3029929   3031631   3033271   3034839   3036354  
  6880.000000   3037845   3039338   3040836   3042328   3043784  
  6870.000000   3045184   3046511   3047772   3048972   3050127  
  6860.000000   3051245   3052339   3053423   3054522   3055654  
  6850.000000   3056828   3058025   3059204   3060302   3061269  
  6840.000000   3062081   3062761   3063366   3063979   3064664  
  6830.000000   3065459   3066350   3067297   3068239   3069125  
  6820.000000   3069914   3070592   3071144   3071573   3071881  
  6810.000000   3072094   3072252   3072425   3072676   3073058  
  6800.000000   3073567   3074153   3074711   3075135   3075336  
  6790.000000   3075291   3075034   3074655   3074253   3073912  
  6780.000000   3073665   3073506   3073389   3073261   3073072  
  6770.000000   3072795   3072410   3071918   3071320   3070637  
  6760.000000   3069891   3069127   3068385   3067703   3067088  
  6750.000000   3066523   3065961   3065352   3064650   3063840  
  6740.000000   3062925   3061931   3060881   3059795   3058670  
  6730.000000   3057504   3056294   3055052   3053795   3052550  
  6720.000000   3051327   3050133   3048955   3047784   3046611  
  6710.000000   3045442   3044281   3043129   3041969   3040776  
  6700.000000   3039515   3038173   3036758   3035310   3033874  
  6690.000000   3032495   3031177   3029899   3028607   3027259  
  6680.000000   3025832   3024350   3022857   3021410   3020033  
  6670.000000   3018712   3017390   3015993   3014459   3012768  
  6660.000000   3010941   3009040   3007128   3005257   3003442  
  6650.000000   3001679   2999942   2998211   2996465   2994698  
  6640.000000   2992893   2991029   2989075   2987009   2984819  
  6630.000000   2982524   2980161   2977780   2975424   2973120  
  6620.000000   2970879   2968703   2966594   2964569   2962641  
  6610.000000   2960820   2959092   2957415   2955727   2953966  
  6600.000000   2952092   2950100   2948021   2945903   2943791  
  6590.000000   2941710   2939657   2937616   2935567   2933507  
  6580.000000   2931449   2929416   2927425   2925479   2923564  
  6570.000000   2921657   2919741   2917816   2915901   2914021  
  6560.000000   2912200   2910440   2908731   2907050   2905384  
  6550.000000   2903732   2902112   2900544   2899042   2897596  
  6540.000000   2896179   2894756   2893305   2891830   2890366  
  6530.000000   2888964   2887674   2886514   2885475   2884506  
  6520.000000   2883547   2882535   2881434   2880234   2878959  
  6510.000000   2877647   2876346   2875102   2873953   2872923  
  6500.000000   2872022   2871231   2870516   2869817   2869072  
  6490.000000   2868221   2867228   2866089   2864833   2863512  
  6480.000000   2862193   2860941   2859810   2858836   2858037  
  6470.000000   2857407   2856920   2856527   2856165   2855770  
  6460.000000   2855287   2854689   2853984   2853206   2852404  
  6450.000000   2851622   2850882   2850183   2849503   2848816  
  6440.000000   2848107   2847378   2846640   2845908   2845184  
  6430.000000   2844456   2843702   2842902   2842050   2841161  
  6420.000000   2840265   2839391   2838557   2837759   2836982  
  6410.000000   2836204   2835421   2834644   2833905   2833238  
  6400.000000   2832663   2832181   2831771   2831399   2831035  
  6390.000000   2830663   2830281   2829894   2829507   2829115  
  6380.000000   2828701   2828251   2827753   2827214   2826653  
  6370.000000   2826095   2825557   2825047   2824558   2824077  
  6360.000000   2823588   2823088   2822568   2822025   2821445  
  6350.000000   2820808   2820090   2819279   2818380   2817418  
  6340.000000   2816430   2815452   2814505   2813592   2812699  
  6330.000000   2811815   2810932   2810065   2809226   2808435  
  6320.000000   2807681   2806940   2806156   2805278   2804261  
  6310.000000   2803095   2801791   2800387   2798920   2797426  
  6300.000000   2795919   2794411   2792899   2791387   2789866  
  6290.000000   2788329   2786745   2785082   2783297   2781367  
  6280.000000   2779288   2777097   2774841   2772588   2770379  
  6270.000000   2768240   2766154   2764097   2762025   2759916  
  6260.000000   2757750   2755530   2753254   2750925   2748532  
  6250.000000   2746069   2743530   2740926   2738274   2735607  
  6240.000000   2732947   2730319   2727729   2725180   2722664  
  6230.000000   2720180   2717713   2715254   2712783   2710281  
  6220.000000   2707732   2705135   2702500   2699853   2697216  
  6210.000000   2694605   2692011   2689411   2686772   2684073  
  6200.000000   2681317   2678535   2675778   2673099   2670527  
  6190.000000   2668061   2665670   2663301   2660908   2658460  
  6180.000000   2655959   2653428   2650902   2648418   2645999  
  6170.000000   2643657   2641393   2639200   2637074   2634999  
  6160.000000   2632962   2630941   2628914   2626861   2624774  
  6150.000000   2622658   2620532   2618419   2616341   2614306  
  6140.000000   2612319   2610366   2608439   2606523   2604615  
  6130.000000   2602707   2600802   2598898   2597002   2595120  
  6120.000000   2593273   2591479   2589759   2588125   2586579  
  6110.000000   2585110   2583703   2582340   2581018   2579739  
  6100.000000   2578515   2577355   2576266   2575238   2574256  
  6090.000000   2573294   2572336   2571364   2570379   2569380  
  6080.000000   2568381   2567389   2566427   2565508   2564657  
  6070.000000   2563889   2563217   2562638   2562144   2561712  
  6060.000000   2561329   2560980   2560676   2560422   2560244  
  6050.000000   2560149   2560147   2560226   2560384   2560606  
  6040.000000   2560901   2561269   2561726   2562270   2562900  
  6030.000000   2563595   2564343   2565130   2565964   2566853  
  6020.000000   2567822   2568877   2570014   2571205   2572411  
  6010.000000   2573589   2574709   2575757   2576744   2577687  
  6000.000000   2578615   2579547   2580502   2581486   2582512  
  5990.000000   2583581   2584703   2585877   2587108   2588387  
  5980.000000   2589717   2591091   2592522   2594017   2595595  
  5970.000000   2597260   2599019   2600863   2602789   2604785  
  5960.000000   2606860   2609008   2611239   2613538   2615890  
  5950.000000   2618260   2620622   2622950   2625248   2627526  
  5940.000000   2629818   2632147   2634533   2636974   2639458  
  5930.000000   2641964   2644477   2646989   2649503   2652023  
  5920.000000   2654549   2657073   2659578   2662044   2664453  
  5910.000000   2666794   2669062   2671258   2673386   2675453  
  5900.000000   2677473   2679473   2681488   2683562   2685733  
  5890.000000   2688024   2690429   2692919   2695448   2697967  
  5880.000000   2700438   2702843   2705182   2707462   2709693  
  5870.000000   2711872   2713998   2716059   2718060   2720011  
  5860.000000   2721936   2723859   2725803   2727780   2729794  
  5850.000000   2731849   2733955   2736128   2738391   2740764  
  5840.000000   2743256   2745859   2748551   2751300   2754077  
  5830.000000   2756860   2759634   2762387   2765102   2767764  
  5820.000000   2770346   2772832   2775209   2777483   2779657  
  5810.000000   2781747   2783750   2785668   2787479   2789188  
  5800.000000   2790780   2792282   2793697   2795051   2796329  
  5790.000000   2797523   2798582   2799475   2800152   2800598  
  5780.000000   2800790   2800735   2800425   2799873   2799084  
  5770.000000   2798089   2796926   2795659   2794352   2793075  
  5760.000000   2791870   2790768   2789774   2788893   2788124  
  5750.000000   2787477   2786961   2786576   2786312   2786138  
  5740.000000   2786024   2785939   2785881   2785855   2785894  
  5730.000000   2786012   2786221   2786493   2786798   2787087  
  5720.000000   2787342   2787557   2787765   2788001   2788306  
  5710.000000   2788698   2789178   2789727   2790326   2790958  
  5700.000000   2791618   2792305   2793021   2793755   2794495  
  5690.000000   2795229   2795950   2796669   2797401   2798164  
  5680.000000   2798956   2799757   2800526   2801219   2801792  
  5670.000000   2802229   2802524   2802698   2802762   2802730  
  5660.000000   2802592   2802345   2801980   2801510   2800951  
  5650.000000   2800341   2799703   2799060   2798413   2797763  
  5640.000000   2797102   2796434   2795765   2795108   2794465  
  5630.000000   2793838   2793217   2792598   2791980   2791378  
  5620.000000   2790808   2790283   2789797   2789322   2788813  
  5610.000000   2788227   2787532   2786731   2785849   2784939  
  5600.000000   2784046   2783205   2782418   2781673   2780937  
  5590.000000   2780186   2779394   2778556   2777661   2776710  
  5580.000000   2775693   2774608   2773453   2772240   2770982  
  5570.000000   2769698   2768395   2767074   2765721   2764328  
  5560.000000   2762890   2761421   2759945   2758494   2757087  
  5550.000000   2755733   2754418   2753124   2751828   2750522  
  5540.000000   2749208   2747900   2746613   2745355   2744124  
  5530.000000   2742911   2741704   2740499   2739296   2738100  
  5520.000000   2736915   2735741   2734573   2733408   2732244  
  5510.000000   2731087   2729940   2728806   2727675   2726530  
  5500.000000   2725348   2724113   2722819   2721483   2720127  
  5490.000000   2718776   2717435   2716096   2714724   2713292  
  5480.000000   2711771   2710165   2708484   2706762   2705019  
  5470.000000   2703273   2701514   2699728   2697891   2695990  
  5460.000000   2694014   2691965   2689838   2687636   2685356  
  5450.000000   2683011   2680621   2678223   2675856   2673551  
  5440.000000   2671322   2669157   2667034   2664922   2662809  
  5430.000000   2660691   2658586   2656503   2654456   2652439  
  5420.000000   2650464   2648536   2646705   2645020   2643553  
  5410.000000   2642337   2641384   2640642   2640059   2639555  
  5400.000000   2639101   2638676   2638317   2638051   2637929  
  5390.000000   2637954   2638145   2638477   2638968   2639611  
  5380.000000   2640452   2641494   2642767   2644239   2645901  
  5370.000000   2647696   2649627   2651665   2653858   2656203  
  5360.000000   2658765   2661533   2664564   2667844   2671449  
  5350.000000   2675388   2679759   2684563   2689871   2695633  
  5340.000000   2701880   2708539   2715662   2723207   2731260  
  5330.000000   2739783   2748844   2758366   2768386   2778824  
  5320.000000   2789758   2801166   2813196   2825861   2839315  
  5310.000000   2853527   2868591   2884418   2901072   2918473  
  5300.000000   2936721   2955788   2975816   2996804   3018885  
  5290.000000   3042013   3066236   3091409   3117473   3144224  
  5280.000000   3171597   3199467   3227891   3256891   3286608  
  5270.000000   3317080   3348325   3380200   3412494   3444937  
  5260.000000   3477298   3509448   3541354   3573089   3604695  
  5250.000000   3636203   3667471   3698345   3728521   3757847  
  5240.000000   3786124   3813417   3839729   3865273   3890086  
  5230.000000   3914322   3937882   3960768   3982758   4003813  
  5220.000000   4023753   4042659   4060500   4077492   4093686  
  5210.000000   4109300   4124301   4138759   4152488   4165447  
  5200.000000   4177433   4188481   4198520   4207713   4216068  
  5190.000000   4223745   4230696   4236996   4242540   4247387  
  5180.000000   4251471   4254910   4257686   4259920   4261565  
  5170.000000   4262682   4263186   4263127   4262454   4261261  
  5160.000000   4259539   4257392   4254791   4251797   4248357  
  5150.000000   4244523   4240266   4235666   4230721   4225499  
  5140.000000   4219973   4214173   4208055   4201653   4194965  
  5130.000000   4188066   4180989   4173811   4166540   4159209  
  5120.000000   4151788   4144287   4136686   4129009   4121259  
  5110.000000   4113466   4105623   4097744   4089813   4081842  
  5100.000000   4073833   4065816   4057806   4049826   4041868  
  5090.000000   4033924   4025963   4017969   4009921   4001826  
  5080.000000   3993685   3985517   3977327   3969129   3960924  
  5070.000000   3952726   3944542   3936389   3928266   3920172  
  5060.000000   3912081   3903971   3895808   3887579   3879281  
  5050.000000   3870935   3862563   3854192   3845836   3837500  
  5040.000000   3829175   3820853   3812530   3804211   3795911  
  5030.000000   3787645   3779435   3771290   3763228   3755254  
  5020.000000   3747391   3739645   3732043   3724587   3717292  
  5010.000000   3710145   3703152   3696294   3689589   3683025  
  5000.000000   3676638   3670424   3664424   3658632   3653092  
  4990.000000   3647797   3642802   3638104   3633757   3629745  
  4980.000000   3626102   3622785   3619811   3617131   3614780  
  4970.000000   3612736   3611061   3609749   3608864   3608376  
  4960.000000   3608318   3608632   3609334   3610367   3611760  
  4950.000000   3613475   3615554   3617966   3620752   3623874  
  4940.000000   3627370   3631204   3635415   3639965   3644887  
  4930.000000   3650129   3655705   3661557   3667701   3674095  
  4920.000000   3680773   3687715   3694956   3702468   3710269  
  4910.000000   3718315   3726614   3735134   3743893   3752878  
  4900.000000   3762107   3771560   3781226   3791057   3801018  
  4890.000000   3811054   3821130   3831208   3841265   3851275  
  4880.000000   3861212   3871056   3880774   3890355   3899776  
  4870.000000   3909037   3918125   3927044   3935772   3944310  
  4860.000000   3952626   3960718   3968557   3976156   3983505  
  4850.000000   3990638   3997565   4004340   4010976   4017524  
  4840.000000   4023978   4030360   4036637   4042804   4048815  
  4830.000000   4054669   4060333   4065819   4071109   4076215  
  4820.000000   4081113   4085810   4090280   4094543   4098595  
  4810.000000   4102478   4106207   4109825   4113334   4116755  
  4800.000000   4120068   4123284   4126385   4129391   4132297  
  4790.000000   4135126   4137868   4140530   4143089   4145548  
  4780.000000   4147891   4150136   4152283   4154359   4156357  
  4770.000000   4158288   4160122   4161852   4163441   4164888  
  4760.000000   4166169   4167294   4168246   4169034   4169632  
  4750.000000   4170042   4170233   4170211   4169955   4169483  
  4740.000000   4168790   4167909   4166842   4165630   4164275  
  4730.000000   4162810   4161225   4159535   4157711   4155755  
  4720.000000   4153640   4151376   4148958   4146418   4143768  
  4710.000000   4141041   4138245   4135395   4132485   4129522  
  4700.000000   4126503   4123442   4120347   4117239   4114126  
  4690.000000   4111022   4107930   4104857   4101810   4098799  
  4680.000000   4095834   4092922   4090062   4087237   4084427  
  4670.000000   4081599   4078736   4075817   4072851   4069849  
  4660.000000   4066850   4063883   4060997   4058221   4055597  
  4650.000000   4053141   4050876   4048799   4046911   4045187  
  4640.000000   4043612   4042158   4040814   4039563   4038407  
  4630.000000   4037341   4036366   4035468   4034636   4033843  
  4620.000000   4033069   4032287   4031484   4030637   4029738  
  4610.000000   4028770   4027727   4026603   4025409   4024166  
  4600.000000   4022907   4021671   4020492   4019394   4018384  
  4590.000000   4017453   4016582   4015748   4014928   4014105  
  4580.000000   4013263   4012389   4011466   4010481   4009421  
  4570.000000   4008285   4007076   4005810   4004498   4003153  
  4560.000000   4001773   4000352   3998875   3997330   3995709  
  4550.000000   3994017   3992261   3990456   3988612   3986737  
  4540.000000   3984839   3982922   3981002   3979093   3977225  
  4530.000000   3975414   3973694   3972068   3970564   3969172  
  4520.000000   3967927   3966820   3965899   3965160   3964665  
  4510.000000   3964413   3964480   3964871   3965683   3966926  
  4500.000000   3968702   3971009   3973934   3977447   3981618  
  4490.000000   3986409   3991897   3998050   4004952   4012566  
  4480.000000   4020955   4030053   4039889   4050376   4061530  
  4470.000000   4073266   4085594   4098433   4111779   4125539  
  4460.000000   4139690   4154136   4168844   4183728   4198749  
  4450.000000   4213831   4228923   4243956   4258881   4273658  
  4440.000000   4288258   4302683   4316922   4330998   4344886  
  4430.000000   4358603   4372094   4385371   4398356   4411066  
  4420.000000   4423411   4435406   4446941   4458018   4468501  
  4410.000000   4478379   4487504   4495862   4503312   4509850  
  4400.000000   4515365   4519883   4523343   4525822   4527324  
  4390.000000   4527975   4527835   4527058   4525732   4524010  
  4380.000000   4521989   4519811   4517574   4515409   4513421  
  4370.000000   4511723   4510412   4509573   4509283   4509586  
  4360.000000   4510532   4512124   4514373   4517238   4520683  
  4350.000000   4524628   4529008   4533743   4538787   4544099  
  4340.000000   4549669   4555471   4561464   4567544   4573544  
  4330.000000   4579229   4584332   4588595   4591829   4593962  
  4320.000000   4595058   4595327   4595049   4594568   4594157  
  4310.000000   4594044   4594304   4594961   4595908   4597060  
  4300.000000   4598278   4599496   4600633   4601668   4602563  
  4290.000000   4603299   4603844   4604178   4604284   4604172  
  4280.000000   4603863   4603413   4602872   4602318   4601794  
  4270.000000   4601367   4601048   4600852   4600730   4600621  
  4260.000000   4600406   4599965   4599159   4597893   4596108  
  4250.000000   4593826   4591124   4588140   4585029   4581954  
  4240.000000   4579033   4576351   4573930   4571759   4569784  
  4230.000000   4567947   4566180   4564421   4562619   4560729  
  4220.000000   4558727   4556595   4554351   4552012   4549641  
  4210.000000   4547286   4545028   4542918   4541027   4539384  
  4200.000000   4538031   4536965   4536200   4535698   4535449  
  4190.000000   4535392   4535510   4535743   4536103   4536557  
  4180.000000   4537159   4537907   4538880   4540087   4541614  
  4170.000000   4543473   4545757   4548486   4551756   4555575  
  4160.000000   4560014   4565037   4570670   4576832   4583526  
  4150.000000   4590663   4598265   4606267   4614720   4623584  
  4140.000000   4632925   4642712   4653010   4663785   4675091  
  4130.000000   4686877   4699176   4711921   4725130   4738740  
  4120.000000   4752776   4767199   4782055   4797324   4813051  
  4110.000000   4829212   4845828   4862850   4880264   4897999  
  4100.000000   4916020   4934248   4952649   4971163   4989772  
  4090.000000   5008452   5027203   5046024   5064922   5083909  
  4080.000000   5102989   5122185   5141490   5160922   5180440  
  4070.000000   5200024   5219581   5239061   5258346   5277405  
  4060.000000   5296145   5314575   5332620   5350301   5367524  
  4050.000000   5384311   5400568   5416347   5431578   5446341  
  4040.000000   5460547   5474241   5487271   5499638   5511166  
  4030.000000   5521875   5531622   5540454   5548249   5555031  
  4020.000000   5560636   5565096   5568346   5570486   5571476  
  4010.000000   5571531   5570783   5569327   5566960   5563807  
  4000.000000   5560257  
##END= 
