##TITLE= Sample 034 By ssteindl date Dienstag, November 20 2018
##JCAMP-DX= 4.24
##DATA TYPE= INFRARED SPECTRUM
##ORIGIN= Exported PE Spectrum Data File
##OWNER= Sandra Steindl
##DATE= 18/11/20
##TIME= 16:44:54.00
##SPECTROMETER/DATA SYSTEM= PERKIN-ELMER Frontier FT-IR/NIR IR
##INSTRUMENT PARAMETERS=
  APODIZATION=stark
  DETECTOR=INGAAS
##RESOLUTION= 16.000000
##DELTAX= -2.000000
##XUNITS= 1/CM
##YUNITS= A
##XFACTOR= 1.00
##YFACTOR= 0.00000011920928955078
##FIRSTX= 10000.00
##LASTX= 4000.00
##NPOINTS= 3001
##FIRSTY= 0.242769
##MAXY= 0.708590
##MINY= 0.194529
##XYDATA= (X++(Y..Y))
 10000.000000   2036490   2027644   2020307   2016789   2017968  
  9990.000000   2023055   2030601   2038840   2045863   2050031  
  9980.000000   2050764   2048407   2043971   2038552   2033255  
  9970.000000   2028786   2025522   2023477   2022484   2022238  
  9960.000000   2022379   2022603   2022659   2022541   2022386  
  9950.000000   2022563   2023442   2025280   2028032   2031262  
  9940.000000   2034260   2036172   2036343   2034470   2030793  
  9930.000000   2025968   2020926   2016544   2013427   2011766  
  9920.000000   2011319   2011597   2012011   2012161   2011897  
  9910.000000   2011430   2011162   2011601   2013063   2015590  
  9900.000000   2018809   2022042   2024482   2025436   2024567  
  9890.000000   2021954   2018070   2013557   2009019   2004799  
  9880.000000   2000923   1997163   1993212   1988895   1984247  
  9870.000000   1979585   1975320   1971915   1969644   1968645  
  9860.000000   1968817   1969933   1971662   1973567   1975230  
  9850.000000   1976140   1975948   1974324   1971256   1966860  
  9840.000000   1961547   1955802   1950169   1945155   1941186  
  9830.000000   1938731   1938223   1940185   1944945   1952598  
  9820.000000   1962653   1974077   1985304   1994603   2000483  
  9810.000000   2002044   1999275   1992909   1984301   1974912  
  9800.000000   1966025   1958431   1952342   1947558   1943579  
  9790.000000   1940006   1936565   1933359   1930645   1928845  
  9780.000000   1928237   1928875   1930462   1932330   1933652  
  9770.000000   1933565   1931583   1927669   1922407   1916766  
  9760.000000   1911887   1908689   1907655   1908679   1911190  
  9750.000000   1914334   1917252   1919304   1920146   1919764  
  9740.000000   1918351   1916255   1913905   1911795   1910441  
  9730.000000   1910268   1911457   1913783   1916578   1918870  
  9720.000000   1919670   1918348   1914864   1909840   1904307  
  9710.000000   1899358   1895719   1893547   1892440   1891681  
  9700.000000   1890607   1888881   1886609   1884211   1882148  
  9690.000000   1880652   1879605   1878623   1877335   1875592  
  9680.000000   1873626   1871901   1870918   1870958   1871960  
  9670.000000   1873579   1875331   1876833   1877937   1878742  
  9660.000000   1879483   1880324   1881227   1881904   1881950  
  9650.000000   1881001   1878949   1875966   1872498   1869068  
  9640.000000   1866141   1863990   1862650   1861997   1861782  
  9630.000000   1861782   1861820   1861852   1861926   1862187  
  9620.000000   1862789   1863843   1865345   1867112   1868811  
  9610.000000   1869980   1870202   1869204   1867001   1863915  
  9600.000000   1860468   1857267   1854761   1853192   1852513  
  9590.000000   1852531   1852981   1853656   1854390   1855025  
  9580.000000   1855340   1855021   1853740   1851250   1847544  
  9570.000000   1842907   1837905   1833240   1829549   1827236  
  9560.000000   1826367   1826713   1827862   1829362   1830826  
  9550.000000   1831941   1832488   1832265   1831163   1829150  
  9540.000000   1826393   1823227   1820156   1817708   1816318  
  9530.000000   1816213   1817358   1819536   1822385   1825550  
  9520.000000   1828650   1831360   1833331   1834278   1834017  
  9510.000000   1832549   1830136   1827192   1824236   1821634  
  9500.000000   1819521   1817689   1815699   1813079   1809529  
  9490.000000   1805174   1800511   1796371   1793552   1792651  
  9480.000000   1793788   1796659   1800586   1804729   1808270  
  9470.000000   1810536   1811137   1809924   1807052   1802856  
  9460.000000   1797849   1792574   1787555   1783167   1779609  
  9450.000000   1776887   1774898   1773519   1772695   1772464  
  9440.000000   1772866   1773845   1775151   1776366   1777045  
  9430.000000   1776905   1775984   1774662   1773542   1773249  
  9420.000000   1774184   1776375   1779437   1782709   1785459  
  9410.000000   1787109   1787358   1786179   1783740   1780273  
  9400.000000   1776039   1771297   1766385   1761697   1757669  
  9390.000000   1754636   1752712   1751765   1751415   1751271  
  9380.000000   1750994   1750550   1750111   1750087   1750845  
  9370.000000   1752577   1755135   1758047   1760675   1762358  
  9360.000000   1762629   1761201   1758061   1753327   1747309  
  9350.000000   1740391   1733086   1725958   1719581   1714451  
  9340.000000   1710848   1708818   1708164   1708601   1709870  
  9330.000000   1711843   1714497   1717784   1721527   1725304  
  9320.000000   1728557   1730667   1731267   1730360   1728471  
  9310.000000   1726435   1725152   1725245   1726844   1729583  
  9300.000000   1732714   1735418   1737043   1737325   1736380  
  9290.000000   1734602   1732443   1730273   1728278   1726493  
  9280.000000   1724861   1723332   1721914   1720679   1719716  
  9270.000000   1719092   1718809   1718817   1719006   1719231  
  9260.000000   1719324   1719129   1718543   1717539   1716197  
  9250.000000   1714711   1713365   1712482   1712313   1712961  
  9240.000000   1714316   1716092   1717874   1719235   1719809  
  9230.000000   1719391   1717964   1715691   1712860   1709809  
  9220.000000   1706871   1704297   1702223   1700623   1699328  
  9210.000000   1698097   1696696   1694997   1693020   1690957  
  9200.000000   1689109   1687782   1687164   1687242   1687817  
  9190.000000   1688562   1689162   1689402   1689274   1688917  
  9180.000000   1688579   1688460   1688637   1689013   1689355  
  9170.000000   1689422   1689044   1688230   1687139   1686090  
  9160.000000   1685444   1685489   1686310   1687737   1689389  
  9150.000000   1690728   1691208   1690380   1688058   1684380  
  9140.000000   1679809   1675026   1670763   1667678   1666180  
  9130.000000   1666377   1668020   1670638   1673644   1676482  
  9120.000000   1678695   1679979   1680239   1679529   1678060  
  9110.000000   1676063   1673811   1671516   1669365   1667462  
  9100.000000   1665855   1664606   1663797   1663603   1664171  
  9090.000000   1665629   1667931   1670861   1673990   1676773  
  9080.000000   1678673   1679305   1678573   1676631   1673867  
  9070.000000   1670724   1667637   1664882   1662585   1660730  
  9060.000000   1659241   1658048   1657090   1656360   1655850  
  9050.000000   1655602   1655652   1656072   1656920   1658234  
  9040.000000   1659979   1661997   1664030   1665728   1666796  
  9030.000000   1667038   1666477   1665285   1663759   1662173  
  9020.000000   1660712   1659415   1658215   1657060   1655968  
  9010.000000   1655117   1654728   1655055   1656193   1658070  
  9000.000000   1660355   1662615   1664411   1665426   1665518  
  8990.000000   1664701   1663133   1660988   1658439   1655597  
  8980.000000   1652572   1649463   1646397   1643505   1640921  
  8970.000000   1638766   1637121   1636064   1635615   1635800  
  8960.000000   1636561   1637795   1639311   1640888   1642353  
  8950.000000   1643594   1644640   1645549   1646405   1647136  
  8940.000000   1647541   1647276   1646051   1643742   1640554  
  8930.000000   1637031   1633936   1632044   1631827   1633357  
  8920.000000   1636231   1639771   1643215   1645989   1647841  
  8910.000000   1648833   1649225   1649267   1649100   1648674  
  8900.000000   1647869   1646570   1644839   1642896   1641087  
  8890.000000   1639749   1639080   1639111   1639682   1640579  
  8880.000000   1641588   1642611   1643650   1644757   1645953  
  8870.000000   1647171   1648274   1649083   1649488   1649458  
  8860.000000   1649120   1648657   1648280   1648107   1648157  
  8850.000000   1648351   1648556   1648693   1648750   1648844  
  8840.000000   1649151   1649875   1651144   1652974   1655223  
  8830.000000   1657614   1659807   1661456   1662327   1662302  
  8820.000000   1661450   1659962   1658130   1656252   1654570  
  8810.000000   1653244   1652353   1651940   1652031   1652670  
  8800.000000   1653876   1655635   1657832   1660246   1662571  
  8790.000000   1664468   1665704   1666176   1666008   1665454  
  8780.000000   1664875   1664583   1664783   1665519   1666694  
  8770.000000   1668156   1669771   1671497   1673369   1675466  
  8760.000000   1677818   1680368   1682924   1685212   1686943  
  8750.000000   1687911   1688088   1687625   1686845   1686113  
  8740.000000   1685760   1685955   1686684   1687754   1688866  
  8730.000000   1689743   1690211   1690305   1690236   1690373  
  8720.000000   1691092   1692683   1695225   1698560   1702319  
  8710.000000   1705991   1709079   1711181   1712123   1711944  
  8700.000000   1710921   1709429   1707898   1706674   1706005  
  8690.000000   1705980   1706575   1707681   1709176   1710965  
  8680.000000   1712980   1715207   1717640   1720289   1723135  
  8670.000000   1726141   1729254   1732401   1735520   1738523  
  8660.000000   1741324   1743800   1745832   1747306   1748172  
  8650.000000   1748477   1748380   1748146   1748063   1748392  
  8640.000000   1749265   1750673   1752438   1754293   1755949  
  8630.000000   1757198   1757965   1758313   1758420   1758491  
  8620.000000   1758723   1759230   1760047   1761130   1762399  
  8610.000000   1763780   1765231   1766774   1768475   1770436  
  8600.000000   1772740   1775409   1778369   1781429   1784318  
  8590.000000   1786718   1788377   1789176   1789195   1788696  
  8580.000000   1788053   1787663   1787821   1788664   1790132  
  8570.000000   1792043   1794161   1796289   1798292   1800101  
  8560.000000   1801670   1802927   1803775   1804120   1803959  
  8550.000000   1803401   1802705   1802215   1802280   1803141  
  8540.000000   1804844   1807250   1810081   1813037   1815875  
  8530.000000   1818465   1820782   1822842   1824650   1826156  
  8520.000000   1827306   1828049   1828437   1828601   1828768  
  8510.000000   1829164   1829929   1831085   1832520   1834081  
  8500.000000   1835622   1837111   1838616   1840291   1842255  
  8490.000000   1844534   1847001   1849413   1851480   1852968  
  8480.000000   1853782   1853984   1853786   1853443   1853194  
  8470.000000   1853166   1853376   1853740   1854141   1854492  
  8460.000000   1854772   1855058   1855484   1856223   1857394  
  8450.000000   1859064   1861195   1863665   1866285   1868844  
  8440.000000   1871161   1873099   1874590   1875608   1876181  
  8430.000000   1876356   1876205   1875817   1875318   1874850  
  8420.000000   1874563   1874571   1874914   1875558   1876375  
  8410.000000   1877222   1877969   1878591   1879151   1879808  
  8400.000000   1880718   1881983   1883583   1885366   1887099  
  8390.000000   1888530   1889498   1889939   1889908   1889513  
  8380.000000   1888879   1888104   1887257   1886415   1885700  
  8370.000000   1885298   1885409   1886200   1887697   1889774  
  8360.000000   1892124   1894380   1896194   1897383   1897963  
  8350.000000   1898130   1898162   1898303   1898664   1899183  
  8340.000000   1899657   1899837   1899536   1898708   1897442  
  8330.000000   1895935   1894402   1893023   1891873   1890948  
  8320.000000   1890181   1889506   1888871   1888269   1887702  
  8310.000000   1887190   1886726   1886307   1885918   1885571  
  8300.000000   1885308   1885171   1885195   1885335   1885486  
  8290.000000   1885471   1885106   1884249   1882858   1881035  
  8280.000000   1879024   1877164   1875788   1875141   1875302  
  8270.000000   1876163   1877455   1878804   1879834   1880248  
  8260.000000   1879911   1878854   1877253   1875364   1873456  
  8250.000000   1871755   1870412   1869504   1869047   1869018  
  8240.000000   1869356   1869982   1870759   1871531   1872094  
  8230.000000   1872280   1871970   1871163   1869970   1868601  
  8220.000000   1867284   1866208   1865444   1864931   1864487  
  8210.000000   1863874   1862873   1861357   1859318   1856855  
  8200.000000   1854124   1851295   1848496   1845827   1843352  
  8190.000000   1841153   1839316   1837950   1837121   1836834  
  8180.000000   1836976   1837342   1837663   1837675   1837202  
  8170.000000   1836169   1834633   1832711   1830551   1828260  
  8160.000000   1825903   1823515   1821137   1818854   1816796  
  8150.000000   1815116   1813923   1813238   1812942   1812814  
  8140.000000   1812580   1812010   1810988   1809548   1807855  
  8130.000000   1806135   1804603   1803384   1802501   1801876  
  8120.000000   1801387   1800909   1800355   1799687   1798894  
  8110.000000   1797985   1796959   1795817   1794566   1793229  
  8100.000000   1791856   1790497   1789198   1787968   1786784  
  8090.000000   1785595   1784353   1783043   1781689   1780367  
  8080.000000   1779162   1778167   1777433   1776975   1776763  
  8070.000000   1776734   1776803   1776862   1776795   1776465  
  8060.000000   1775748   1774538   1772803   1770589   1768050  
  8050.000000   1765413   1762942   1760878   1759376   1758492  
  8040.000000   1758160   1758240   1758541   1758882   1759114  
  8030.000000   1759139   1758907   1758404   1757652   1756683  
  8020.000000   1755569   1754385   1753235   1752203   1751358  
  8010.000000   1750715   1750236   1749839   1749411   1748863  
  8000.000000   1748144   1747286   1746382   1745580   1745021  
  7990.000000   1744800   1744916   1745265   1745649   1745831  
  7980.000000   1745600   1744824   1743501   1741734   1739724  
  7970.000000   1737675   1735763   1734070   1732607   1731326  
  7960.000000   1730174   1729140   1728261   1727630   1727341  
  7950.000000   1727466   1728006   1728892   1729999   1731167  
  7940.000000   1732251   1733115   1733679   1733879   1733700  
  7930.000000   1733149   1732292   1731236   1730140   1729181  
  7920.000000   1728511   1728230   1728332   1728730   1729258  
  7910.000000   1729749   1730063   1730144   1730013   1729743  
  7900.000000   1729424   1729103   1728779   1728392   1727866  
  7890.000000   1727135   1726198   1725117   1724022   1723072  
  7880.000000   1722418   1722159   1722319   1722841   1723599  
  7870.000000   1724436   1725195   1725765   1726095   1726223  
  7860.000000   1726245   1726299   1726509   1726942   1727578  
  7850.000000   1728297   1728911   1729208   1729019   1728265  
  7840.000000   1726985   1725325   1723492   1721710   1720145  
  7830.000000   1718898   1717976   1717338   1716907   1716623  
  7820.000000   1716443   1716352   1716335   1716368   1716404  
  7810.000000   1716374   1716210   1715851   1715285   1714530  
  7800.000000   1713647   1712712   1711801   1710976   1710270  
  7790.000000   1709699   1709252   1708913   1708651   1708439  
  7780.000000   1708239   1708025   1707776   1707482   1707141  
  7770.000000   1706753   1706306   1705767   1705085   1704202  
  7760.000000   1703077   1701712   1700171   1698580   1697098  
  7750.000000   1695882   1695041   1694606   1694518   1694653  
  7740.000000   1694855   1694986   1694956   1694742   1694376  
  7730.000000   1693919   1693440   1692982   1692565   1692176  
  7720.000000   1691788   1691363   1690870   1690277   1689571  
  7710.000000   1688749   1687829   1686851   1685875   1684969  
  7700.000000   1684201   1683611   1683213   1682979   1682863  
  7690.000000   1682804   1682759   1682708   1682664   1682655  
  7680.000000   1682717   1682870   1683109   1683401   1683695  
  7670.000000   1683935   1684080   1684105   1684017   1683838  
  7660.000000   1683606   1683347   1683075   1682774   1682418  
  7650.000000   1681969   1681412   1680756   1680056   1679397  
  7640.000000   1678880   1678595   1678593   1678876   1679388  
  7630.000000   1680039   1680727   1681364   1681900   1682318  
  7620.000000   1682632   1682864   1683040   1683168   1683257  
  7610.000000   1683305   1683324   1683329   1683354   1683430  
  7600.000000   1683592   1683862   1684253   1684758   1685353  
  7590.000000   1686003   1686660   1687281   1687845   1688360  
  7580.000000   1688879   1689478   1690247   1691249   1692494  
  7570.000000   1693913   1695379   1696726   1697813   1698564  
  7560.000000   1698999   1699223   1699398   1699683   1700191  
  7550.000000   1700953   1701922   1702986   1704031   1704956  
  7540.000000   1705724   1706341   1706866   1707369   1707930  
  7530.000000   1708615   1709483   1710568   1711897   1713474  
  7520.000000   1715291   1717310   1719482   1721737   1724004  
  7510.000000   1726205   1728286   1730193   1731905   1733410  
  7500.000000   1734739   1735937   1737086   1738267   1739567  
  7490.000000   1741040   1742711   1744568   1746569   1748661  
  7480.000000   1750796   1752940   1755086   1757238   1759412  
  7470.000000   1761616   1763863   1766146   1768465   1770800  
  7460.000000   1773142   1775461   1777733   1779934   1782059  
  7450.000000   1784127   1786190   1788321   1790606   1793109  
  7440.000000   1795861   1798836   1801967   1805155   1808305  
  7430.000000   1811337   1814216   1816943   1819559   1822114  
  7420.000000   1824665   1827253   1829901   1832607   1835354  
  7410.000000   1838106   1840822   1843465   1846009   1848454  
  7400.000000   1850826   1853178   1855572   1858065   1860692  
  7390.000000   1863456   1866323   1869239   1872139   1874971  
  7380.000000   1877698   1880308   1882808   1885217   1887555  
  7370.000000   1889845   1892108   1894367   1896645   1898962  
  7360.000000   1901331   1903754   1906221   1908711   1911201  
  7350.000000   1913667   1916093   1918467   1920786   1923051  
  7340.000000   1925268   1927454   1929636   1931855   1934155  
  7330.000000   1936581   1939157   1941883   1944716   1947593  
  7320.000000   1950427   1953146   1955691   1958042   1960205  
  7310.000000   1962218   1964121   1965956   1967740   1969477  
  7300.000000   1971150   1972747   1974257   1975688   1977056  
  7290.000000   1978388   1979699   1980996   1982266   1983489  
  7280.000000   1984641   1985711   1986705   1987649   1988578  
  7270.000000   1989534   1990548   1991640   1992815   1994071  
  7260.000000   1995405   1996809   1998287   1999828   2001430  
  7250.000000   2003060   2004700   2006305   2007861   2009353  
  7240.000000   2010810   2012268   2013803   2015478   2017373  
  7230.000000   2019530   2021986   2024724   2027727   2030935  
  7220.000000   2034303   2037766   2041295   2044856   2048455  
  7210.000000   2052085   2055769   2059508   2063322   2067213  
  7200.000000   2071209   2075328   2079613   2084084   2088759  
  7190.000000   2093599   2098549   2103500   2108358   2113030  
  7180.000000   2117498   2121779   2125970   2130176   2134524  
  7170.000000   2139094   2143946   2149073   2154460   2160045  
  7160.000000   2165785   2171612   2177487   2183366   2189250  
  7150.000000   2195149   2201133   2207272   2213667   2220361  
  7140.000000   2227371   2234617   2241997   2249376   2256679  
  7130.000000   2263876   2271032   2278238   2285615   2293221  
  7120.000000   2301072   2309096   2317206   2325295   2333316  
  7110.000000   2341251   2349148   2357050   2365019   2373071  
  7100.000000   2381229   2389489   2397868   2406371   2415016  
  7090.000000   2423796   2432694   2441671   2450703   2459773  
  7080.000000   2468903   2478114   2487433   2496839   2506281  
  7070.000000   2515668   2524925   2534016   2542981   2551912  
  7060.000000   2560929   2570116   2579488   2588972   2598434  
  7050.000000   2607731   2616758   2625492   2633984   2642338  
  7040.000000   2650653   2659008   2667428   2675914   2684449  
  7030.000000   2693030   2701653   2710312   2718961   2727530  
  7020.000000   2735916   2744040   2751857   2759404   2766764  
  7010.000000   2774061   2781389   2788798   2796263   2803727  
  7000.000000   2811100   2818334   2825394   2832303   2839072  
  6990.000000   2845730   2852263   2858670   2864929   2871056  
  6980.000000   2877061   2882980   2888803   2894517   2900053  
  6970.000000   2905360   2910385   2915142   2919668   2924054  
  6960.000000   2928367   2932664   2936935   2941155   2945262  
  6950.000000   2949232   2953047   2956740   2960339   2963888  
  6940.000000   2967390   2970847   2974229   2977528   2980727  
  6930.000000   2983837   2986861   2989811   2992679   2995461  
  6920.000000   2998143   3000727   3003212   3005613   3007933  
  6910.000000   3010181   3012352   3014452   3016487   3018484  
  6900.000000   3020467   3022468   3024494   3026544   3028592  
  6890.000000   3030615   3032586   3034497   3036345   3038135  
  6880.000000   3039864   3041527   3043113   3044623   3046063  
  6870.000000   3047457   3048828   3050195   3051557   3052904  
  6860.000000   3054219   3055500   3056760   3058034   3059346  
  6850.000000   3060712   3062107   3063485   3064784   3065969  
  6840.000000   3067040   3068044   3069051   3070127   3071293  
  6830.000000   3072523   3073738   3074846   3075769   3076480  
  6820.000000   3076992   3077367   3077670   3077962   3078267  
  6810.000000   3078599   3078940   3079283   3079609   3079907  
  6800.000000   3080152   3080323   3080392   3080354   3080215  
  6790.000000   3080008   3079763   3079503   3079222   3078892  
  6780.000000   3078474   3077953   3077350   3076737   3076207  
  6770.000000   3075846   3075690   3075713   3075823   3075902  
  6760.000000   3075839   3075571   3075091   3074449   3073716  
  6750.000000   3072966   3072252   3071607   3071042   3070559  
  6740.000000   3070149   3069794   3069450   3069058   3068550  
  6730.000000   3067872   3067004   3065980   3064876   3063794  
  6720.000000   3062825   3062026   3061399   3060902   3060461  
  6710.000000   3060005   3059470   3058826   3058057   3057173  
  6700.000000   3056184   3055114   3053991   3052851   3051728  
  6690.000000   3050649   3049621   3048632   3047645   3046624  
  6680.000000   3045529   3044347   3043075   3041738   3040354  
  6670.000000   3038947   3037530   3036113   3034702   3033303  
  6660.000000   3031916   3030535   3029136   3027691   3026163  
  6650.000000   3024533   3022798   3020982   3019118   3017246  
  6640.000000   3015389   3013552   3011727   3009901   3008070  
  6630.000000   3006244   3004438   3002671   3000944   2999245  
  6620.000000   2997546   2995822   2994058   2992260   2990445  
  6610.000000   2988641   2986864   2985115   2983382   2981650  
  6600.000000   2979903   2978137   2976352   2974547   2972708  
  6590.000000   2970815   2968846   2966791   2964661   2962497  
  6580.000000   2960352   2958282   2956323   2954483   2952746  
  6570.000000   2951077   2949445   2947827   2946215   2944608  
  6560.000000   2943009   2941414   2939822   2938232   2936658  
  6550.000000   2935122   2933651   2932260   2930944   2929670  
  6540.000000   2928387   2927038   2925582   2924007   2922336  
  6530.000000   2920616   2918908   2917272   2915760   2914402  
  6520.000000   2913211   2912175   2911259   2910410   2909561  
  6510.000000   2908646   2907621   2906471   2905227   2903945  
  6500.000000   2902701   2901555   2900537   2899640   2898824  
  6490.000000   2898034   2897223   2896361   2895441   2894470  
  6480.000000   2893456   2892404   2891317   2890194   2889047  
  6470.000000   2887895   2886764   2885678   2884645   2883661  
  6460.000000   2882707   2881767   2880832   2879907   2879008  
  6450.000000   2878149   2877336   2876557   2875789   2875005  
  6440.000000   2874192   2873348   2872493   2871649   2870844  
  6430.000000   2870090   2869393   2868745   2868137   2867556  
  6420.000000   2866994   2866438   2865881   2865314   2864741  
  6410.000000   2864173   2863637   2863157   2862755   2862432  
  6400.000000   2862169   2861929   2861678   2861395   2861083  
  6390.000000   2860767   2860482   2860255   2860092   2859971  
  6380.000000   2859855   2859707   2859502   2859240   2858941  
  6370.000000   2858634   2858344   2858082   2857844   2857621  
  6360.000000   2857401   2857179   2856949   2856710   2856450  
  6350.000000   2856159   2855819   2855427   2854983   2854501  
  6340.000000   2853989   2853449   2852862   2852204   2851446  
  6330.000000   2850579   2849615   2848596   2847567   2846579  
  6320.000000   2845647   2844772   2843920   2843060   2842158  
  6310.000000   2841207   2840206   2839172   2838111   2837028  
  6300.000000   2835911   2834753   2833543   2832283   2830970  
  6290.000000   2829607   2828183   2826694   2825128   2823494  
  6280.000000   2821803   2820088   2818372   2816668   2814965  
  6270.000000   2813236   2811443   2809561   2807581   2805524  
  6260.000000   2803419   2801303   2799198   2797115   2795046  
  6250.000000   2792991   2790948   2788935   2786962   2785043  
  6240.000000   2783166   2781314   2779455   2777567   2775638  
  6230.000000   2773670   2771670   2769639   2767568   2765440  
  6220.000000   2763237   2760961   2758638   2756317   2754053  
  6210.000000   2751889   2749838   2747881   2745977   2744084  
  6200.000000   2742175   2740250   2738329   2736437   2734586  
  6190.000000   2732765   2730949   2729102   2727207   2725262  
  6180.000000   2723291   2721327   2719401   2717533   2715727  
  6170.000000   2713980   2712288   2710651   2709071   2707540  
  6160.000000   2706043   2704544   2703006   2701393   2699693  
  6150.000000   2697918   2696106   2694303   2692551   2690872  
  6140.000000   2689271   2687733   2686242   2684784   2683354  
  6130.000000   2681949   2680566   2679194   2677818   2676419  
  6120.000000   2674989   2673529   2672060   2670609   2669213  
  6110.000000   2667895   2666678   2665566   2664559   2663641  
  6100.000000   2662799   2662007   2661249   2660507   2659780  
  6090.000000   2659070   2658396   2657767   2657197   2656674  
  6080.000000   2656185   2655702   2655215   2654720   2654248  
  6070.000000   2653830   2653514   2653320   2653260   2653307  
  6060.000000   2653436   2653610   2653815   2654043   2654312  
  6050.000000   2654628   2655008   2655446   2655948   2656507  
  6040.000000   2657140   2657852   2658666   2659580   2660591  
  6030.000000   2661667   2662785   2663917   2665062   2666228  
  6020.000000   2667438   2668708   2670046   2671434   2672850  
  6010.000000   2674257   2675636   2676973   2678273   2679537  
  6000.000000   2680772   2681973   2683146   2684293   2685440  
  5990.000000   2686617   2687868   2689224   2690707   2692315  
  5980.000000   2694040   2695867   2697795   2699828   2701988  
  5970.000000   2704279   2706704   2709232   2711834   2714461  
  5960.000000   2717099   2719730   2722379   2725060   2727804  
  5950.000000   2730613   2733492   2736425   2739411   2742444  
  5940.000000   2745540   2748709   2751962   2755295   2758697  
  5930.000000   2762144   2765616   2769094   2772568   2776029  
  5920.000000   2779465   2782856   2786175   2789396   2792496  
  5910.000000   2795465   2798303   2801023   2803640   2806176  
  5900.000000   2808659   2811127   2813620   2816188   2818862  
  5890.000000   2821660   2824564   2827533   2830504   2833419  
  5880.000000   2836236   2838941   2841542   2844065   2846535  
  5870.000000   2848965   2851358   2853711   2856026   2858309  
  5860.000000   2860584   2862868   2865180   2867522   2869889  
  5850.000000   2872271   2874666   2877082   2879536   2882047  
  5840.000000   2884627   2887274   2889977   2892717   2895477  
  5830.000000   2898248   2901022   2903788   2906529   2909216  
  5820.000000   2911819   2914317   2916710   2919023   2921293  
  5810.000000   2923563   2925852   2928164   2930464   2932729  
  5800.000000   2934919   2937044   2939102   2941138   2943152  
  5790.000000   2945152   2947083   2948894   2950487   2951792  
  5780.000000   2952729   2953257   2953336   2952966   2952154  
  5770.000000   2950959   2949452   2947757   2945993   2944294  
  5760.000000   2942747   2941415   2940294   2939359   2938551  
  5750.000000   2937826   2937142   2936483   2935845   2935236  
  5740.000000   2934670   2934160   2933728   2933384   2933145  
  5730.000000   2933001   2932940   2932921   2932906   2932855  
  5720.000000   2932755   2932609   2932452   2932323   2932263  
  5710.000000   2932295   2932427   2932649   2932949   2933311  
  5700.000000   2933726   2934187   2934682   2935199   2935714  
  5690.000000   2936217   2936695   2937156   2937606   2938057  
  5680.000000   2938502   2938927   2939293   2939563   2939695  
  5670.000000   2939664   2939445   2939031   2938408   2937574  
  5660.000000   2936529   2935297   2933917   2932457   2930983  
  5650.000000   2929564   2928229   2926989   2925815   2924675  
  5640.000000   2923534   2922378   2921211   2920050   2918909  
  5630.000000   2917794   2916705   2915633   2914581   2913556  
  5620.000000   2912582   2911672   2910835   2910052   2909293  
  5610.000000   2908515   2907688   2906798   2905855   2904887  
  5600.000000   2903926   2902998   2902116   2901281   2900482  
  5590.000000   2899708   2898940   2898160   2897341   2896459  
  5580.000000   2895486   2894416   2893254   2892030   2890780  
  5570.000000   2889541   2888329   2887140   2885947   2884719  
  5560.000000   2883429   2882070   2880651   2879195   2877722  
  5550.000000   2876248   2874774   2873301   2871825   2870353  
  5540.000000   2868896   2867465   2866065   2864691   2863332  
  5530.000000   2861983   2860645   2859333   2858069   2856869  
  5520.000000   2855732   2854641   2853561   2852455   2851297  
  5510.000000   2850081   2848817   2847525   2846223   2844920  
  5500.000000   2843613   2842297   2840970   2839642   2838321  
  5490.000000   2837023   2835742   2834467   2833167   2831821  
  5480.000000   2830412   2828943   2827425   2825873   2824287  
  5470.000000   2822657   2820957   2819170   2817285   2815318  
  5460.000000   2813294   2811245   2809186   2807119   2805027  
  5450.000000   2802895   2800717   2798508   2796295   2794113  
  5440.000000   2791986   2789918   2787905   2785934   2784008  
  5430.000000   2782133   2780330   2778604   2776954   2775348  
  5420.000000   2773768   2772193   2770649   2769180   2767870  
  5410.000000   2766774   2765934   2765324   2764900   2764583  
  5400.000000   2764331   2764107   2763937   2763840   2763869  
  5390.000000   2764034   2764356   2764812   2765414   2766153  
  5380.000000   2767069   2768172   2769499   2771027   2772758  
  5370.000000   2774632   2776647   2778762   2781012   2783389  
  5360.000000   2785959   2788721   2791746   2795032   2798665  
  5350.000000   2802654   2807094   2811979   2817379   2823240  
  5340.000000   2829595   2836373   2843624   2851301   2859484  
  5330.000000   2868131   2877313   2886961   2897131   2907756  
  5320.000000   2918935   2930652   2943063   2956174   2970137  
  5310.000000   2984916   3000606   3017116   3034512   3052706  
  5300.000000   3071789   3091712   3112607   3134452   3157381  
  5290.000000   3181349   3206422   3232474   3259464   3287200  
  5280.000000   3315621   3344602   3374195   3404413   3435398  
  5270.000000   3467174   3499759   3532996   3566670   3600509  
  5260.000000   3634290   3667903   3701344   3734713   3768073  
  5250.000000   3801459   3834715   3867654   3899936   3931370  
  5240.000000   3961738   3991097   4019460   4047057   4073949  
  5230.000000   4100305   4126043   4151170   4175467   4198890  
  5220.000000   4221255   4242628   4262962   4282453   4301124  
  5210.000000   4319167   4336524   4353250   4369149   4384188  
  5200.000000   4398171   4411158   4423092   4434160   4444376  
  5190.000000   4453910   4462707   4470835   4478168   4484757  
  5180.000000   4490518   4495565   4499871   4503560   4506576  
  5170.000000   4508985   4510694   4511762   4512138   4511935  
  5160.000000   4511152   4509908   4508175   4506017   4503362  
  5150.000000   4500252   4496638   4492595   4488112   4483269  
  5140.000000   4478045   4472489   4466563   4460315   4453742  
  5130.000000   4446925   4439893   4432728   4425440   4418070  
  5120.000000   4410595   4403037   4395378   4387655   4379867  
  5110.000000   4372045   4364179   4356275   4348312   4340300  
  5100.000000   4332236   4324151   4316061   4307990   4299933  
  5090.000000   4291887   4283829   4275755   4267660   4259564  
  5080.000000   4251478   4243422   4235386   4227362   4219319  
  5070.000000   4211239   4203108   4194937   4186735   4178529  
  5060.000000   4170326   4162134   4153935   4145721   4137471  
  5050.000000   4129180   4120842   4112458   4104025   4095541  
  5040.000000   4087000   4078401   4069748   4061056   4052351  
  5030.000000   4043663   4035028   4026475   4018039   4009737  
  5020.000000   4001589   3993596   3985762   3978068   3970510  
  5010.000000   3963063   3955739   3948530   3941478   3934595  
  5000.000000   3927933   3921496   3915313   3909359   3903646  
  4990.000000   3898137   3892858   3887793   3882992   3878454  
  4980.000000   3874230   3870303   3866705   3863397   3860409  
  4970.000000   3857704   3855327   3853257   3851553   3850195  
  4960.000000   3849239   3848660   3848508   3848751   3849439  
  4950.000000   3850532   3852067   3853993   3856336   3859037  
  4940.000000   3862132   3865577   3869424   3873643   3878285  
  4930.000000   3883310   3888747   3894539   3900709   3907205  
  4920.000000   3914059   3921236   3928770   3936621   3944807  
  4910.000000   3953277   3962034   3971031   3980277   3989736  
  4900.000000   3999418   4009292   4019356   4029580   4039950  
  4890.000000   4050443   4061042   4071721   4082445   4093172  
  4880.000000   4103838   4114391   4124760   4134905   4144772  
  4870.000000   4154343   4163572   4172452   4180933   4189017  
  4860.000000   4196664   4203900   4210712   4217151   4223222  
  4850.000000   4228985   4234446   4239663   4244638   4249429  
  4840.000000   4254038   4258513   4262845   4267061   4271133  
  4830.000000   4275074   4278857   4282497   4285989   4289359  
  4820.000000   4292614   4295780   4298859   4301871   4304815  
  4810.000000   4307714   4310574   4313421   4316260   4319106  
  4800.000000   4321951   4324789   4327599   4330368   4333079  
  4790.000000   4335731   4338317   4340850   4343331   4345775  
  4780.000000   4348181   4350557   4352894   4355190   4357428  
  4770.000000   4359602   4361690   4363690   4365580   4367364  
  4760.000000   4369024   4370564   4371972   4373258   4374414  
  4750.000000   4375456   4376378   4377193   4377885   4378457  
  4740.000000   4378882   4379164   4379289   4379278   4379140  
  4730.000000   4378911   4378599   4378223   4377764   4377209  
  4720.000000   4376524   4375697   4374718   4373605   4372380  
  4710.000000   4371085   4369748   4368398   4367046   4365704  
  4700.000000   4364376   4363077   4361817   4360618   4359491  
  4690.000000   4358447   4357481   4356585   4355738   4354920  
  4680.000000   4354110   4353285   4352429   4351521   4350551  
  4670.000000   4349505   4348390   4347210   4345991   4344757  
  4660.000000   4343547   4342387   4341311   4340338   4339493  
  4650.000000   4338791   4338254   4337894   4337727   4337753  
  4640.000000   4337968   4338350   4338871   4339491   4340169  
  4630.000000   4340861   4341528   4342132   4342643   4343036  
  4620.000000   4343293   4343401   4343356   4343156   4342806  
  4610.000000   4342316   4341695   4340966   4340149   4339282  
  4600.000000   4338391   4337520   4336687   4335918   4335203  
  4590.000000   4334538   4333886   4333222   4332503   4331703  
  4580.000000   4330792   4329757   4328582   4327269   4325817  
  4570.000000   4324241   4322552   4320774   4318922   4317023  
  4560.000000   4315084   4313127   4311150   4309166   4307170  
  4550.000000   4305167   4303149   4301113   4299046   4296939  
  4540.000000   4294782   4292570   4290304   4287987   4285637  
  4530.000000   4283259   4280873   4278480   4276106   4273750  
  4520.000000   4271452   4269218   4267109   4265137   4263374  
  4510.000000   4261832   4260598   4259683   4259190   4259135  
  4500.000000   4259624   4260659   4262334   4264619   4267593  
  4490.000000   4271214   4275568   4280628   4286499   4293163  
  4480.000000   4300717   4309119   4318426   4328558   4339531  
  4470.000000   4351240   4363680   4376738   4390397   4404542  
  4460.000000   4419144   4434090   4449344   4464798   4480414  
  4450.000000   4496102   4511827   4527527   4543184   4558776  
  4440.000000   4574301   4589770   4605181   4620552   4635856  
  4430.000000   4651101   4666230   4681243   4696057   4710669  
  4420.000000   4724971   4738947   4752463   4765488   4777870  
  4410.000000   4789572   4800445   4810468   4819519   4827615  
  4400.000000   4834685   4840800   4845948   4850249   4853738  
  4390.000000   4856558   4858764   4860495   4861808   4862824  
  4380.000000   4863593   4864217   4864741   4865251   4865805  
  4370.000000   4866489   4867375   4868549   4870090   4872063  
  4360.000000   4874519   4877484   4880959   4884923   4889327  
  4350.000000   4894121   4899225   4904586   4910122   4915793  
  4340.000000   4921530   4927281   4932942   4938378   4943374  
  4330.000000   4947673   4950972   4953002   4953569   4952638  
  4320.000000   4950338   4946993   4943025   4938931   4935131  
  4310.000000   4931964   4929578   4928012   4927152   4926867  
  4300.000000   4926981   4927375   4927947   4928642   4929418  
  4290.000000   4930236   4931072   4931890   4932685   4933452  
  4280.000000   4934212   4934995   4935827   4936748   4937767  
  4270.000000   4938911   4940153   4941463   4942732   4943822  
  4260.000000   4944517   4944603   4943860   4942158   4939454  
  4250.000000   4935854   4931553   4926846   4922020   4917356  
  4240.000000   4913026   4909141   4905689   4902624   4899834  
  4230.000000   4897220   4894676   4892122   4889498   4886762  
  4220.000000   4883912   4880946   4877922   4874882   4871923  
  4210.000000   4869105   4866527   4864231   4862283   4860694  
  4200.000000   4859496   4858671   4858222   4858099   4858283  
  4190.000000   4858700   4859330   4860103   4861031   4862075  
  4180.000000   4863283   4864639   4866209   4867980   4870028  
  4170.000000   4872353   4875054   4878154   4881761   4885891  
  4160.000000   4890623   4895919   4901804   4908200   4915113  
  4150.000000   4922470   4930306   4938576   4947345   4956582  
  4140.000000   4966358   4976638   4987488   4998866   5010823  
  4130.000000   5023304   5036341   5049864   5063892   5078358  
  4120.000000   5093291   5108644   5124460   5140708   5157427  
  4110.000000   5174579   5192185   5210196   5228615   5247385  
  4100.000000   5266494   5285883   5305530   5325381   5345417  
  4090.000000   5365604   5385930   5406377   5426929   5447584  
  4080.000000   5468325   5489168   5510095   5531126   5552213  
  4070.000000   5573337   5594380   5615272   5635852   5656054  
  4060.000000   5675748   5694929   5713514   5731544   5748941  
  4050.000000   5765760   5781922   5797507   5812454   5826864  
  4040.000000   5840659   5853907   5866466   5878347   5889368  
  4030.000000   5899538   5908695   5916876   5923961   5930001  
  4020.000000   5934874   5938671   5941389   5943172   5944001  
  4010.000000   5944085   5943538   5942398   5940385   5937567  
  4000.000000   5934337  
##END= 
