##TITLE= Sample 028 By ssteindl date Dienstag, November 20 2018
##JCAMP-DX= 4.24
##DATA TYPE= INFRARED SPECTRUM
##ORIGIN= Exported PE Spectrum Data File
##OWNER= Sandra Steindl
##DATE= 18/11/20
##TIME= 16:37:47.00
##SPECTROMETER/DATA SYSTEM= PERKIN-ELMER Frontier FT-IR/NIR IR
##INSTRUMENT PARAMETERS=
  APODIZATION=stark
  DETECTOR=INGAAS
##RESOLUTION= 16.000000
##DELTAX= -2.000000
##XUNITS= 1/CM
##YUNITS= A
##XFACTOR= 1.00
##YFACTOR= 0.00000011920928955078
##FIRSTX= 10000.00
##LASTX= 4000.00
##NPOINTS= 3001
##FIRSTY= 0.211900
##MAXY= 0.674701
##MINY= 0.176701
##XYDATA= (X++(Y..Y))
 10000.000000   1777543   1772876   1769218   1767434   1766773  
  9990.000000   1765611   1763155   1759792   1756535   1754475  
  9980.000000   1754507   1756754   1760258   1763359   1764548  
  9970.000000   1763124   1759500   1755012   1751359   1749814  
  9960.000000   1750721   1753381   1756434   1758443   1758498  
  9950.000000   1756428   1752777   1748381   1744010   1740140  
  9940.000000   1736898   1734318   1732400   1731298   1731158  
  9930.000000   1732055   1733843   1736195   1738670   1740868  
  9920.000000   1742475   1743230   1742863   1740969   1737181  
  9910.000000   1731265   1723484   1714652   1706064   1699137  
  9900.000000   1694863   1693506   1694427   1696483   1698457  
  9890.000000   1699641   1700003   1700085   1700560   1701707  
  9880.000000   1703218   1704150   1703520   1700619   1695601  
  9870.000000   1689290   1683007   1677934   1674710   1673309  
  9860.000000   1673188   1673811   1674962   1676967   1680419  
  9850.000000   1685791   1692972   1701121   1708849   1714676  
  9840.000000   1717597   1717384   1714677   1710601   1706375  
  9830.000000   1702851   1700353   1698757   1697685   1696813  
  9820.000000   1695959   1695130   1694357   1693639   1692848  
  9810.000000   1691856   1690583   1689109   1687643   1686430  
  9800.000000   1685686   1685482   1685800   1686565   1687689  
  9790.000000   1689127   1690764   1692447   1693894   1694817  
  9780.000000   1695028   1694554   1693708   1692919   1692577  
  9770.000000   1692707   1692913   1692396   1690289   1686044  
  9760.000000   1679752   1672286   1665045   1659578   1657046  
  9750.000000   1657913   1661827   1667791   1674480   1680576  
  9740.000000   1685047   1687271   1687083   1684711   1680749  
  9730.000000   1676051   1671658   1668594   1667637   1669066  
  9720.000000   1672500   1676988   1681216   1684001   1684585  
  9710.000000   1682961   1679732   1675892   1672361   1669653  
  9700.000000   1667750   1666176   1664346   1661818   1658537  
  9690.000000   1654795   1651043   1647695   1644897   1642594  
  9680.000000   1640615   1638882   1637540   1636891   1637276  
  9670.000000   1638792   1641181   1643807   1645853   1646612  
  9660.000000   1645788   1643618   1640848   1638433   1637232  
  9650.000000   1637672   1639616   1642412   1645138   1646922  
  9640.000000   1647242   1646058   1643789   1641129   1638780  
  9630.000000   1637257   1636713   1636975   1637623   1638184  
  9620.000000   1638311   1637880   1637025   1636032   1635210  
  9610.000000   1634741   1634605   1634569   1634282   1633416  
  9600.000000   1631815   1629603   1627174   1625129   1624048  
  9590.000000   1624369   1626159   1629150   1632725   1636124  
  9580.000000   1638615   1639687   1639166   1637206   1634205  
  9570.000000   1630628   1626870   1623147   1619509   1615893  
  9560.000000   1612251   1608633   1605216   1602282   1600076  
  9550.000000   1598738   1598195   1598202   1598426   1598548  
  9540.000000   1598403   1597967   1597380   1596825   1596472  
  9530.000000   1596398   1596581   1596938   1597403   1597972  
  9520.000000   1598724   1599756   1601110   1602682   1604190  
  9510.000000   1605242   1605409   1604410   1602172   1598935  
  9500.000000   1595174   1591527   1588603   1586822   1586284  
  9490.000000   1586695   1587467   1587813   1587049   1584716  
  9480.000000   1580788   1575641   1569981   1564674   1560521  
  9470.000000   1558132   1557803   1559568   1563217   1568409  
  9460.000000   1574658   1581375   1587834   1593263   1596956  
  9450.000000   1598427   1597566   1594645   1590320   1585386  
  9440.000000   1580619   1576514   1573219   1570557   1568177  
  9430.000000   1565782   1563223   1560592   1558083   1555944  
  9420.000000   1554311   1553226   1552614   1552393   1552529  
  9410.000000   1553053   1554052   1555532   1557422   1559473  
  9400.000000   1561406   1562912   1563795   1563935   1563305  
  9390.000000   1561944   1559952   1557565   1555128   1553146  
  9380.000000   1552124   1552505   1554417   1557612   1561391  
  9370.000000   1564774   1566768   1566650   1564222   1559774  
  9360.000000   1554031   1547813   1541892   1536745   1532601  
  9350.000000   1529491   1527404   1526395   1526535   1527909  
  9340.000000   1530447   1533977   1538173   1542703   1547231  
  9330.000000   1551498   1555293   1558400   1560606   1561673  
  9320.000000   1561489   1560088   1557744   1554860   1551831  
  9310.000000   1548894   1546013   1542976   1539510   1535548  
  9300.000000   1531326   1527419   1524509   1523101   1523233  
  9290.000000   1524417   1525805   1526495   1525935   1524109  
  9280.000000   1521622   1519401   1518370   1519030   1521313  
  9270.000000   1524654   1528265   1531452   1533831   1535423  
  9260.000000   1536543   1537600   1538859   1540338   1541833  
  9250.000000   1543011   1543556   1543227   1541943   1539737  
  9240.000000   1536755   1533236   1529479   1525891   1522872  
  9230.000000   1520836   1520012   1520456   1521937   1524077  
  9220.000000   1526397   1528494   1530085   1531036   1531325  
  9210.000000   1530938   1529882   1528101   1525616   1522467  
  9200.000000   1518837   1514959   1511148   1507704   1504883  
  9190.000000   1502886   1501813   1501754   1502696   1504601  
  9180.000000   1507294   1510547   1514065   1517567   1520821  
  9170.000000   1523638   1525873   1527350   1527881   1527235  
  9160.000000   1525260   1521973   1517672   1512895   1508311  
  9150.000000   1504540   1501951   1500552   1499960   1499610  
  9140.000000   1498950   1497677   1495789   1493590   1491536  
  9130.000000   1490081   1489504   1489840   1490939   1492531  
  9120.000000   1494369   1496204   1497858   1499134   1499911  
  9110.000000   1500057   1499554   1498461   1497006   1495483  
  9100.000000   1494200   1493385   1493149   1493552   1494596  
  9090.000000   1496342   1498834   1502148   1506230   1510856  
  9080.000000   1515566   1519756   1522832   1524335   1524065  
  9070.000000   1522113   1518852   1514808   1510513   1506440  
  9060.000000   1502930   1500240   1498463   1497606   1497510  
  9050.000000   1497930   1498500   1498833   1498594   1497598  
  9040.000000   1495883   1493633   1491165   1488751   1486639  
  9030.000000   1484918   1483620   1482728   1482276   1482347  
  9020.000000   1483019   1484351   1486318   1488825   1491696  
  9010.000000   1494728   1497737   1500544   1502998   1504896  
  9000.000000   1506044   1506242   1505395   1503557   1500990  
  8990.000000   1498138   1495521   1493627   1492746   1492945  
  8980.000000   1494024   1495646   1497392   1498912   1499959  
  8970.000000   1500432   1500338   1499764   1498838   1497713  
  8960.000000   1496547   1495491   1494672   1494171   1494016  
  8950.000000   1494171   1494549   1495031   1495478   1495744  
  8940.000000   1495676   1495141   1494058   1492435   1490409  
  8930.000000   1488241   1486314   1484999   1484587   1485144  
  8920.000000   1486515   1488327   1490105   1491413   1491981  
  8910.000000   1491801   1491110   1490322   1489899   1490224  
  8900.000000   1491519   1493775   1496780   1500123   1503320  
  8890.000000   1505857   1507343   1507549   1506507   1504506  
  8880.000000   1502064   1499798   1498266   1497856   1498673  
  8870.000000   1500576   1503190   1506098   1508919   1511445  
  8860.000000   1513596   1515404   1516906   1518067   1518788  
  8850.000000   1518878   1518208   1516713   1514531   1511921  
  8840.000000   1509264   1506941   1505275   1504466   1504556  
  8830.000000   1505481   1507096   1509236   1511727   1514416  
  8820.000000   1517191   1519961   1522673   1525267   1527722  
  8810.000000   1529992   1532059   1533876   1535430   1536708  
  8800.000000   1537740   1538581   1539311   1540031   1540821  
  8790.000000   1541755   1542860   1544151   1545601   1547186  
  8780.000000   1548851   1550542   1552176   1553674   1554952  
  8770.000000   1555952   1556657   1557096   1557345   1557491  
  8760.000000   1557613   1557740   1557865   1557939   1557926  
  8750.000000   1557820   1557699   1557704   1558029   1558840  
  8740.000000   1560219   1562120   1564382   1566766   1569051  
  8730.000000   1571089   1572886   1574568   1576347   1578415  
  8720.000000   1580858   1583611   1586468   1589164   1591478  
  8710.000000   1593321   1594776   1596045   1597371   1598911  
  8700.000000   1600681   1602518   1604165   1605360   1605966  
  8690.000000   1606044   1605836   1605722   1606072   1607175  
  8680.000000   1609131   1611875   1615192   1618782   1622330  
  8670.000000   1625527   1628134   1629962   1630935   1631060  
  8660.000000   1630496   1629510   1628494   1627859   1627969  
  8650.000000   1629043   1631118   1634060   1637597   1641429  
  8640.000000   1645276   1648962   1652407   1655616   1658624  
  8630.000000   1661453   1664103   1666547   1668759   1670729  
  8620.000000   1672486   1674084   1675598   1677090   1678592  
  8610.000000   1680088   1681506   1682744   1683683   1684245  
  8600.000000   1684408   1684264   1684001   1683904   1684274  
  8590.000000   1685377   1687348   1690143   1693526   1697123  
  8580.000000   1700520   1703355   1705418   1706687   1707342  
  8570.000000   1707666   1707982   1708540   1709482   1710817  
  8560.000000   1712444   1714216   1715992   1717699   1719322  
  8550.000000   1720927   1722600   1724423   1726411   1728498  
  8540.000000   1730552   1732377   1733789   1734642   1734916  
  8530.000000   1734706   1734219   1733736   1733547   1733898  
  8520.000000   1734906   1736580   1738805   1741399   1744132  
  8510.000000   1746785   1749181   1751196   1752768   1753880  
  8500.000000   1754585   1754963   1755133   1755219   1755364  
  8490.000000   1755695   1756312   1757282   1758624   1760322  
  8480.000000   1762303   1764464   1766663   1768760   1770629  
  8470.000000   1772198   1773476   1774539   1775525   1776567  
  8460.000000   1777766   1779131   1780588   1781993   1783194  
  8450.000000   1784084   1784643   1784953   1785165   1785460  
  8440.000000   1785975   1786784   1787882   1789208   1790673  
  8430.000000   1792196   1793722   1795215   1796645   1797978  
  8420.000000   1799178   1800220   1801115   1801913   1802708  
  8410.000000   1803597   1804653   1805876   1807189   1808462  
  8400.000000   1809549   1810361   1810898   1811267   1811647  
  8390.000000   1812239   1813181   1814514   1816141   1817878  
  8380.000000   1819491   1820787   1821655   1822104   1822230  
  8370.000000   1822193   1822136   1822155   1822263   1822411  
  8360.000000   1822513   1822491   1822303   1821948   1821460  
  8350.000000   1820889   1820262   1819596   1818878   1818116  
  8340.000000   1817346   1816651   1816141   1815932   1816100  
  8330.000000   1816652   1817495   1818461   1819335   1819921  
  8320.000000   1820093   1819818   1819178   1818332   1817480  
  8310.000000   1816794   1816377   1816228   1816266   1816346  
  8300.000000   1816315   1816059   1815545   1814844   1814099  
  8290.000000   1813498   1813194   1813280   1813740   1814476  
  8280.000000   1815322   1816121   1816760   1817207   1817500  
  8270.000000   1817713   1817907   1818086   1818188   1818094  
  8260.000000   1817687   1816893   1815730   1814305   1812788  
  8250.000000   1811370   1810200   1809367   1808870   1808663  
  8240.000000   1808659   1808789   1808987   1809218   1809441  
  8230.000000   1809624   1809712   1809650   1809382   1808873  
  8220.000000   1808116   1807129   1805954   1804639   1803238  
  8210.000000   1801797   1800342   1798891   1797430   1795953  
  8200.000000   1794441   1792909   1791391   1789962   1788713  
  8190.000000   1787726   1787033   1786577   1786216   1785736  
  8180.000000   1784928   1783648   1781869   1779706   1777385  
  8170.000000   1775194   1773395   1772169   1771564   1771498  
  8160.000000   1771784   1772180   1772433   1772327   1771702  
  8150.000000   1770486   1768698   1766461   1763982   1761523  
  8140.000000   1759336   1757608   1756401   1755641   1755135  
  8130.000000   1754632   1753903   1752802   1751298   1749458  
  8120.000000   1747407   1745269   1743142   1741077   1739117  
  8110.000000   1737309   1735734   1734488   1733643   1733226  
  8100.000000   1733164   1733323   1733521   1733593   1733444  
  8090.000000   1733050   1732461   1731722   1730853   1729796  
  8080.000000   1728455   1726734   1724612   1722184   1719669  
  8070.000000   1717370   1715577   1714501   1714177   1714473  
  8060.000000   1715090   1715666   1715850   1715409   1714280  
  8050.000000   1712575   1710552   1708507   1706701   1705257  
  8040.000000   1704145   1703188   1702148   1700816   1699111  
  8030.000000   1697123   1695090   1693329   1692103   1691539  
  8020.000000   1691569   1691953   1692381   1692562   1692344  
  8010.000000   1691723   1690843   1689898   1689063   1688422  
  8000.000000   1687965   1687616   1687297   1686973   1686674  
  7990.000000   1686469   1686424   1686553   1686806   1687071  
  7980.000000   1687222   1687152   1686818   1686229   1685447  
  7970.000000   1684553   1683631   1682766   1682035   1681519  
  7960.000000   1681279   1681348   1681702   1682252   1682859  
  7950.000000   1683357   1683610   1683526   1683091   1682347  
  7940.000000   1681381   1680290   1679175   1678144   1677308  
  7930.000000   1676794   1676708   1677120   1678003   1679231  
  7920.000000   1680576   1681773   1682579   1682843   1682544  
  7910.000000   1681775   1680710   1679528   1678378   1677342  
  7900.000000   1676455   1675725   1675155   1674764   1674558  
  7890.000000   1674528   1674620   1674752   1674829   1674781  
  7880.000000   1674592   1674299   1673982   1673718   1673559  
  7870.000000   1673506   1673524   1673568   1673606   1673650  
  7860.000000   1673736   1673914   1674206   1674589   1674984  
  7850.000000   1675282   1675366   1675144   1674582   1673692  
  7840.000000   1672545   1671237   1669885   1668603   1667486  
  7830.000000   1666611   1666011   1665696   1665630   1665772  
  7820.000000   1666059   1666447   1666887   1667342   1667759  
  7810.000000   1668065   1668172   1667979   1667419   1666468  
  7800.000000   1665180   1663676   1662119   1660681   1659485  
  7790.000000   1658598   1657996   1657610   1657325   1657048  
  7780.000000   1656702   1656266   1655749   1655185   1654611  
  7770.000000   1654045   1653483   1652888   1652221   1651430  
  7760.000000   1650498   1649429   1648276   1647119   1646054  
  7750.000000   1645169   1644520   1644130   1643977   1644023  
  7740.000000   1644214   1644512   1644878   1645285   1645689  
  7730.000000   1646036   1646253   1646266   1646020   1645486  
  7720.000000   1644681   1643647   1642451   1641158   1639824  
  7710.000000   1638491   1637191   1635961   1634832   1633841  
  7700.000000   1633017   1632375   1631913   1631616   1631455  
  7690.000000   1631396   1631403   1631434   1631452   1631422  
  7680.000000   1631335   1631204   1631081   1631029   1631112  
  7670.000000   1631350   1631714   1632110   1632420   1632534  
  7660.000000   1632401   1632050   1631582   1631136   1630832  
  7650.000000   1630732   1630820   1631015   1631217   1631339  
  7640.000000   1631340   1631216   1630992   1630685   1630301  
  7630.000000   1629836   1629308   1628769   1628328   1628111  
  7620.000000   1628234   1628741   1629594   1630668   1631798  
  7610.000000   1632833   1633693   1634378   1634968   1635555  
  7600.000000   1636218   1636972   1637788   1638599   1639352  
  7590.000000   1640026   1640651   1641281   1641973   1642757  
  7580.000000   1643623   1644529   1645420   1646248   1646993  
  7570.000000   1647652   1648246   1648793   1649319   1649840  
  7560.000000   1650382   1650971   1651637   1652402   1653281  
  7550.000000   1654267   1655348   1656505   1657727   1659009  
  7540.000000   1660353   1661749   1663179   1664602   1665975  
  7530.000000   1667248   1668402   1669438   1670397   1671335  
  7520.000000   1672327   1673438   1674730   1676233   1677956  
  7510.000000   1679867   1681907   1683982   1686001   1687874  
  7500.000000   1689564   1691077   1692495   1693923   1695482  
  7490.000000   1697251   1699266   1701505   1703912   1706422  
  7480.000000   1708988   1711593   1714246   1716956   1719727  
  7470.000000   1722526   1725310   1728016   1730606   1733052  
  7460.000000   1735368   1737565   1739680   1741733   1743757  
  7450.000000   1745779   1747845   1750006   1752317   1754823  
  7440.000000   1757542   1760466   1763565   1766799   1770129  
  7430.000000   1773519   1776933   1780325   1783638   1786807  
  7420.000000   1789779   1792524   1795056   1797428   1799717  
  7410.000000   1801998   1804322   1806708   1809148   1811624  
  7400.000000   1814126   1816665   1819259   1821923   1824641  
  7390.000000   1827365   1830028   1832566   1834956   1837233  
  7380.000000   1839500   1841893   1844539   1847512   1850808  
  7370.000000   1854340   1857965   1861521   1864874   1867945  
  7360.000000   1870726   1873271   1875675   1878043   1880464  
  7350.000000   1882984   1885602   1888274   1890926   1893483  
  7340.000000   1895889   1898139   1900260   1902326   1904407  
  7330.000000   1906568   1908828   1911168   1913528   1915837  
  7320.000000   1918032   1920083   1921993   1923803   1925561  
  7310.000000   1927321   1929108   1930930   1932764   1934582  
  7300.000000   1936352   1938060   1939704   1941300   1942868  
  7290.000000   1944428   1945984   1947527   1949034   1950478  
  7280.000000   1951843   1953129   1954360   1955581   1956840  
  7270.000000   1958180   1959616   1961136   1962708   1964284  
  7260.000000   1965829   1967320   1968764   1970174   1971577  
  7250.000000   1972984   1974412   1975859   1977345   1978881  
  7240.000000   1980509   1982249   1984132   1986146   1988280  
  7230.000000   1990497   1992786   1995137   1997585   2000153  
  7220.000000   2002887   2005787   2008863   2012082   2015439  
  7210.000000   2018917   2022547   2026344   2030341   2034523  
  7200.000000   2038871   2043322   2047840   2052383   2056969  
  7190.000000   2061614   2066363   2071216   2076163   2081137  
  7180.000000   2086087   2090955   2095747   2100493   2105272  
  7170.000000   2110141   2115153   2120303   2125577   2130931  
  7160.000000   2136359   2141862   2147487   2153266   2159246  
  7150.000000   2165429   2171820   2178389   2185129   2192007  
  7140.000000   2199016   2206107   2213246   2220360   2227422  
  7130.000000   2234417   2241414   2248499   2255814   2263444  
  7120.000000   2271439   2279736   2288220   2296726   2305137  
  7110.000000   2313385   2321507   2329588   2337757   2346099  
  7100.000000   2354667   2363430   2372331   2381284   2390233  
  7090.000000   2399141   2408017   2416879   2425766   2434703  
  7080.000000   2443713   2452795   2461943   2471125   2480302  
  7070.000000   2489417   2498424   2507293   2516029   2524672  
  7060.000000   2533286   2541938   2550679   2559527   2568463  
  7050.000000   2577449   2586436   2595391   2604291   2613140  
  7040.000000   2621940   2630697   2639401   2648042   2656594  
  7030.000000   2665038   2673348   2681511   2689508   2697350  
  7020.000000   2705053   2712678   2720290   2727975   2735776  
  7010.000000   2743703   2751686   2759621   2767360   2774793  
  7000.000000   2781842   2788519   2794877   2801027   2807058  
  6990.000000   2813055   2819049   2825060   2831066   2837057  
  6980.000000   2842993   2848848   2854556   2860069   2865321  
  6970.000000   2870292   2874973   2879415   2883667   2887804  
  6960.000000   2891865   2895887   2899873   2903851   2907828  
  6950.000000   2911846   2915907   2920010   2924083   2928045  
  6940.000000   2931785   2935236   2938367   2941221   2943867  
  6930.000000   2946386   2948824   2951194   2953468   2955629  
  6920.000000   2957675   2959663   2961666   2963774   2966029  
  6910.000000   2968432   2970919   2973414   2975833   2978138  
  6900.000000   2980320   2982406   2984425   2986399   2988328  
  6890.000000   2990210   2992046   2993851   2995650   2997462  
  6880.000000   2999283   3001090   3002834   3004485   3006027  
  6870.000000   3007500   3008958   3010468   3012061   3013725  
  6860.000000   3015401   3017007   3018465   3019736   3020813  
  6850.000000   3021731   3022533   3023261   3023943   3024605  
  6840.000000   3025269   3025974   3026756   3027645   3028639  
  6830.000000   3029711   3030796   3031835   3032775   3033606  
  6820.000000   3034347   3035039   3035720   3036409   3037098  
  6810.000000   3037768   3038394   3038971   3039500   3039999  
  6800.000000   3040470   3040917   3041318   3041663   3041938  
  6790.000000   3042154   3042317   3042435   3042485   3042432  
  6780.000000   3042221   3041817   3041208   3040434   3039560  
  6770.000000   3038671   3037824   3037053   3036346   3035683  
  6760.000000   3035038   3034413   3033822   3033295   3032841  
  6750.000000   3032446   3032064   3031635   3031107   3030452  
  6740.000000   3029678   3028819   3027918   3027017   3026135  
  6730.000000   3025284   3024460   3023662   3022882   3022119  
  6720.000000   3021353   3020563   3019719   3018800   3017795  
  6710.000000   3016715   3015580   3014416   3013234   3012043  
  6700.000000   3010841   3009638   3008453   3007327   3006288  
  6690.000000   3005352   3004489   3003641   3002717   3001643  
  6680.000000   3000371   2998910   2997308   2995644   2993989  
  6670.000000   2992393   2990868   2989403   2987969   2986544  
  6660.000000   2985105   2983640   2982121   2980523   2978811  
  6650.000000   2976970   2975011   2972981   2970950   2968996  
  6640.000000   2967171   2965496   2963945   2962472   2961021  
  6630.000000   2959555   2958051   2956513   2954941   2953334  
  6620.000000   2951674   2949939   2948108   2946174   2944147  
  6610.000000   2942049   2939907   2937746   2935578   2933417  
  6600.000000   2931270   2929156   2927086   2925072   2923109  
  6590.000000   2921181   2919262   2917333   2915390   2913448  
  6580.000000   2911536   2909683   2907906   2906197   2904533  
  6570.000000   2902883   2901224   2899548   2897869   2896201  
  6560.000000   2894557   2892931   2891304   2889652   2887964  
  6550.000000   2886243   2884519   2882829   2881209   2879674  
  6540.000000   2878223   2876830   2875471   2874128   2872804  
  6530.000000   2871512   2870285   2869145   2868113   2867186  
  6520.000000   2866352   2865581   2864837   2864081   2863279  
  6510.000000   2862406   2861454   2860437   2859387   2858345  
  6500.000000   2857348   2856413   2855528   2854654   2853739  
  6490.000000   2852737   2851627   2850426   2849183   2847967  
  6480.000000   2846845   2845857   2845010   2844278   2843610  
  6470.000000   2842951   2842260   2841517   2840729   2839917  
  6460.000000   2839115   2838344   2837611   2836897   2836170  
  6450.000000   2835385   2834511   2833537   2832484   2831404  
  6440.000000   2830363   2829423   2828622   2827964   2827418  
  6430.000000   2826933   2826461   2825968   2825448   2824916  
  6420.000000   2824395   2823900   2823438   2822998   2822573  
  6410.000000   2822158   2821759   2821385   2821039   2820705  
  6400.000000   2820356   2819957   2819487   2818949   2818380  
  6390.000000   2817832   2817354   2816974   2816685   2816456  
  6380.000000   2816241   2816011   2815764   2815522   2815318  
  6370.000000   2815175   2815082   2814996   2814855   2814606  
  6360.000000   2814223   2813721   2813146   2812556   2811992  
  6350.000000   2811472   2810980   2810489   2809972   2809420  
  6340.000000   2808839   2808254   2807680   2807126   2806577  
  6330.000000   2806011   2805397   2804714   2803948   2803101  
  6320.000000   2802181   2801210   2800211   2799216   2798247  
  6310.000000   2797332   2796469   2795648   2794829   2793971  
  6300.000000   2793028   2791982   2790827   2789588   2788286  
  6290.000000   2786948   2785575   2784162   2782689   2781152  
  6280.000000   2779548   2777894   2776199   2774473   2772700  
  6270.000000   2770863   2768936   2766915   2764810   2762663  
  6260.000000   2760514   2758405   2756350   2754349   2752381  
  6250.000000   2750428   2748477   2746527   2744573   2742605  
  6240.000000   2740597   2738520   2736350   2734091   2731777  
  6230.000000   2729472   2727242   2725137   2723163   2721286  
  6220.000000   2719441   2717559   2715593   2713533   2711402  
  6210.000000   2709248   2707115   2705031   2702999   2701007  
  6200.000000   2699035   2697066   2695089   2693098   2691084  
  6190.000000   2689041   2686961   2684848   2682718   2680599  
  6180.000000   2678521   2676507   2674558   2672655   2670762  
  6170.000000   2668844   2666878   2664863   2662816   2660763  
  6160.000000   2658730   2656729   2654764   2652826   2650907  
  6150.000000   2649001   2647106   2645220   2643347   2641487  
  6140.000000   2639646   2637835   2636074   2634382   2632771  
  6130.000000   2631234   2629753   2628289   2626814   2625305  
  6120.000000   2623771   2622234   2620731   2619286   2617916  
  6110.000000   2616609   2615355   2614135   2612954   2611821  
  6100.000000   2610763   2609788   2608894   2608052   2607224  
  6090.000000   2606370   2605478   2604553   2603634   2602764  
  6080.000000   2601987   2601326   2600786   2600350   2600000  
  6070.000000   2599706   2599456   2599225   2599007   2598781  
  6060.000000   2598546   2598294   2598045   2597818   2597650  
  6050.000000   2597565   2597589   2597723   2597969   2598312  
  6040.000000   2598751   2599275   2599889   2600581   2601349  
  6030.000000   2602168   2603027   2603905   2604802   2605717  
  6020.000000   2606669   2607664   2608713   2609811   2610956  
  6010.000000   2612137   2613354   2614600   2615876   2617167  
  6000.000000   2618455   2619706   2620898   2622007   2623043  
  5990.000000   2624025   2625002   2626019   2627127   2628356  
  5980.000000   2629728   2631239   2632885   2634643   2636497  
  5970.000000   2638414   2640374   2642352   2644348   2646363  
  5960.000000   2648430   2650572   2652825   2655196   2657685  
  5950.000000   2660263   2662907   2665584   2668282   2670998  
  5940.000000   2673739   2676513   2679323   2682159   2685012  
  5930.000000   2687867   2690716   2693553   2696371   2699157  
  5920.000000   2701891   2704548   2707109   2709566   2711932  
  5910.000000   2714236   2716508   2718774   2721043   2723313  
  5900.000000   2725574   2727821   2730064   2732327   2734635  
  5890.000000   2737011   2739456   2741952   2744468   2746975  
  5880.000000   2749453   2751900   2754326   2756740   2759149  
  5870.000000   2761539   2763897   2766205   2768464   2770683  
  5860.000000   2772889   2775105   2777349   2779624   2781928  
  5850.000000   2784260   2786634   2789070   2791602   2794252  
  5840.000000   2797026   2799901   2802840   2805792   2808717  
  5830.000000   2811589   2814404   2817169   2819894   2822589  
  5820.000000   2825256   2827896   2830510   2833105   2835680  
  5810.000000   2838236   2840749   2843195   2845533   2847750  
  5800.000000   2849826   2851792   2853665   2855488   2857258  
  5790.000000   2858979   2860598   2862076   2863341   2864355  
  5780.000000   2865062   2865440   2865454   2865101   2864377  
  5770.000000   2863331   2862022   2860560   2859045   2857585  
  5760.000000   2856242   2855050   2853998   2853069   2852237  
  5750.000000   2851493   2850842   2850292   2849847   2849493  
  5740.000000   2849210   2848969   2848761   2848580   2848449  
  5730.000000   2848382   2848397   2848484   2848632   2848814  
  5720.000000   2849021   2849249   2849518   2849845   2850248  
  5710.000000   2850724   2851263   2851840   2852443   2853065  
  5700.000000   2853717   2854406   2855139   2855906   2856681  
  5690.000000   2857439   2858156   2858830   2859468   2860097  
  5680.000000   2860729   2861374   2862012   2862621   2863156  
  5670.000000   2863587   2863873   2863991   2863912   2863625  
  5660.000000   2863122   2862422   2861556   2860587   2859572  
  5650.000000   2858573   2857619   2856726   2855873   2855043  
  5640.000000   2854210   2853373   2852534   2851709   2850904  
  5630.000000   2850122   2849352   2848586   2847818   2847053  
  5620.000000   2846300   2845568   2844857   2844158   2843453  
  5610.000000   2842732   2841993   2841251   2840524   2839832  
  5600.000000   2839173   2838532   2837877   2837178   2836417  
  5590.000000   2835595   2834729   2833839   2832936   2832018  
  5580.000000   2831067   2830064   2828998   2827877   2826718  
  5570.000000   2825546   2824372   2823194   2821993   2820755  
  5560.000000   2819467   2818142   2816803   2815486   2814214  
  5550.000000   2812998   2811830   2810692   2809563   2808433  
  5540.000000   2807299   2806166   2805037   2803912   2802789  
  5530.000000   2801666   2800551   2799458   2798402   2797389  
  5520.000000   2796411   2795441   2794443   2793387   2792258  
  5510.000000   2791066   2789833   2788586   2787343   2786107  
  5500.000000   2784866   2783611   2782336   2781057   2779790  
  5490.000000   2778553   2777344   2776141   2774903   2773593  
  5480.000000   2772183   2770673   2769080   2767438   2765769  
  5470.000000   2764088   2762389   2760665   2758906   2757118  
  5460.000000   2755308   2753487   2751648   2749778   2747850  
  5450.000000   2745849   2743772   2741643   2739499   2737384  
  5440.000000   2735328   2733338   2731410   2729530   2727698  
  5430.000000   2725914   2724191   2722527   2720911   2719308  
  5420.000000   2717699   2716066   2714445   2712889   2711487  
  5410.000000   2710295   2709355   2708634   2708092   2707657  
  5400.000000   2707306   2707024   2706853   2706818   2706963  
  5390.000000   2707273   2707741   2708319   2709009   2709808  
  5380.000000   2710777   2711947   2713371   2715027   2716904  
  5370.000000   2718926   2721070   2723287   2725615   2728059  
  5360.000000   2730695   2733533   2736641   2740011   2743716  
  5350.000000   2747755   2752221   2757113   2762510   2768370  
  5340.000000   2774730   2781518   2788780   2796463   2804644  
  5330.000000   2813286   2822464   2832116   2842301   2852954  
  5320.000000   2864166   2875916   2888347   2901457   2915383  
  5310.000000   2930079   2945628   2961936   2979067   2996942  
  5300.000000   3015664   3035203   3055699   3077137   3099640  
  5290.000000   3123151   3147714   3173186   3199517   3226518  
  5280.000000   3254133   3282250   3310923   3340173   3370135  
  5270.000000   3400838   3432297   3464366   3496837   3529439  
  5260.000000   3561940   3594214   3626230   3658072   3689794  
  5250.000000   3721449   3752916   3784056   3814573   3844303  
  5240.000000   3873034   3900806   3927603   3953622   3978897  
  5230.000000   4003583   4027595   4050949   4073441   4095040  
  5220.000000   4115576   4135123   4153637   4171311   4188166  
  5210.000000   4204390   4219930   4234849   4248973   4262294  
  5200.000000   4274646   4286107   4296631   4306395   4315402  
  5190.000000   4323794   4331501   4338569   4344869   4350440  
  5180.000000   4355199   4359249   4362566   4365267   4367316  
  5170.000000   4368796   4369651   4369968   4369724   4369033  
  5160.000000   4367883   4366355   4364390   4362007   4359124  
  5150.000000   4355772   4351923   4347670   4343034   4338115  
  5140.000000   4332912   4327481   4321791   4315883   4309746  
  5130.000000   4303445   4296987   4290422   4283730   4276920  
  5120.000000   4269947   4262820   4255526   4248112   4240605  
  5110.000000   4233058   4225479   4217884   4210249   4202568  
  5100.000000   4194824   4187032   4179201   4171363   4163526  
  5090.000000   4155710   4147908   4140127   4132360   4124615  
  5080.000000   4116884   4109167   4101442   4093694   4085893  
  5070.000000   4078027   4070084   4062077   4054014   4045915  
  5060.000000   4037781   4029617   4021410   4013152   4004828  
  5050.000000   3996439   3987985   3979480   3970936   3962378  
  5040.000000   3953827   3945312   3936854   3928471   3920165  
  5030.000000   3911930   3903748   3895598   3887471   3879366  
  5020.000000   3871309   3863329   3855472   3847760   3840216  
  5010.000000   3832825   3825578   3818436   3811397   3804440  
  5000.000000   3797598   3790886   3784362   3778045   3771991  
  4990.000000   3766198   3760696   3755464   3750523   3745846  
  4980.000000   3741461   3737351   3733559   3730071   3726938  
  4970.000000   3724138   3721708   3719602   3717836   3716349  
  4960.000000   3715157   3714216   3713576   3713230   3713261  
  4950.000000   3713679   3714557   3715874   3717660   3719847  
  4940.000000   3722436   3725354   3728611   3732160   3736036  
  4930.000000   3740210   3744721   3749533   3754671   3760089  
  4920.000000   3765806   3771777   3778023   3784510   3791262  
  4910.000000   3798255   3805515   3813021   3820795   3828810  
  4900.000000   3837071   3845535   3854187   3862978   3871887  
  4890.000000   3880874   3889926   3899019   3908139   3917265  
  4880.000000   3926376   3935448   3944454   3953376   3962190  
  4870.000000   3970886   3979435   3987827   3996025   4004021  
  4860.000000   4011780   4019306   4026583   4033632   4040450  
  4850.000000   4047068   4053484   4059728   4065791   4071698  
  4840.000000   4077431   4083010   4088416   4093673   4098769  
  4830.000000   4103738   4108578   4113321   4117957   4122496  
  4820.000000   4126902   4131161   4135229   4139096   4142741  
  4810.000000   4146183   4149431   4152523   4155477   4158326  
  4800.000000   4161077   4163755   4166364   4168926   4171444  
  4790.000000   4173942   4176420   4178896   4181362   4183834  
  4780.000000   4186299   4188767   4191214   4193633   4195984  
  4770.000000   4198242   4200365   4202337   4204136   4205775  
  4760.000000   4207253   4208598   4209808   4210902   4211862  
  4750.000000   4212696   4213379   4213920   4214294   4214514  
  4740.000000   4214556   4214426   4214098   4213581   4212855  
  4730.000000   4211942   4210837   4209573   4208152   4206603  
  4720.000000   4204925   4203138   4201235   4199233   4197128  
  4710.000000   4194941   4192681   4190376   4188044   4185712  
  4700.000000   4183394   4181105   4178840   4176598   4174365  
  4690.000000   4172137   4169912   4167704   4165530   4163409  
  4680.000000   4161353   4159355   4157394   4155430   4153423  
  4670.000000   4151333   4149144   4146854   4144493   4142095  
  4660.000000   4139715   4137396   4135187   4133119   4131224  
  4650.000000   4129513   4128002   4126683   4125550   4124579  
  4640.000000   4123750   4123033   4122411   4121860   4121374  
  4630.000000   4120935   4120537   4120162   4119802   4119438  
  4620.000000   4119069   4118686   4118292   4117880   4117442  
  4610.000000   4116957   4116406   4115767   4115033   4114213  
  4600.000000   4113331   4112426   4111535   4110694   4109918  
  4590.000000   4109217   4108579   4107998   4107455   4106942  
  4580.000000   4106441   4105936   4105401   4104810   4104137  
  4570.000000   4103367   4102491   4101519   4100458   4099325  
  4560.000000   4098120   4096848   4095497   4094067   4092552  
  4550.000000   4090961   4089303   4087592   4085833   4084030  
  4540.000000   4082184   4080297   4078383   4076461   4074568  
  4530.000000   4072724   4070966   4069298   4067743   4066286  
  4520.000000   4064958   4063753   4062726   4061884   4061297  
  4510.000000   4060968   4060971   4061299   4062033   4063171  
  4500.000000   4064809   4066945   4069673   4072972   4076917  
  4490.000000   4081471   4086702   4092576   4099167   4106443  
  4480.000000   4114467   4123185   4132626   4142703   4153416  
  4470.000000   4164668   4176445   4188652   4201270   4214202  
  4460.000000   4227418   4240822   4254380   4268013   4281697  
  4450.000000   4295378   4309045   4322667   4336239   4349752  
  4440.000000   4363206   4376611   4389968   4403298   4416587  
  4430.000000   4429853   4443052   4456191   4469196   4482062  
  4420.000000   4494692   4507076   4519098   4530734   4541851  
  4410.000000   4552413   4562272   4571385   4579613   4586934  
  4400.000000   4593250   4598594   4602936   4606373   4608942  
  4390.000000   4610786   4611980   4612679   4612963   4612966  
  4380.000000   4612753   4612426   4612038   4611676   4611405  
  4370.000000   4611316   4611496   4612036   4613028   4614531  
  4360.000000   4616604   4619254   4622479   4626233   4630459  
  4350.000000   4635083   4640026   4645230   4650650   4656281  
  4340.000000   4662123   4668184   4674422   4680733   4686906  
  4330.000000   4692647   4697593   4701396   4703783   4704655  
  4320.000000   4704093   4702394   4699969   4697309   4694827  
  4310.000000   4692858   4691536   4690895   4690808   4691143  
  4300.000000   4691716   4692410   4693115   4693782   4694366  
  4290.000000   4694846   4695209   4695449   4695578   4695617  
  4280.000000   4695596   4695554   4695519   4695540   4695643  
  4270.000000   4695885   4696285   4696867   4697581   4698338  
  4260.000000   4698960   4699246   4698968   4697953   4696106  
  4250.000000   4693451   4690116   4686324   4682324   4678375  
  4240.000000   4674669   4671345   4668443   4665958   4663812  
  4230.000000   4661915   4660152   4658421   4656627   4654701  
  4220.000000   4652613   4650353   4647967   4645502   4643048  
  4210.000000   4640668   4638447   4636422   4634646   4633124  
  4200.000000   4631880   4630897   4630184   4629703   4629447  
  4190.000000   4629358   4629428   4629596   4629875   4630233  
  4180.000000   4630723   4631350   4632209   4633331   4634834  
  4170.000000   4636760   4639224   4642248   4645909   4650177  
  4160.000000   4655076   4660528   4666532   4672999   4679950  
  4150.000000   4687319   4695152   4703397   4712100   4721203  
  4140.000000   4730753   4740707   4751132   4762017   4773449  
  4130.000000   4785416   4797978   4811085   4824744   4838871  
  4120.000000   4853454   4868417   4883770   4899470   4915546  
  4110.000000   4931971   4948769   4965898   4983354   5001072  
  4100.000000   5019020   5037124   5055351   5073650   5092014  
  4090.000000   5110439   5128942   5147543   5166257   5185100  
  4080.000000   5204066   5223166   5242381   5261720   5281143  
  4070.000000   5300637   5320113   5339528   5358759   5377766  
  4060.000000   5396447   5414802   5432755   5450332   5467446  
  4050.000000   5484116   5500234   5515830   5530798   5545188  
  4040.000000   5558894   5571961   5584255   5595813   5606496  
  4030.000000   5616356   5625272   5633303   5640326   5646371  
  4020.000000   5651273   5655076   5657721   5659310   5659799  
  4010.000000   5659388   5658185   5656268   5653419   5649767  
  4000.000000   5645709  
##END= 
