##TITLE= Sample 022 By ssteindl date Dienstag, November 20 2018
##JCAMP-DX= 4.24
##DATA TYPE= INFRARED SPECTRUM
##ORIGIN= Exported PE Spectrum Data File
##OWNER= Sandra Steindl
##DATE= 18/11/20
##TIME= 16:30:36.00
##SPECTROMETER/DATA SYSTEM= PERKIN-ELMER Frontier FT-IR/NIR IR
##INSTRUMENT PARAMETERS=
  APODIZATION=stark
  DETECTOR=INGAAS
##RESOLUTION= 16.000000
##DELTAX= -2.000000
##XUNITS= 1/CM
##YUNITS= A
##XFACTOR= 1.00
##YFACTOR= 0.00000011920928955078
##FIRSTX= 10000.00
##LASTX= 4000.00
##NPOINTS= 3001
##FIRSTY= 0.233494
##MAXY= 0.572710
##MINY= 0.194126
##XYDATA= (X++(Y..Y))
 10000.000000   1958687   1960322   1961807   1963261   1965273  
  9990.000000   1968385   1972442   1976553   1979507   1980216  
  9980.000000   1977964   1972731   1965306   1957154   1949975  
  9970.000000   1945293   1943980   1946027   1950453   1955682  
  9960.000000   1959996   1962113   1961521   1958576   1954280  
  9950.000000   1949876   1946442   1944524   1944135   1944793  
  9940.000000   1945871   1946808   1947258   1947163   1946546  
  9930.000000   1945584   1944416   1943339   1942738   1943089  
  9920.000000   1944766   1947740   1951471   1954778   1956243  
  9910.000000   1954540   1949040   1940047   1928825   1917248  
  9900.000000   1907231   1900261   1897022   1897461   1900924  
  9890.000000   1906558   1913460   1920849   1927941   1933934  
  9880.000000   1938025   1939549   1938320   1934670   1929608  
  9870.000000   1924320   1919961   1917065   1915540   1914729  
  9860.000000   1913813   1912294   1910176   1908116   1906988  
  9850.000000   1907636   1910367   1914946   1920629   1926523  
  9840.000000   1931858   1936133   1939132   1940713   1940758  
  9830.000000   1939091   1935683   1930748   1924877   1918910  
  9820.000000   1913698   1909821   1907376   1906061   1905305  
  9810.000000   1904685   1904019   1903545   1903615   1904521  
  9800.000000   1906198   1908208   1909927   1910771   1910513  
  9790.000000   1909253   1907380   1905224   1902928   1900333  
  9780.000000   1897166   1893302   1888956   1884779   1881611  
  9770.000000   1880203   1880836   1883193   1886461   1889603  
  9760.000000   1891799   1892597   1892056   1890482   1888235  
  9750.000000   1885531   1882399   1878916   1875349   1872374  
  9740.000000   1870931   1871982   1876070   1882996   1891674  
  9730.000000   1900312   1906847   1909498   1907342   1900523  
  9720.000000   1890315   1878654   1867713   1859285   1854450  
  9710.000000   1853390   1855468   1859551   1864309   1868683  
  9700.000000   1872004   1874204   1875587   1876731   1878165  
  9690.000000   1880187   1882809   1885694   1888382   1890301  
  9680.000000   1891021   1890231   1887863   1884057   1879179  
  9670.000000   1873779   1868511   1864036   1860843   1859174  
  9660.000000   1858895   1859633   1860830   1862052   1863081  
  9650.000000   1864055   1865342   1867322   1870160   1873561  
  9640.000000   1876880   1879197   1879762   1878156   1874535  
  9630.000000   1869532   1864053   1859057   1855250   1853110  
  9620.000000   1852772   1854226   1857261   1861540   1866531  
  9610.000000   1871476   1875490   1877651   1877299   1874158  
  9600.000000   1868532   1861181   1853211   1845767   1839839  
  9590.000000   1836115   1834936   1836348   1840071   1845584  
  9580.000000   1852043   1858453   1863732   1867023   1867879  
  9570.000000   1866439   1863414   1859854   1856852   1855135  
  9560.000000   1854880   1855654   1856630   1856918   1855851  
  9550.000000   1853244   1849327   1844668   1839885   1835498  
  9540.000000   1831806   1828884   1826665   1824971   1823604  
  9530.000000   1822334   1820963   1819352   1817495   1815571  
  9520.000000   1813923   1812977   1813089   1814389   1816707  
  9510.000000   1819586   1822436   1824694   1826031   1826389  
  9500.000000   1826006   1825218   1824365   1823578   1822792  
  9490.000000   1821757   1820214   1818025   1815299   1812413  
  9480.000000   1809911   1808399   1808312   1809853   1812831  
  9470.000000   1816756   1820885   1824449   1826860   1827854  
  9460.000000   1827553   1826351   1824746   1823125   1821641  
  9450.000000   1820182   1818500   1816362   1813751   1810912  
  9440.000000   1808298   1806365   1805342   1805102   1805191  
  9430.000000   1805039   1804218   1802648   1800645   1798810  
  9420.000000   1797777   1797986   1799504   1802063   1805194  
  9410.000000   1808412   1811370   1813851   1815738   1816894  
  9400.000000   1817137   1816256   1814140   1810898   1806944  
  9390.000000   1802940   1799600   1797480   1796747   1797205  
  9380.000000   1798332   1799556   1800377   1800563   1800114  
  9370.000000   1799207   1798063   1796820   1795535   1794156  
  9360.000000   1792654   1790979   1789153   1787172   1785081  
  9350.000000   1782929   1780846   1779047   1777802   1777413  
  9340.000000   1778056   1779773   1782371   1785550   1788952  
  9330.000000   1792328   1795543   1798560   1801322   1803648  
  9320.000000   1805221   1805594   1804390   1801394   1796750  
  9310.000000   1790911   1784562   1778423   1773038   1768726  
  9300.000000   1765514   1763331   1762038   1761613   1762048  
  9290.000000   1763346   1765356   1767763   1770111   1771897  
  9280.000000   1772750   1772486   1771236   1769282   1767041  
  9270.000000   1764830   1762877   1761223   1759823   1758572  
  9260.000000   1757408   1756334   1755425   1754799   1754538  
  9250.000000   1754693   1755228   1756090   1757207   1758517  
  9240.000000   1760000   1761649   1763497   1765522   1767625  
  9230.000000   1769559   1770971   1771497   1770903   1769194  
  9220.000000   1766689   1764000   1761890   1761028   1761711  
  9210.000000   1763771   1766576   1769269   1771020   1771351  
  9200.000000   1770280   1768317   1766220   1764713   1764197  
  9190.000000   1764643   1765636   1766581   1766956   1766519  
  9180.000000   1765369   1763876   1762460   1761459   1760967  
  9170.000000   1760881   1760938   1760872   1760512   1759818  
  9160.000000   1758865   1757754   1756554   1755273   1753870  
  9150.000000   1752303   1750570   1748744   1746971   1745423  
  9140.000000   1744243   1743502   1743177   1743165   1743301  
  9130.000000   1743403   1743328   1742989   1742398   1741611  
  9120.000000   1740754   1739931   1739235   1738689   1738271  
  9110.000000   1737913   1737551   1737178   1736855   1736716  
  9100.000000   1736914   1737593   1738831   1740600   1742737  
  9090.000000   1744970   1746973   1748411   1749030   1748706  
  9080.000000   1747522   1745730   1743708   1741864   1740519  
  9070.000000   1739851   1739812   1740208   1740741   1741187  
  9060.000000   1741430   1741532   1741629   1741866   1742265  
  9050.000000   1742688   1742864   1742478   1741340   1739439  
  9040.000000   1736989   1734339   1731851   1729788   1728223  
  9030.000000   1727085   1726233   1725579   1725144   1725030  
  9020.000000   1725343   1726073   1727056   1727944   1728354  
  9010.000000   1727972   1726755   1724904   1722852   1721095  
  9000.000000   1720074   1720027   1720946   1722652   1724889  
  8990.000000   1727436   1730111   1732801   1735387   1737727  
  8980.000000   1739616   1740853   1741311   1740994   1740063  
  8970.000000   1738770   1737398   1736149   1735074   1734088  
  8960.000000   1733010   1731693   1730063   1728200   1726279  
  8950.000000   1724544   1723199   1722360   1722007   1722010  
  8940.000000   1722175   1722299   1722228   1721887   1721299  
  8930.000000   1720574   1719884   1719411   1719314   1719667  
  8920.000000   1720450   1721519   1722661   1723612   1724144  
  8910.000000   1724107   1723483   1722380   1721006   1719620  
  8900.000000   1718480   1717769   1717573   1717872   1718565  
  8890.000000   1719498   1720468   1721292   1721802   1721923  
  8880.000000   1721656   1721128   1720556   1720211   1720332  
  8870.000000   1721034   1722245   1723668   1724845   1725273  
  8860.000000   1724575   1722615   1719584   1715950   1712364  
  8850.000000   1709457   1707659   1707090   1707546   1708624  
  8840.000000   1709869   1710956   1711761   1712392   1713070  
  8830.000000   1714025   1715355   1716971   1718635   1720019  
  8820.000000   1720861   1721012   1720504   1719481   1718144  
  8810.000000   1716672   1715188   1713762   1712431   1711239  
  8800.000000   1710263   1709577   1709229   1709188   1709335  
  8790.000000   1709504   1709532   1709345   1709004   1708703  
  8780.000000   1708724   1709332   1710695   1712795   1715435  
  8770.000000   1718258   1720866   1722890   1724106   1724455  
  8760.000000   1724054   1723156   1722076   1721136   1720589  
  8750.000000   1720606   1721241   1722450   1724085   1725921  
  8740.000000   1727683   1729071   1729820   1729743   1728803  
  8730.000000   1727112   1724951   1722683   1720720   1719401  
  8720.000000   1718943   1719390   1720628   1722450   1724614  
  8710.000000   1726927   1729244   1731494   1733636   1735630  
  8700.000000   1737433   1738968   1740191   1741062   1741614  
  8690.000000   1741895   1741980   1741925   1741753   1741499  
  8680.000000   1741193   1740948   1740910   1741277   1742199  
  8670.000000   1743731   1745770   1748048   1750181   1751765  
  8660.000000   1752483   1752200   1751009   1749196   1747191  
  8650.000000   1745446   1744359   1744161   1744889   1746363  
  8640.000000   1748248   1750126   1751607   1752429   1752530  
  8630.000000   1752074   1751418   1751014   1751277   1752448  
  8620.000000   1754527   1757278   1760314   1763212   1765641  
  8610.000000   1767442   1768644   1769414   1769961   1770439  
  8600.000000   1770910   1771324   1771584   1771597   1771352  
  8590.000000   1770929   1770479   1770184   1770188   1770578  
  8580.000000   1771338   1772388   1773594   1774814   1775924  
  8570.000000   1776845   1777547   1778062   1778460   1778842  
  8560.000000   1779308   1779942   1780784   1781825   1783004  
  8550.000000   1784222   1785372   1786338   1787026   1787356  
  8540.000000   1787298   1786852   1786084   1785102   1784075  
  8530.000000   1783192   1782627   1782508   1782890   1783753  
  8520.000000   1785012   1786562   1788303   1790162   1792081  
  8510.000000   1793996   1795826   1797464   1798801   1799762  
  8500.000000   1800348   1800651   1800834   1801087   1801555  
  8490.000000   1802291   1803220   1804178   1804954   1805371  
  8480.000000   1805328   1804839   1804011   1803014   1802019  
  8470.000000   1801177   1800579   1800276   1800268   1800540  
  8460.000000   1801062   1801800   1802705   1803721   1804790  
  8450.000000   1805850   1806842   1807693   1808346   1808737  
  8440.000000   1808838   1808645   1808210   1807640   1807080  
  8430.000000   1806696   1806613   1806917   1807607   1808633  
  8420.000000   1809873   1811200   1812481   1813609   1814496  
  8410.000000   1815058   1815220   1814918   1814131   1812882  
  8400.000000   1811262   1809427   1807589   1805977   1804792  
  8390.000000   1804178   1804194   1804814   1805914   1807306  
  8380.000000   1808759   1810048   1810998   1811512   1811613  
  8370.000000   1811411   1811102   1810872   1810860   1811101  
  8360.000000   1811530   1812017   1812421   1812677   1812816  
  8350.000000   1812974   1813319   1813986   1814987   1816184  
  8340.000000   1817309   1818051   1818170   1817576   1816379  
  8330.000000   1814853   1813363   1812247   1811703   1811751  
  8320.000000   1812240   1812920   1813532   1813889   1813921  
  8310.000000   1813677   1813274   1812849   1812491   1812243  
  8300.000000   1812103   1812067   1812148   1812387   1812826  
  8290.000000   1813482   1814294   1815127   1815776   1816032  
  8280.000000   1815747   1814882   1813532   1811887   1810176  
  8270.000000   1808582   1807195   1805998   1804895   1803788  
  8260.000000   1802635   1801493   1800490   1799786   1799476  
  8250.000000   1799564   1799922   1800352   1800655   1800703  
  8240.000000   1800492   1800123   1799749   1799491   1799379  
  8230.000000   1799333   1799195   1798817   1798128   1797182  
  8220.000000   1796135   1795177   1794446   1793961   1793596  
  8210.000000   1793134   1792350   1791117   1789463   1787576  
  8200.000000   1785732   1784211   1783189   1782705   1782654  
  8190.000000   1782844   1783067   1783152   1783001   1782567  
  8180.000000   1781843   1780829   1779540   1778018   1776350  
  8170.000000   1774694   1773237   1772177   1771634   1771631  
  8160.000000   1772049   1772681   1773262   1773553   1773380  
  8150.000000   1772649   1771352   1769511   1767191   1764462  
  8140.000000   1761446   1758306   1755269   1752586   1750479  
  8130.000000   1749093   1748431   1748378   1748713   1749202  
  8120.000000   1749644   1749927   1750030   1749985   1749845  
  8110.000000   1749620   1749293   1748795   1748081   1747129  
  8100.000000   1745982   1744724   1743452   1742254   1741170  
  8090.000000   1740216   1739374   1738644   1738030   1737554  
  8080.000000   1737218   1736978   1736741   1736354   1735664  
  8070.000000   1734547   1732964   1730981   1728761   1726535  
  8060.000000   1724547   1723020   1722099   1721845   1722212  
  8050.000000   1723064   1724185   1725302   1726132   1726414  
  8040.000000   1725979   1724765   1722868   1720500   1717970  
  8030.000000   1715600   1713660   1712311   1711571   1711342  
  8020.000000   1711440   1711677   1711888   1711980   1711918  
  8010.000000   1711710   1711370   1710895   1710265   1709445  
  8000.000000   1708432   1707254   1706005   1704813   1703814  
  7990.000000   1703116   1702751   1702682   1702795   1702951  
  7980.000000   1703016   1702892   1702541   1701955   1701160  
  7970.000000   1700175   1699019   1697711   1696302   1694879  
  7960.000000   1693577   1692546   1691913   1691743   1692006  
  7950.000000   1692588   1693316   1694008   1694525   1694788  
  7940.000000   1694785   1694545   1694110   1693514   1692789  
  7930.000000   1691978   1691157   1690444   1689976   1689869  
  7920.000000   1690158   1690778   1691548   1692226   1692569  
  7910.000000   1692408   1691703   1690542   1689124   1687672  
  7900.000000   1686391   1685397   1684719   1684307   1684071  
  7890.000000   1683921   1683793   1683674   1683583   1683570  
  7880.000000   1683690   1683988   1684477   1685132   1685881  
  7870.000000   1686610   1687195   1687527   1687547   1687277  
  7860.000000   1686805   1686272   1685805   1685484   1685294  
  7850.000000   1685142   1684880   1684380   1683574   1682490  
  7840.000000   1681237   1679963   1678798   1677810   1676991  
  7830.000000   1676277   1675593   1674889   1674172   1673491  
  7820.000000   1672913   1672485   1672201   1672018   1671864  
  7810.000000   1671683   1671455   1671208   1670997   1670868  
  7800.000000   1670829   1670827   1670765   1670520   1669993  
  7790.000000   1669136   1667967   1666564   1665043   1663535  
  7780.000000   1662158   1661010   1660152   1659609   1659363  
  7770.000000   1659349   1659459   1659560   1659521   1659247  
  7760.000000   1658706   1657944   1657071   1656232   1655560  
  7750.000000   1655140   1654988   1655044   1655203   1655342  
  7740.000000   1655351   1655157   1654725   1654061   1653193  
  7730.000000   1652175   1651069   1649951   1648892   1647961  
  7720.000000   1647198   1646620   1646203   1645898   1645638  
  7710.000000   1645358   1645002   1644536   1643941   1643216  
  7700.000000   1642372   1641435   1640449   1639472   1638574  
  7690.000000   1637820   1637256   1636885   1636676   1636554  
  7680.000000   1636436   1636245   1635940   1635518   1635020  
  7670.000000   1634501   1634028   1633651   1633401   1633287  
  7660.000000   1633296   1633404   1633572   1633754   1633903  
  7650.000000   1633974   1633938   1633778   1633501   1633117  
  7640.000000   1632651   1632114   1631522   1630887   1630234  
  7630.000000   1629605   1629060   1628659   1628450   1628443  
  7620.000000   1628604   1628865   1629142   1629368   1629507  
  7610.000000   1629569   1629596   1629640   1629742   1629908  
  7600.000000   1630122   1630340   1630526   1630646   1630689  
  7590.000000   1630647   1630522   1630316   1630039   1629721  
  7580.000000   1629409   1629172   1629087   1629209   1629562  
  7570.000000   1630109   1630772   1631436   1631998   1632381  
  7560.000000   1632567   1632585   1632511   1632441   1632472  
  7550.000000   1632684   1633126   1633808   1634705   1635752  
  7540.000000   1636871   1637966   1638963   1639800   1640454  
  7530.000000   1640923   1641234   1641415   1641503   1641532  
  7520.000000   1641553   1641637   1641876   1642373   1643206  
  7510.000000   1644399   1645901   1647590   1649299   1650849  
  7500.000000   1652111   1653019   1653602   1653940   1654156  
  7490.000000   1654360   1654652   1655097   1655748   1656638  
  7480.000000   1657788   1659197   1660829   1662608   1664431  
  7470.000000   1666180   1667767   1669147   1670344   1671429  
  7460.000000   1672504   1673665   1674985   1676487   1678159  
  7450.000000   1679949   1681793   1683615   1685349   1686935  
  7440.000000   1688345   1689584   1690702   1691783   1692928  
  7430.000000   1694231   1695753   1697502   1699435   1701480  
  7420.000000   1703556   1705601   1707583   1709486   1711307  
  7410.000000   1713030   1714630   1716072   1717341   1718444  
  7400.000000   1719437   1720393   1721403   1722537   1723838  
  7390.000000   1725315   1726953   1728728   1730613   1732592  
  7380.000000   1734640   1736734   1738840   1740925   1742966  
  7370.000000   1744953   1746886   1748759   1750555   1752231  
  7360.000000   1753734   1755016   1756066   1756925   1757684  
  7350.000000   1758468   1759391   1760530   1761888   1763409  
  7340.000000   1765002   1766584   1768100   1769542   1770928  
  7330.000000   1772286   1773632   1774959   1776250   1777494  
  7320.000000   1778696   1779883   1781090   1782344   1783647  
  7310.000000   1784977   1786293   1787559   1788752   1789875  
  7300.000000   1790937   1791949   1792906   1793796   1794605  
  7290.000000   1795348   1796061   1796808   1797647   1798612  
  7280.000000   1799677   1800771   1801783   1802615   1803214  
  7270.000000   1803596   1803842   1804063   1804368   1804815  
  7260.000000   1805406   1806080   1806759   1807367   1807878  
  7250.000000   1808307   1808724   1809208   1809839   1810661  
  7240.000000   1811688   1812893   1814242   1815686   1817210  
  7230.000000   1818803   1820483   1822256   1824133   1826084  
  7220.000000   1828082   1830067   1832014   1833900   1835770  
  7210.000000   1837682   1839735   1842001   1844535   1847320  
  7200.000000   1850308   1853406   1856549   1859690   1862849  
  7190.000000   1866066   1869412   1872926   1876622   1880455  
  7180.000000   1884373   1888304   1892224   1896119   1900018  
  7170.000000   1903935   1907886   1911843   1915784   1919672  
  7160.000000   1923520   1927361   1931278   1935345   1939639  
  7150.000000   1944185   1948982   1953982   1959139   1964390  
  7140.000000   1969714   1975092   1980540   1986061   1991674  
  7130.000000   1997371   2003160   2009017   2014949   2020929  
  7120.000000   2026965   2033035   2039149   2045297   2051494  
  7110.000000   2057736   2064034   2070385   2076803   2083296  
  7100.000000   2089904   2096667   2103640   2110846   2118281  
  7090.000000   2125874   2133526   2141100   2148489   2155622  
  7080.000000   2162513   2169225   2175878   2182576   2189413  
  7070.000000   2196422   2203602   2210921   2218342   2225834  
  7060.000000   2233371   2240932   2248488   2256015   2263490  
  7050.000000   2270913   2278307   2285705   2293131   2300575  
  7040.000000   2307981   2315261   2322315   2329089   2335581  
  7030.000000   2341873   2348077   2354325   2360691   2367193  
  7020.000000   2373765   2380314   2386727   2392939   2398920  
  7010.000000   2404703   2410329   2415866   2421350   2426821  
  7000.000000   2432287   2437758   2443209   2448617   2453922  
  6990.000000   2459076   2464018   2468737   2473241   2477594  
  6980.000000   2481851   2486080   2490287   2494459   2498537  
  6970.000000   2502477   2506243   2509854   2513339   2516753  
  6960.000000   2520108   2523409   2526607   2529672   2532567  
  6950.000000   2535309   2537923   2540460   2542944   2545380  
  6940.000000   2547727   2549944   2551989   2553858   2555571  
  6930.000000   2557183   2558747   2560325   2561950   2563661  
  6920.000000   2565470   2567401   2569448   2571601   2573802  
  6910.000000   2575981   2578045   2579922   2581561   2582955  
  6900.000000   2584124   2585103   2585923   2586605   2587160  
  6890.000000   2587612   2587994   2588374   2588816   2589384  
  6880.000000   2590097   2590944   2591867   2592806   2593706  
  6870.000000   2594545   2595323   2596065   2596788   2597500  
  6860.000000   2598195   2598862   2599499   2600114   2600719  
  6850.000000   2601323   2601916   2602476   2602972   2603398  
  6840.000000   2603771   2604147   2604586   2605140   2605811  
  6830.000000   2606551   2607269   2607870   2608283   2608497  
  6820.000000   2608549   2608517   2608479   2608492   2608572  
  6810.000000   2608709   2608872   2609044   2609212   2609376  
  6800.000000   2609521   2609628   2609654   2609562   2609323  
  6790.000000   2608950   2608478   2607969   2607477   2607041  
  6780.000000   2606657   2606305   2605938   2605522   2605032  
  6770.000000   2604466   2603830   2603140   2602403   2601627  
  6760.000000   2600809   2599950   2599046   2598100   2597110  
  6750.000000   2596081   2595017   2593934   2592849   2591784  
  6740.000000   2590746   2589731   2588713   2587657   2586531  
  6730.000000   2585324   2584049   2582743   2581451   2580206  
  6720.000000   2579014   2577861   2576716   2575557   2574381  
  6710.000000   2573208   2572069   2570984   2569946   2568923  
  6700.000000   2567862   2566714   2565456   2564100   2562682  
  6690.000000   2561251   2559839   2558460   2557094   2555719  
  6680.000000   2554310   2552864   2551391   2549916   2548451  
  6670.000000   2547009   2545579   2544152   2542714   2541258  
  6660.000000   2539777   2538259   2536682   2535022   2533256  
  6650.000000   2531384   2529430   2527445   2525480   2523582  
  6640.000000   2521756   2519986   2518223   2516424   2514560  
  6630.000000   2512629   2510648   2508639   2506611   2504560  
  6620.000000   2502465   2500313   2498106   2495875   2493665  
  6610.000000   2491522   2489469   2487501   2485583   2483671  
  6600.000000   2481724   2479725   2477680   2475610   2473538  
  6590.000000   2471483   2469458   2467470   2465533   2463659  
  6580.000000   2461858   2460122   2458421   2456708   2454934  
  6570.000000   2453067   2451111   2449109   2447132   2445252  
  6560.000000   2443523   2441956   2440527   2439184   2437872  
  6550.000000   2436544   2435177   2433761   2432299   2430791  
  6540.000000   2429247   2427677   2426107   2424570   2423106  
  6530.000000   2421737   2420471   2419283   2418131   2416969  
  6520.000000   2415768   2414519   2413242   2411969   2410735  
  6510.000000   2409560   2408453   2407405   2406403   2405435  
  6500.000000   2404487   2403549   2402608   2401651   2400672  
  6490.000000   2399676   2398680   2397711   2396790   2395927  
  6480.000000   2395107   2394296   2393453   2392548   2391568  
  6470.000000   2390525   2389444   2388352   2387263   2386179  
  6460.000000   2385097   2384017   2382954   2381932   2380973  
  6450.000000   2380083   2379242   2378410   2377537   2376589  
  6440.000000   2375566   2374500   2373443   2372444   2371530  
  6430.000000   2370691   2369890   2369085   2368251   2367389  
  6420.000000   2366531   2365716   2364974   2364309   2363702  
  6410.000000   2363115   2362515   2361881   2361207   2360498  
  6400.000000   2359760   2358993   2358194   2357366   2356525  
  6390.000000   2355702   2354933   2354247   2353645   2353107  
  6380.000000   2352587   2352043   2351446   2350800   2350129  
  6370.000000   2349463   2348821   2348195   2347550   2346845  
  6360.000000   2346048   2345158   2344203   2343232   2342291  
  6350.000000   2341411   2340588   2339802   2339019   2338214  
  6340.000000   2337375   2336512   2335639   2334776   2333932  
  6330.000000   2333113   2332314   2331529   2330745   2329947  
  6320.000000   2329111   2328210   2327215   2326117   2324917  
  6310.000000   2323644   2322332   2321021   2319726   2318451  
  6300.000000   2317168   2315852   2314470   2313014   2311477  
  6290.000000   2309872   2308201   2306471   2304675   2302821  
  6280.000000   2300915   2298985   2297055   2295154   2293287  
  6270.000000   2291448   2289605   2287731   2285797   2283797  
  6260.000000   2281729   2279606   2277433   2275214   2272944  
  6250.000000   2270632   2268292   2265960   2263672   2261458  
  6240.000000   2259318   2257228   2255132   2252972   2250698  
  6230.000000   2248296   2245785   2243209   2240625   2238079  
  6220.000000   2235599   2233196   2230858   2228572   2226320  
  6210.000000   2224090   2221866   2219635   2217384   2215105  
  6200.000000   2212797   2210469   2208140   2205829   2203552  
  6190.000000   2201313   2199113   2196942   2194799   2192681  
  6180.000000   2190595   2188544   2186527   2184539   2182566  
  6170.000000   2180599   2178631   2176664   2174706   2172762  
  6160.000000   2170837   2168928   2167030   2165138   2163255  
  6150.000000   2161388   2159550   2157745   2155973   2154223  
  6140.000000   2152486   2150754   2149034   2147340   2145693  
  6130.000000   2144105   2142577   2141090   2139622   2138145  
  6120.000000   2136653   2135151   2133668   2132229   2130863  
  6110.000000   2129577   2128370   2127222   2126121   2125051  
  6100.000000   2124015   2123012   2122050   2121124   2120233  
  6090.000000   2119369   2118532   2117722   2116954   2116235  
  6080.000000   2115582   2114990   2114460   2113972   2113516  
  6070.000000   2113074   2112641   2112212   2111799   2111409  
  6060.000000   2111072   2110806   2110645   2110604   2110699  
  6050.000000   2110915   2111235   2111622   2112049   2112491  
  6040.000000   2112948   2113421   2113930   2114474   2115056  
  6030.000000   2115657   2116267   2116878   2117505   2118172  
  6020.000000   2118919   2119770   2120737   2121802   2122927  
  6010.000000   2124060   2125157   2126182   2127122   2127978  
  6000.000000   2128769   2129512   2130237   2130966   2131727  
  5990.000000   2132537   2133413   2134351   2135339   2136349  
  5980.000000   2137358   2138348   2139326   2140311   2141341  
  5970.000000   2142449   2143661   2144979   2146398   2147896  
  5960.000000   2149461   2151083   2152769   2154521   2156342  
  5950.000000   2158216   2160122   2162023   2163895   2165716  
  5940.000000   2167487   2169219   2170936   2172661   2174418  
  5930.000000   2176222   2178081   2179997   2181963   2183963  
  5920.000000   2185975   2187970   2189922   2191809   2193623  
  5910.000000   2195365   2197048   2198683   2200287   2201867  
  5900.000000   2203434   2205001   2206587   2208215   2209907  
  5890.000000   2211674   2213514   2215410   2217338   2219278  
  5880.000000   2221221   2223169   2225137   2227130   2229149  
  5870.000000   2231165   2233147   2235051   2236854   2238547  
  5860.000000   2240157   2241723   2243299   2244932   2246662  
  5850.000000   2248508   2250481   2252578   2254792   2257108  
  5840.000000   2259507   2261967   2264465   2266983   2269508  
  5830.000000   2272035   2274558   2277071   2279558   2281996  
  5820.000000   2284361   2286634   2288809   2290897   2292907  
  5810.000000   2294859   2296746   2298562   2300273   2301862  
  5800.000000   2303306   2304627   2305842   2307004   2308134  
  5790.000000   2309262   2310362   2311407   2312323   2313050  
  5780.000000   2313508   2313647   2313416   2312809   2311832  
  5770.000000   2310540   2309007   2307336   2305626   2303975  
  5760.000000   2302443   2301064   2299837   2298750   2297781  
  5750.000000   2296920   2296161   2295505   2294953   2294496  
  5740.000000   2294126   2293826   2293597   2293434   2293357  
  5730.000000   2293367   2293477   2293667   2293925   2294217  
  5720.000000   2294528   2294838   2295155   2295481   2295834  
  5710.000000   2296215   2296634   2297086   2297578   2298112  
  5700.000000   2298700   2299347   2300057   2300821   2301626  
  5690.000000   2302455   2303292   2304132   2304968   2305797  
  5680.000000   2306609   2307391   2308119   2308776   2309344  
  5670.000000   2309817   2310185   2310449   2310594   2310614  
  5660.000000   2310494   2310239   2309863   2309404   2308898  
  5650.000000   2308390   2307898   2307429   2306967   2306498  
  5640.000000   2306008   2305501   2304987   2304485   2304003  
  5630.000000   2303539   2303077   2302600   2302093   2301559  
  5620.000000   2301013   2300476   2299968   2299496   2299054  
  5610.000000   2298630   2298205   2297768   2297311   2296834  
  5600.000000   2296334   2295805   2295235   2294615   2293940  
  5590.000000   2293212   2292439   2291636   2290805   2289952  
  5580.000000   2289073   2288173   2287256   2286337   2285427  
  5570.000000   2284532   2283639   2282720   2281740   2280668  
  5560.000000   2279492   2278223   2276894   2275551   2274232  
  5550.000000   2272962   2271746   2270578   2269443   2268335  
  5540.000000   2267254   2266206   2265196   2264222   2263277  
  5530.000000   2262345   2261415   2260479   2259534   2258581  
  5520.000000   2257621   2256651   2255667   2254666   2253650  
  5510.000000   2252625   2251600   2250581   2249565   2248546  
  5500.000000   2247513   2246466   2245411   2244371   2243363  
  5490.000000   2242402   2241474   2240549   2239579   2238522  
  5480.000000   2237345   2236044   2234632   2233141   2231595  
  5470.000000   2230015   2228403   2226760   2225078   2223362  
  5460.000000   2221612   2219837   2218032   2216191   2214299  
  5450.000000   2212351   2210350   2208320   2206292   2204302  
  5440.000000   2202374   2200520   2198739   2197022   2195368  
  5430.000000   2193771   2192234   2190743   2189288   2187838  
  5420.000000   2186385   2184923   2183485   2182114   2180876  
  5410.000000   2179806   2178926   2178206   2177619   2177117  
  5400.000000   2176692   2176341   2176101   2175987   2176028  
  5390.000000   2176202   2176503   2176893   2177383   2177976  
  5380.000000   2178722   2179642   2180773   2182090   2183582  
  5370.000000   2185193   2186917   2188725   2190658   2192716  
  5360.000000   2194958   2197378   2200025   2202888   2206035  
  5350.000000   2209475   2213303   2217526   2222212   2227319  
  5340.000000   2232868   2238784   2245098   2251759   2258838  
  5330.000000   2266303   2274228   2282564   2291373   2300603  
  5320.000000   2310343   2320579   2331439   2342919   2355139  
  5310.000000   2368050   2381721   2396059   2411117   2426822  
  5300.000000   2443267   2460426   2478436   2497296   2517135  
  5290.000000   2537916   2559692   2582336   2605799   2629897  
  5280.000000   2654571   2679711   2705372   2731584   2758487  
  5270.000000   2786121   2814505   2843496   2872885   2902400  
  5260.000000   2931809   2960984   2989896   3018626   3047228  
  5250.000000   3075746   3104053   3132000   3159288   3185753  
  5240.000000   3211194   3235659   3259157   3281896   3303934  
  5230.000000   3325438   3346338   3366653   3386187   3404902  
  5220.000000   3422628   3439425   3455248   3470277   3484540  
  5210.000000   3498218   3511272   3523762   3535526   3546544  
  5200.000000   3556650   3565900   3574247   3581853   3588733  
  5190.000000   3595035   3600710   3605817   3610244   3614031  
  5180.000000   3617099   3619544   3621342   3622604   3623294  
  5170.000000   3623480   3623096   3622200   3620754   3618852  
  5160.000000   3616489   3613758   3610638   3607179   3603330  
  5150.000000   3599132   3594556   3589671   3584480   3579057  
  5140.000000   3573393   3567531   3561442   3555159   3548672  
  5130.000000   3542033   3535253   3528382   3521421   3514392  
  5120.000000   3507273   3500077   3492790   3485439   3478025  
  5110.000000   3470579   3463097   3455597   3448070   3440533  
  5100.000000   3432988   3425454   3417932   3410427   3402918  
  5090.000000   3395387   3387808   3380176   3372494   3364788  
  5080.000000   3357082   3349405   3341759   3334143   3326531  
  5070.000000   3318907   3311247   3303553   3295823   3288076  
  5060.000000   3280318   3272564   3264817   3257086   3249373  
  5050.000000   3241683   3234015   3226361   3218708   3211037  
  5040.000000   3203331   3195582   3187801   3180007   3172236  
  5030.000000   3164520   3156892   3149364   3141949   3134641  
  5020.000000   3127446   3120361   3113401   3106567   3099878  
  5010.000000   3093325   3086917   3080635   3074486   3068454  
  5000.000000   3062565   3056813   3051238   3045842   3040667  
  4990.000000   3035709   3031008   3026553   3022380   3018468  
  4980.000000   3014843   3011472   3008378   3005527   3002956  
  4970.000000   3000648   2998661   2996987   2995682   2994725  
  4960.000000   2994148   2993905   2994018   2994438   2995196  
  4950.000000   2996261   2997676   2999416   3001519   3003949  
  4940.000000   3006732   3009825   3013252   3016969   3021000  
  4930.000000   3025301   3029889   3034717   3039800   3045100  
  4920.000000   3050641   3056401   3062412   3068654   3075147  
  4910.000000   3081859   3088792   3095905   3103188   3110603  
  4900.000000   3118142   3125775   3133503   3141308   3149196  
  4890.000000   3157158   3165194   3173288   3181418   3189552  
  4880.000000   3197652   3205684   3213617   3221437   3229132  
  4870.000000   3236708   3244157   3251487   3258684   3265753  
  4860.000000   3272678   3279469   3286113   3292618   3298966  
  4850.000000   3305159   3311172   3317015   3322676   3328187  
  4840.000000   3333560   3338840   3344033   3349167   3354221  
  4830.000000   3359198   3364058   3368791   3373361   3377763  
  4820.000000   3381969   3385981   3389780   3393381   3396780  
  4810.000000   3400004   3403063   3405987   3408779   3411460  
  4800.000000   3414021   3416478   3418829   3421102   3423307  
  4790.000000   3425477   3427614   3429735   3431818   3433858  
  4780.000000   3435823   3437709   3439497   3441193   3442786  
  4770.000000   3444284   3445666   3446934   3448063   3449059  
  4760.000000   3449905   3450619   3451189   3451628   3451916  
  4750.000000   3452055   3452013   3451793   3451370   3450760  
  4740.000000   3449955   3448982   3447837   3446541   3445083  
  4730.000000   3443476   3441700   3439765   3437661   3435404  
  4720.000000   3432997   3430468   3427830   3425118   3422349  
  4710.000000   3419556   3416754   3413966   3411198   3408458  
  4700.000000   3405742   3403049   3400374   3397721   3395091  
  4690.000000   3392495   3389940   3387432   3384967   3382529  
  4680.000000   3380098   3377643   3375139   3372565   3369919  
  4670.000000   3367204   3364444   3361658   3358879   3356122  
  4660.000000   3353414   3350768   3348211   3345763   3343462  
  4650.000000   3341331   3339402   3337680   3336168   3334842  
  4640.000000   3333682   3332651   3331732   3330900   3330154  
  4630.000000   3329479   3328874   3328316   3327794   3327278  
  4620.000000   3326761   3326225   3325678   3325121   3324567  
  4610.000000   3324017   3323475   3322936   3322399   3321866  
  4600.000000   3321345   3320850   3320394   3319985   3319622  
  4590.000000   3319297   3318995   3318700   3318398   3318082  
  4580.000000   3317743   3317380   3316984   3316551   3316072  
  4570.000000   3315545   3314965   3314336   3313654   3312921  
  4560.000000   3312131   3311283   3310373   3309407   3308394  
  4550.000000   3307348   3306281   3305199   3304099   3302971  
  4540.000000   3301810   3300612   3299396   3298181   3297010  
  4530.000000   3295908   3294912   3294022   3293257   3292599  
  4520.000000   3292069   3291657   3291406   3291320   3291459  
  4510.000000   3291826   3292492   3293459   3294809   3296548  
  4500.000000   3298767   3301464   3304716   3308494   3312853  
  4490.000000   3317746   3323226   3329253   3335892   3343114  
  4480.000000   3350981   3359448   3368556   3378240   3388516  
  4470.000000   3399310   3410621   3422366   3434525   3447006  
  4460.000000   3459774   3472740   3485868   3499091   3512387  
  4450.000000   3525709   3539043   3552358   3565639   3578871  
  4440.000000   3592033   3605122   3618102   3630968   3643662  
  4430.000000   3656178   3668451   3680493   3692246   3703742  
  4420.000000   3714918   3725797   3736279   3746349   3755867  
  4410.000000   3764794   3772979   3780396   3786925   3792578  
  4400.000000   3797277   3801071   3803930   3805933   3807096  
  4390.000000   3807534   3807307   3806556   3805369   3803888  
  4380.000000   3802203   3800435   3798671   3797018   3795573  
  4370.000000   3794440   3793728   3793529   3793936   3794995  
  4360.000000   3796750   3799181   3802268   3805934   3810111  
  4350.000000   3814701   3819632   3824835   3830279   3835951  
  4340.000000   3841858   3847995   3854318   3860711   3866978  
  4330.000000   3872841   3877981   3882098   3884969   3886523  
  4320.000000   3886848   3886216   3884984   3883581   3882351  
  4310.000000   3881577   3881355   3881701   3882481   3883567  
  4300.000000   3884778   3886007   3887148   3888163   3889019  
  4290.000000   3889708   3890226   3890576   3890774   3890846  
  4280.000000   3890829   3890776   3890731   3890763   3890906  
  4270.000000   3891222   3891715   3892390   3893171   3893959  
  4260.000000   3894576   3894840   3894558   3893597   3891892  
  4250.000000   3889483   3886491   3883114   3879561   3876043  
  4240.000000   3872715   3869688   3866991   3864623   3862528  
  4230.000000   3860642   3858882   3857174   3855450   3853655  
  4220.000000   3851769   3849783   3847736   3845662   3843633  
  4210.000000   3841694   3839907   3838297   3836898   3835713  
  4200.000000   3834761   3834029   3833524   3833211   3833074  
  4190.000000   3833053   3833126   3833232   3833381   3833548  
  4180.000000   3833791   3834119   3834620   3835312   3836289  
  4170.000000   3837574   3839269   3841406   3844095   3847358  
  4160.000000   3851278   3855830   3861045   3866844   3873227  
  4150.000000   3880098   3887465   3895250   3903485   3912115  
  4140.000000   3921193   3930679   3940635   3951023   3961896  
  4130.000000   3973203   3984974   3997147   4009741   4022702  
  4120.000000   4036059   4049779   4063900   4078392   4093278  
  4110.000000   4108515   4124103   4139988   4156162   4172572  
  4100.000000   4189206   4206013   4222977   4240054   4257237  
  4090.000000   4274507   4291870   4309333   4326905   4344599  
  4080.000000   4362411   4380351   4398397   4416550   4434763  
  4070.000000   4453015   4471225   4489352   4507297   4525036  
  4060.000000   4542490   4559670   4576516   4593053   4609207  
  4050.000000   4624999   4640340   4655269   4669706   4683707  
  4040.000000   4697183   4710169   4722529   4734270   4745231  
  4030.000000   4755431   4764729   4773164   4780619   4787128  
  4020.000000   4792551   4796940   4800248   4802568   4803840  
  4010.000000   4804237   4803849   4802734   4800674   4797801  
  4000.000000   4794523  
##END= 
