##TITLE= Sample 020 By ssteindl date Dienstag, November 20 2018
##JCAMP-DX= 4.24
##DATA TYPE= INFRARED SPECTRUM
##ORIGIN= Exported PE Spectrum Data File
##OWNER= Sandra Steindl
##DATE= 18/11/20
##TIME= 17:14:02.00
##SPECTROMETER/DATA SYSTEM= PERKIN-ELMER Frontier FT-IR/NIR IR
##INSTRUMENT PARAMETERS=
  APODIZATION=stark
  DETECTOR=INGAAS
##RESOLUTION= 16.000000
##DELTAX= -2.000000
##XUNITS= 1/CM
##YUNITS= A
##XFACTOR= 1.00
##YFACTOR= 0.00000011920928955078
##FIRSTX= 10000.00
##LASTX= 4000.00
##NPOINTS= 3001
##FIRSTY= 0.247808
##MAXY= 0.555183
##MINY= 0.204220
##XYDATA= (X++(Y..Y))
 10000.000000   2078763   2078766   2078517   2078129   2078388  
  9990.000000   2079891   2082194   2084094   2084497   2082939  
  9980.000000   2079471   2074673   2069519   2065127   2062365  
  9970.000000   2061694   2063069   2065949   2069354   2072082  
  9960.000000   2073025   2071393   2067057   2060534   2053018  
  9950.000000   2045976   2040755   2038115   2037977   2039545  
  9940.000000   2041666   2043419   2044513   2045423   2047126  
  9930.000000   2050577   2056165   2063368   2070809   2076656  
  9920.000000   2079319   2078017   2073161   2066193   2059137  
  9910.000000   2053932   2051839   2053133   2057076   2062234  
  9900.000000   2066951   2069823   2070064   2067628   2063110  
  9890.000000   2057556   2052109   2047805   2045329   2044975  
  9880.000000   2046664   2050042   2054565   2059630   2064572  
  9870.000000   2068813   2071820   2073281   2073088   2071419  
  9860.000000   2068687   2065409   2062091   2059012   2056208  
  9850.000000   2053415   2050277   2046463   2041886   2036737  
  9840.000000   2031413   2026380   2021977   2018393   2015671  
  9830.000000   2013892   2013248   2014085   2016716   2021225  
  9820.000000   2027262   2034005   2040392   2045357   2048286  
  9810.000000   2049049   2048109   2046103   2043650   2040993  
  9800.000000   2038093   2034768   2031038   2027345   2024484  
  9790.000000   2023433   2024811   2028701   2034403   2040799  
  9780.000000   2046651   2051113   2053931   2055386   2056016  
  9770.000000   2056199   2055951   2054908   2052617   2048874  
  9760.000000   2043968   2038679   2033994   2030757   2029294  
  9750.000000   2029359   2030222   2031034   2031130   2030237  
  9740.000000   2028474   2026156   2023604   2020988   2018376  
  9730.000000   2015872   2013766   2012561   2012815   2014912  
  9720.000000   2018771   2023840   2029119   2033570   2036338  
  9710.000000   2037091   2036031   2033742   2030978   2028263  
  9700.000000   2025816   2023381   2020448   2016391   2010783  
  9690.000000   2003541   1995060   1986184   1978080   1972030  
  9680.000000   1969093   1969845   1974109   1980988   1989031  
  9670.000000   1996665   2002615   2006285   2007871   2008215  
  9660.000000   2008452   2009522   2011880   2015263   2018910  
  9650.000000   2021741   2022824   2021574   2017946   2012374  
  9640.000000   2005571   1998413   1991667   1986043   1981996  
  9630.000000   1979831   1979549   1980930   1983515   1986721  
  9620.000000   1989954   1992694   1994576   1995333   1994831  
  9610.000000   1992967   1989806   1985544   1980705   1976044  
  9600.000000   1972510   1970967   1971903   1975247   1980282  
  9590.000000   1985914   1990969   1994624   1996620   1997282  
  9580.000000   1997290   1997319   1997755   1998536   1999284  
  9570.000000   1999510   1998930   1997570   1995787   1994061  
  9560.000000   1992767   1992025   1991614   1991181   1990348  
  9550.000000   1989003   1987291   1985631   1984502   1984300  
  9540.000000   1985195   1987088   1989641   1992339   1994588  
  9530.000000   1995778   1995425   1993246   1989335   1984178  
  9520.000000   1978649   1973801   1970575   1969509   1970528  
  9510.000000   1972989   1975891   1978252   1979435   1979359  
  9500.000000   1978432   1977354   1976731   1976861   1977574  
  9490.000000   1978416   1978882   1978718   1978057   1977323  
  9480.000000   1977014   1977392   1978308   1979192   1979227  
  9470.000000   1977648   1974058   1968580   1961901   1955046  
  9460.000000   1949104   1944921   1942895   1942938   1944541  
  9450.000000   1946991   1949558   1951690   1953116   1953842  
  9440.000000   1954104   1954213   1954468   1955004   1955818  
  9430.000000   1956735   1957532   1957994   1958009   1957641  
  9420.000000   1957077   1956631   1956563   1957052   1958061  
  9410.000000   1959377   1960639   1961434   1961404   1960301  
  9400.000000   1958055   1954755   1950639   1946053   1941411  
  9390.000000   1937169   1933748   1931500   1930586   1930981  
  9380.000000   1932396   1934391   1936408   1937976   1938791  
  9370.000000   1938818   1938266   1937435   1936617   1935894  
  9360.000000   1935178   1934163   1932521   1929994   1926562  
  9350.000000   1922486   1918253   1914468   1911650   1910128  
  9340.000000   1909957   1910948   1912767   1914994   1917230  
  9330.000000   1919084   1920227   1920403   1919502   1917614  
  9320.000000   1915091   1912519   1910647   1910160   1911477  
  9310.000000   1914532   1918749   1923183   1926762   1928624  
  9300.000000   1928320   1925989   1922259   1918081   1914392  
  9290.000000   1911875   1910816   1911102   1912328   1913904  
  9280.000000   1915191   1915619   1914803   1912631   1909277  
  9270.000000   1905168   1900919   1897215   1894686   1893715  
  9260.000000   1894344   1896240   1898836   1901504   1903735  
  9250.000000   1905271   1906122   1906516   1906767   1907124  
  9240.000000   1907688   1908400   1909115   1909687   1910029  
  9230.000000   1910150   1910112   1910002   1909858   1909666  
  9220.000000   1909355   1908824   1907980   1906725   1905013  
  9210.000000   1902828   1900225   1897329   1894330   1891526  
  9200.000000   1889249   1887854   1887594   1888593   1890796  
  9190.000000   1893978   1897751   1901612   1905005   1907422  
  9180.000000   1908489   1908025   1906104   1903081   1899584  
  9170.000000   1896344   1894029   1893033   1893373   1894655  
  9160.000000   1896157   1897048   1896646   1894670   1891338  
  9150.000000   1887294   1883412   1880524   1879187   1879518  
  9140.000000   1881176   1883527   1885877   1887719   1888861  
  9130.000000   1889463   1889909   1890628   1891896   1893692  
  9120.000000   1895719   1897443   1898334   1897987   1896322  
  9110.000000   1893568   1890202   1886839   1884039   1882236  
  9100.000000   1881620   1882195   1883786   1886101   1888735  
  9090.000000   1891249   1893199   1894211   1894026   1892618  
  9080.000000   1890250   1887419   1884739   1882758   1881819  
  9070.000000   1881927   1882739   1883702   1884245   1883990  
  9060.000000   1882840   1880989   1878815   1876717   1874973  
  9050.000000   1873653   1872667   1871837   1871022   1870173  
  9040.000000   1869346   1868670   1868285   1868291   1868720  
  9030.000000   1869534   1870668   1871980   1873299   1874377  
  9020.000000   1874991   1874930   1874118   1872662   1870879  
  9010.000000   1869242   1868208   1868140   1869174   1871215  
  9000.000000   1873957   1877001   1879955   1882495   1884346  
  8990.000000   1885281   1885119   1883746   1881199   1877733  
  8980.000000   1873877   1870321   1867742   1866586   1866901  
  8970.000000   1868312   1870097   1871480   1871876   1871128  
  8960.000000   1869502   1867569   1865957   1865092   1865071  
  8950.000000   1865640   1866380   1866884   1866950   1866613  
  8940.000000   1866082   1865619   1865373   1865375   1865511  
  8930.000000   1865656   1865734   1865780   1865891   1866126  
  8920.000000   1866421   1866557   1866234   1865172   1863254  
  8910.000000   1860575   1857470   1854348   1851587   1849374  
  8900.000000   1847703   1846416   1845328   1844354   1843580  
  8890.000000   1843232   1843570   1844768   1846811   1849485  
  8880.000000   1852429   1855259   1857712   1859662   1861149  
  8870.000000   1862266   1863121   1863721   1863997   1863830  
  8860.000000   1863164   1862058   1860706   1859390   1858388  
  8850.000000   1857889   1857909   1858329   1858913   1859451  
  8840.000000   1859788   1859908   1859869   1859797   1859800  
  8830.000000   1859939   1860222   1860596   1861009   1861372  
  8820.000000   1861604   1861577   1861158   1860211   1858674  
  8810.000000   1856617   1854283   1852079   1850473   1849885  
  8800.000000   1850524   1852354   1855060   1858165   1861121  
  8790.000000   1863490   1865021   1865683   1865625   1865067  
  8780.000000   1864245   1863306   1862326   1861279   1860112  
  8770.000000   1858753   1857161   1855345   1853375   1851409  
  8760.000000   1849662   1848394   1847828   1848105   1849201  
  8750.000000   1850925   1852937   1854838   1856297   1857133  
  8740.000000   1857400   1857309   1857190   1857305   1857801  
  8730.000000   1858618   1859560   1860361   1860815   1860859  
  8720.000000   1860611   1860345   1860377   1861001   1862348  
  8710.000000   1864387   1866898   1869553   1871997   1873931  
  8700.000000   1875178   1875703   1875605   1875064   1874280  
  8690.000000   1873407   1872533   1871678   1870843   1870045  
  8680.000000   1869356   1868899   1868799   1869143   1869895  
  8670.000000   1870917   1871971   1872827   1873339   1873516  
  8660.000000   1873538   1873672   1874179   1875179   1876599  
  8650.000000   1878171   1879525   1880317   1880363   1879705  
  8640.000000   1878605   1877447   1876613   1876361   1876746  
  8630.000000   1877622   1878692   1879619   1880139   1880148  
  8620.000000   1879722   1879093   1878554   1878375   1878699  
  8610.000000   1879515   1880659   1881865   1882873   1883488  
  8600.000000   1883681   1883545   1883279   1883071   1883034  
  8590.000000   1883153   1883302   1883326   1883131   1882766  
  8580.000000   1882426   1882426   1883072   1884559   1886843  
  8570.000000   1889647   1892519   1894949   1896525   1897022  
  8560.000000   1896483   1895158   1893443   1891747   1890400  
  8550.000000   1889588   1889330   1889529   1890028   1890686  
  8540.000000   1891411   1892166   1892939   1893715   1894443  
  8530.000000   1895033   1895390   1895451   1895259   1894958  
  8520.000000   1894787   1894996   1895773   1897153   1898998  
  8510.000000   1901026   1902907   1904364   1905255   1905604  
  8500.000000   1905571   1905373   1905194   1905145   1905254  
  8490.000000   1905498   1905842   1906280   1906825   1907488  
  8480.000000   1908222   1908931   1909475   1909739   1909670  
  8470.000000   1909321   1908824   1908336   1907975   1907771  
  8460.000000   1907684   1907643   1907607   1907607   1907731  
  8450.000000   1908079   1908675   1909443   1910208   1910769  
  8440.000000   1911008   1910944   1910751   1910664   1910884  
  8430.000000   1911457   1912258   1913028   1913502   1913540  
  8420.000000   1913196   1912719   1912419   1912572   1913274  
  8410.000000   1914449   1915865   1917274   1918492   1919469  
  8400.000000   1920249   1920894   1921397   1921647   1921470  
  8390.000000   1920701   1919299   1917376   1915211   1913138  
  8380.000000   1911462   1910350   1909812   1909736   1909952  
  8370.000000   1910326   1910796   1911389   1912161   1913172  
  8360.000000   1914424   1915885   1917481   1919144   1920805  
  8350.000000   1922398   1923857   1925090   1926003   1926481  
  8340.000000   1926430   1925780   1924513   1922651   1920259  
  8330.000000   1917454   1914423   1911444   1908840   1906953  
  8320.000000   1906026   1906164   1907260   1909017   1911009  
  8310.000000   1912796   1914053   1914630   1914572   1914048  
  8300.000000   1913286   1912493   1911824   1911380   1911232  
  8290.000000   1911447   1912078   1913138   1914544   1916094  
  8280.000000   1917469   1918312   1918325   1917361   1915472  
  8270.000000   1912891   1909984   1907149   1904737   1902989  
  8260.000000   1901998   1901745   1902098   1902867   1903807  
  8250.000000   1904666   1905219   1905315   1904922   1904118  
  8240.000000   1903088   1902042   1901169   1900563   1900219  
  8230.000000   1900050   1899949   1899854   1899768   1899769  
  8220.000000   1899926   1900273   1900742   1901185   1901408  
  8210.000000   1901243   1900604   1899517   1898093   1896492  
  8200.000000   1894848   1893252   1891732   1890285   1888906  
  8190.000000   1887605   1886400   1885295   1884249   1883179  
  8180.000000   1881977   1880575   1878974   1877290   1875723  
  8170.000000   1874504   1873818   1873724   1874126   1874785  
  8160.000000   1875396   1875668   1875412   1874571   1873230  
  8150.000000   1871564   1869783   1868072   1866550   1865268  
  8140.000000   1864209   1863331   1862568   1861869   1861178  
  8130.000000   1860461   1859681   1858815   1857847   1856759  
  8120.000000   1855539   1854159   1852598   1850830   1848860  
  8110.000000   1846727   1844523   1842386   1840474   1838943  
  8100.000000   1837893   1837357   1837275   1837519   1837909  
  8090.000000   1838258   1838411   1838251   1837733   1836852  
  8080.000000   1835660   1834229   1832660   1831052   1829510  
  8070.000000   1828116   1826932   1825985   1825271   1824765  
  8060.000000   1824423   1824197   1824034   1823879   1823672  
  8050.000000   1823345   1822841   1822117   1821179   1820077  
  8040.000000   1818912   1817808   1816876   1816185   1815734  
  8030.000000   1815467   1815287   1815100   1814843   1814501  
  8020.000000   1814090   1813629   1813117   1812514   1811764  
  8010.000000   1810813   1809656   1808352   1807019   1805807  
  8000.000000   1804846   1804212   1803897   1803824   1803868  
  7990.000000   1803901   1803817   1803549   1803067   1802364  
  7980.000000   1801459   1800382   1799197   1797984   1796846  
  7970.000000   1795876   1795131   1794612   1794256   1793977  
  7960.000000   1793686   1793354   1793005   1792722   1792588  
  7950.000000   1792645   1792853   1793083   1793167   1792939  
  7940.000000   1792315   1791305   1790027   1788645   1787323  
  7930.000000   1786164   1785201   1784399   1783705   1783085  
  7920.000000   1782542   1782128   1781901   1781910   1782155  
  7910.000000   1782594   1783157   1783759   1784331   1784812  
  7900.000000   1785150   1785288   1785173   1784760   1784051  
  7890.000000   1783106   1782053   1781069   1780321   1779921  
  7880.000000   1779877   1780083   1780346   1780454   1780235  
  7870.000000   1779623   1778662   1777496   1776310   1775280  
  7860.000000   1774520   1774067   1773895   1773930   1774089  
  7850.000000   1774289   1774459   1774530   1774435   1774122  
  7840.000000   1773568   1772804   1771923   1771073   1770420  
  7830.000000   1770099   1770166   1770579   1771191   1771801  
  7820.000000   1772203   1772248   1771875   1771128   1770119  
  7810.000000   1768997   1767892   1766889   1766007   1765216  
  7800.000000   1764453   1763657   1762789   1761848   1760865  
  7790.000000   1759895   1758991   1758191   1757501   1756902  
  7780.000000   1756355   1755818   1755270   1754715   1754185  
  7770.000000   1753722   1753360   1753105   1752927   1752770  
  7760.000000   1752568   1752274   1751879   1751404   1750898  
  7750.000000   1750401   1749923   1749435   1748876   1748182  
  7740.000000   1747319   1746303   1745203   1744120   1743154  
  7730.000000   1742377   1741807   1741425   1741175   1741011  
  7720.000000   1740894   1740808   1740742   1740681   1740591  
  7710.000000   1740419   1740110   1739610   1738898   1737975  
  7700.000000   1736876   1735655   1734386   1733156   1732063  
  7690.000000   1731211   1730686   1730537   1730741   1731201  
  7680.000000   1731750   1732194   1732360   1732149   1731566  
  7670.000000   1730709   1729738   1728824   1728096   1727617  
  7660.000000   1727373   1727299   1727306   1727307   1727229  
  7650.000000   1727016   1726621   1726004   1725138   1724016  
  7640.000000   1722672   1721181   1719660   1718245   1717072  
  7630.000000   1716249   1715833   1715830   1716180   1716784  
  7620.000000   1717503   1718189   1718710   1718968   1718930  
  7610.000000   1718620   1718125   1717543   1716975   1716467  
  7600.000000   1716028   1715616   1715189   1714720   1714226  
  7590.000000   1713759   1713387   1713169   1713120   1713217  
  7580.000000   1713408   1713645   1713907   1714211   1714602  
  7570.000000   1715122   1715787   1716559   1717360   1718089  
  7560.000000   1718663   1719027   1719179   1719141   1718966  
  7550.000000   1718697   1718383   1718067   1717798   1717630  
  7540.000000   1717614   1717789   1718157   1718693   1719345  
  7530.000000   1720056   1720782   1721501   1722213   1722906  
  7520.000000   1723557   1724105   1724484   1724639   1724580  
  7510.000000   1724382   1724192   1724180   1724495   1725203  
  7500.000000   1726267   1727543   1728834   1729942   1730738  
  7490.000000   1731187   1731357   1731391   1731468   1731749  
  7480.000000   1732338   1733261   1734473   1735872   1737332  
  7470.000000   1738729   1739969   1741002   1741827   1742478  
  7460.000000   1743019   1743504   1743989   1744498   1745055  
  7450.000000   1745663   1746341   1747111   1748007   1749065  
  7440.000000   1750314   1751768   1753420   1755255   1757245  
  7430.000000   1759355   1761544   1763757   1765933   1767995  
  7420.000000   1769876   1771516   1772886   1773986   1774852  
  7410.000000   1775546   1776141   1776713   1777333   1778055  
  7400.000000   1778914   1779918   1781043   1782242   1783441  
  7390.000000   1784573   1785591   1786497   1787341   1788216  
  7380.000000   1789226   1790455   1791929   1793608   1795400  
  7370.000000   1797191   1798876   1800389   1801715   1802880  
  7360.000000   1803933   1804919   1805879   1806835   1807809  
  7350.000000   1808815   1809877   1811009   1812213   1813470  
  7340.000000   1814740   1815983   1817166   1818285   1819365  
  7330.000000   1820457   1821613   1822879   1824266   1825760  
  7320.000000   1827322   1828903   1830450   1831922   1833283  
  7310.000000   1834508   1835577   1836484   1837229   1837824  
  7300.000000   1838286   1838640   1838907   1839114   1839285  
  7290.000000   1839450   1839639   1839884   1840209   1840620  
  7280.000000   1841103   1841625   1842141   1842617   1843035  
  7270.000000   1843414   1843802   1844265   1844868   1845654  
  7260.000000   1846631   1847755   1848956   1850131   1851188  
  7250.000000   1852042   1852663   1853054   1853282   1853439  
  7240.000000   1853646   1854003   1854586   1855410   1856461  
  7230.000000   1857683   1859026   1860450   1861951   1863536  
  7220.000000   1865230   1867034   1868935   1870885   1872848  
  7210.000000   1874783   1876703   1878634   1880648   1882790  
  7200.000000   1885096   1887539   1890070   1892608   1895104  
  7190.000000   1897533   1899937   1902390   1904997   1907835  
  7180.000000   1910952   1914325   1917891   1921534   1925150  
  7170.000000   1928632   1931943   1935074   1938091   1941066  
  7160.000000   1944104   1947269   1950613   1954137   1957841  
  7150.000000   1961709   1965756   1970003   1974493   1979243  
  7140.000000   1984246   1989428   1994695   1999915   2005008  
  7130.000000   2009918   2014678   2019340   2024006   2028739  
  7120.000000   2033593   2038564   2043647   2048827   2054126  
  7110.000000   2059578   2065233   2071116   2077228   2083517  
  7100.000000   2089925   2096368   2102803   2109186   2115511  
  7090.000000   2121750   2127890   2133902   2139796   2145615  
  7080.000000   2151470   2157503   2163862   2170635   2177818  
  7070.000000   2185298   2192888   2200380   2207614   2214504  
  7060.000000   2221056   2227330   2233409   2239356   2245220  
  7050.000000   2251031   2256835   2262695   2268687   2274881  
  7040.000000   2281289   2287878   2294545   2301181   2307682  
  7030.000000   2314010   2320180   2326252   2332287   2338314  
  7020.000000   2344313   2350226   2355981   2361536   2366884  
  7010.000000   2372073   2377167   2382247   2387356   2392535  
  7000.000000   2397776   2403074   2408385   2413671   2418855  
  6990.000000   2423864   2428609   2433040   2437136   2440942  
  6980.000000   2444527   2447991   2451400   2454802   2458188  
  6970.000000   2461544   2464846   2468113   2471367   2474663  
  6960.000000   2478013   2481415   2484798   2488083   2491173  
  6950.000000   2494024   2496620   2499008   2501244   2503400  
  6940.000000   2505507   2507586   2509611   2511563   2513406  
  6930.000000   2515125   2516700   2518134   2519430   2520613  
  6920.000000   2521706   2522755   2523788   2524834   2525895  
  6910.000000   2526967   2528033   2529096   2530164   2531269  
  6900.000000   2532425   2533638   2534867   2536052   2537119  
  6890.000000   2538018   2538743   2539334   2539861   2540388  
  6880.000000   2540944   2541513   2542041   2542473   2542779  
  6870.000000   2542986   2543164   2543410   2543800   2544370  
  6860.000000   2545099   2545924   2546766   2547550   2548226  
  6850.000000   2548764   2549155   2549399   2549505   2549505  
  6840.000000   2549452   2549427   2549515   2549786   2550260  
  6830.000000   2550909   2551647   2552373   2552991   2553441  
  6820.000000   2553697   2553768   2553668   2553416   2553023  
  6810.000000   2552513   2551927   2551342   2550838   2550498  
  6800.000000   2550351   2550383   2550515   2550648   2550681  
  6790.000000   2550557   2550256   2549802   2549228   2548565  
  6780.000000   2547824   2547008   2546119   2545180   2544228  
  6770.000000   2543311   2542456   2541672   2540927   2540188  
  6760.000000   2539417   2538606   2537772   2536946   2536154  
  6750.000000   2535391   2534622   2533795   2532857   2531789  
  6740.000000   2530605   2529360   2528122   2526958   2525907  
  6730.000000   2524987   2524192   2523505   2522898   2522341  
  6720.000000   2521787   2521179   2520449   2519538   2518411  
  6710.000000   2517075   2515578   2514000   2512427   2510935  
  6700.000000   2509561   2508318   2507180   2506113   2505063  
  6690.000000   2503986   2502827   2501544   2500101   2498487  
  6680.000000   2496715   2494835   2492911   2491016   2489199  
  6670.000000   2487483   2485854   2484273   2482691   2481071  
  6660.000000   2479390   2477650   2475861   2474049   2472233  
  6650.000000   2470438   2468682   2466976   2465320   2463692  
  6640.000000   2462053   2460353   2458546   2456615   2454575  
  6630.000000   2452484   2450416   2448446   2446614   2444919  
  6620.000000   2443317   2441744   2440140   2438470   2436731  
  6610.000000   2434945   2433138   2431324   2429497   2427635  
  6600.000000   2425710   2423711   2421646   2419542   2417437  
  6590.000000   2415363   2413338   2411363   2409427   2407514  
  6580.000000   2405611   2403713   2401825   2399957   2398127  
  6570.000000   2396352   2394647   2393023   2391480   2390003  
  6560.000000   2388567   2387135   2385677   2384165   2382595  
  6550.000000   2380970   2379309   2377627   2375941   2374260  
  6540.000000   2372600   2370979   2369428   2367976   2366647  
  6530.000000   2365440   2364333   2363282   2362239   2361166  
  6520.000000   2360049   2358891   2357711   2356523   2355334  
  6510.000000   2354138   2352930   2351717   2350528   2349402  
  6500.000000   2348376   2347464   2346640   2345847   2345011  
  6490.000000   2344070   2343004   2341836   2340631   2339461  
  6480.000000   2338382   2337407   2336509   2335632   2334716  
  6470.000000   2333725   2332651   2331517   2330362   2329233  
  6460.000000   2328167   2327190   2326318   2325554   2324886  
  6450.000000   2324282   2323693   2323053   2322305   2321407  
  6440.000000   2320357   2319191   2317972   2316769   2315637  
  6430.000000   2314601   2313655   2312776   2311935   2311120  
  6420.000000   2310332   2309583   2308885   2308239   2307632  
  6410.000000   2307045   2306456   2305849   2305216   2304548  
  6400.000000   2303842   2303086   2302272   2301401   2300488  
  6390.000000   2299562   2298661   2297820   2297054   2296363  
  6380.000000   2295727   2295122   2294521   2293913   2293292  
  6370.000000   2292657   2292003   2291321   2290602   2289844  
  6360.000000   2289057   2288261   2287478   2286717   2285970  
  6350.000000   2285209   2284399   2283514   2282549   2281526  
  6340.000000   2280482   2279461   2278490   2277583   2276732  
  6330.000000   2275926   2275147   2274388   2273634   2272865  
  6320.000000   2272041   2271118   2270047   2268811   2267420  
  6310.000000   2265929   2264408   2262929   2261532   2260218  
  6300.000000   2258949   2257674   2256343   2254939   2253464  
  6290.000000   2251947   2250410   2248869   2247314   2245731  
  6280.000000   2244097   2242403   2240646   2238837   2236974  
  6270.000000   2235060   2233079   2231026   2228901   2226727  
  6260.000000   2224532   2222357   2220226   2218151   2216116  
  6250.000000   2214102   2212082   2210044   2207985   2205913  
  6240.000000   2203833   2201745   2199640   2197503   2195323  
  6230.000000   2193092   2190808   2188478   2186104   2183696  
  6220.000000   2181262   2178826   2176415   2174066   2171807  
  6210.000000   2169652   2167590   2165590   2163610   2161612  
  6200.000000   2159575   2157499   2155402   2153298   2151196  
  6190.000000   2149085   2146950   2144777   2142573   2140364  
  6180.000000   2138197   2136119   2134163   2132339   2130626  
  6170.000000   2128989   2127384   2125774   2124135   2122451  
  6160.000000   2120714   2118919   2117065   2115159   2113222  
  6150.000000   2111282   2109376   2107534   2105775   2104100  
  6140.000000   2102497   2100948   2099436   2097951   2096482  
  6130.000000   2095018   2093541   2092028   2090464   2088847  
  6120.000000   2087201   2085570   2084010   2082565   2081259  
  6110.000000   2080080   2078994   2077951   2076910   2075845  
  6100.000000   2074758   2073662   2072585   2071546   2070564  
  6090.000000   2069643   2068794   2068015   2067312   2066679  
  6080.000000   2066107   2065573   2065061   2064552   2064047  
  6070.000000   2063550   2063080   2062645   2062256   2061904  
  6060.000000   2061591   2061313   2061092   2060953   2060936  
  6050.000000   2061061   2061339   2061746   2062256   2062827  
  6040.000000   2063442   2064090   2064786   2065535   2066347  
  6030.000000   2067199   2068071   2068928   2069756   2070554  
  6020.000000   2071350   2072171   2073047   2073981   2074963  
  6010.000000   2075963   2076953   2077910   2078833   2079727  
  6000.000000   2080612   2081500   2082410   2083349   2084328  
  5990.000000   2085355   2086441   2087585   2088783   2090015  
  5980.000000   2091266   2092518   2093774   2095047   2096366  
  5970.000000   2097751   2099216   2100746   2102319   2103898  
  5960.000000   2105462   2106999   2108523   2110052   2111611  
  5950.000000   2113208   2114849   2116522   2118225   2119957  
  5940.000000   2121730   2123556   2125446   2127397   2129398  
  5930.000000   2131429   2133475   2135530   2137599   2139688  
  5920.000000   2141803   2143935   2146064   2148161   2150200  
  5910.000000   2152159   2154034   2155828   2157550   2159208  
  5900.000000   2160814   2162383   2163940   2165518   2167159  
  5890.000000   2168900   2170759   2172735   2174803   2176926  
  5880.000000   2179066   2181194   2183295   2185359   2187379  
  5870.000000   2189337   2191213   2192982   2194642   2196206  
  5860.000000   2197720   2199240   2200835   2202548   2204404  
  5850.000000   2206395   2208497   2210674   2212896   2215141  
  5840.000000   2217401   2219673   2221965   2224283   2226639  
  5830.000000   2229042   2231499   2234005   2236544   2239083  
  5820.000000   2241578   2243984   2246260   2248391   2250372  
  5810.000000   2252226   2253973   2255648   2257260   2258832  
  5800.000000   2260357   2261854   2263308   2264733   2266105  
  5790.000000   2267421   2268637   2269735   2270658   2271379  
  5780.000000   2271840   2272005   2271822   2271265   2270315  
  5770.000000   2269002   2267379   2265546   2263606   2261671  
  5760.000000   2259814   2258084   2256485   2255007   2253632  
  5750.000000   2252359   2251195   2250162   2249280   2248555  
  5740.000000   2247981   2247534   2247191   2246921   2246714  
  5730.000000   2246548   2246420   2246309   2246210   2246106  
  5720.000000   2246003   2245904   2245833   2245802   2245829  
  5710.000000   2245914   2246057   2246249   2246495   2246801  
  5700.000000   2247186   2247658   2248215   2248836   2249489  
  5690.000000   2250138   2250757   2251341   2251899   2252452  
  5680.000000   2253012   2253579   2254128   2254627   2255029  
  5670.000000   2255305   2255429   2255395   2255198   2254848  
  5660.000000   2254347   2253715   2252968   2252146   2251281  
  5650.000000   2250416   2249567   2248747   2247943   2247148  
  5640.000000   2246352   2245564   2244796   2244068   2243387  
  5630.000000   2242746   2242126   2241499   2240849   2240171  
  5620.000000   2239480   2238795   2238135   2237503   2236887  
  5610.000000   2236266   2235623   2234952   2234265   2233587  
  5600.000000   2232946   2232359   2231827   2231337   2230862  
  5590.000000   2230378   2229862   2229299   2228679   2227995  
  5580.000000   2227240   2226417   2225533   2224608   2223663  
  5570.000000   2222720   2221790   2220867   2219931   2218960  
  5560.000000   2217932   2216842   2215700   2214529   2213355  
  5550.000000   2212199   2211074   2209983   2208921   2207883  
  5540.000000   2206864   2205858   2204857   2203852   2202833  
  5530.000000   2201797   2200746   2199691   2198650   2197633  
  5520.000000   2196644   2195672   2194698   2193703   2192672  
  5510.000000   2191608   2190522   2189437   2188371   2187342  
  5500.000000   2186355   2185416   2184517   2183655   2182809  
  5490.000000   2181955   2181056   2180074   2178975   2177750  
  5480.000000   2176408   2174988   2173532   2172086   2170666  
  5470.000000   2169271   2167872   2166441   2164953   2163405  
  5460.000000   2161805   2160170   2158504   2156802   2155044  
  5450.000000   2153214   2151305   2149334   2147334   2145347  
  5440.000000   2143412   2141548   2139763   2138049   2136401  
  5430.000000   2134814   2133286   2131807   2130363   2128927  
  5420.000000   2127481   2126011   2124543   2123110   2121777  
  5410.000000   2120580   2119553   2118674   2117924   2117258  
  5400.000000   2116671   2116158   2115756   2115483   2115368  
  5390.000000   2115392   2115545   2115788   2116124   2116552  
  5380.000000   2117121   2117852   2118786   2119901   2121187  
  5370.000000   2122582   2124078   2125638   2127300   2129067  
  5360.000000   2131000   2133095   2135402   2137904   2140658  
  5350.000000   2143663   2146999   2150674   2154756   2159219  
  5340.000000   2164098   2169338   2174984   2180995   2187436  
  5330.000000   2194269   2201544   2209192   2217243   2225628  
  5320.000000   2234417   2243602   2253320   2263599   2274581  
  5310.000000   2286250   2298683   2311792   2325611   2340047  
  5300.000000   2355163   2370917   2387428   2404694   2422844  
  5290.000000   2441853   2461782   2482524   2504039   2526158  
  5280.000000   2548825   2571926   2595506   2619577   2644265  
  5270.000000   2669607   2695632   2722222   2749206   2776343  
  5260.000000   2803423   2830318   2856990   2883494   2909877  
  5250.000000   2936181   2962309   2988142   3013436   3038051  
  5240.000000   3061814   3084764   3106900   3128396   3149289  
  5230.000000   3169712   3189584   3208905   3227484   3245279  
  5220.000000   3262135   3278110   3293171   3307482   3321070  
  5210.000000   3334096   3346521   3358400   3369588   3380077  
  5200.000000   3389724   3398589   3406629   3413991   3420678  
  5190.000000   3426823   3432380   3437411   3441824   3445663  
  5180.000000   3448859   3451494   3453530   3455051   3456007  
  5170.000000   3456452   3456326   3455686   3454505   3452872  
  5160.000000   3450784   3448326   3445474   3442282   3438709  
  5150.000000   3434806   3430559   3426042   3421259   3416278  
  5140.000000   3411085   3405715   3400140   3394393   3388462  
  5130.000000   3382395   3376197   3369909   3363522   3357055  
  5120.000000   3350491   3343848   3337123   3330345   3323514  
  5110.000000   3316648   3309728   3302753   3295705   3288593  
  5100.000000   3281427   3274247   3267077   3259950   3252871  
  5090.000000   3245841   3238840   3231861   3224889   3217928  
  5080.000000   3210976   3204035   3197094   3190143   3183162  
  5070.000000   3176140   3169070   3161962   3154825   3147677  
  5060.000000   3140527   3133386   3126257   3119148   3112064  
  5050.000000   3105014   3098000   3091020   3084062   3077108  
  5040.000000   3070140   3063146   3056131   3049108   3042104  
  5030.000000   3035144   3028255   3021445   3014724   3008084  
  5020.000000   3001530   2995055   2988677   2982396   2976238  
  5010.000000   2970202   2964312   2958561   2952972   2947541  
  5000.000000   2942297   2937240   2932403   2927779   2923395  
  4990.000000   2919229   2915301   2911585   2908103   2904834  
  4980.000000   2901810   2899014   2896487   2894210   2892228  
  4970.000000   2890521   2889136   2888052   2887312   2886894  
  4960.000000   2886835   2887106   2887742   2888709   2890037  
  4950.000000   2891687   2893679   2895967   2898564   2901422  
  4940.000000   2904562   2907947   2911612   2915530   2919739  
  4930.000000   2924213   2928979   2934000   2939296   2944830  
  4920.000000   2950620   2956632   2962881   2969333   2975994  
  4910.000000   2982831   2989851   2997030   3004381   3011888  
  4900.000000   3019561   3027379   3035331   3043386   3051520  
  4890.000000   3059697   3067890   3076070   3084208   3092282  
  4880.000000   3100265   3108143   3115900   3123536   3131041  
  4870.000000   3138422   3145659   3152749   3159663   3166395  
  4860.000000   3172920   3179250   3185378   3191334   3197116  
  4850.000000   3202753   3208230   3213561   3218719   3223716  
  4840.000000   3228531   3233186   3237676   3242033   3246260  
  4830.000000   3250391   3254421   3258375   3262231   3265995  
  4820.000000   3269634   3273145   3276499   3279698   3282729  
  4810.000000   3285606   3288324   3290897   3293316   3295594  
  4800.000000   3297724   3299731   3301630   3303464   3305256  
  4790.000000   3307046   3308838   3310641   3312426   3314179  
  4780.000000   3315864   3317474   3318989   3320420   3321760  
  4770.000000   3323024   3324198   3325284   3326257   3327112  
  4760.000000   3327822   3328389   3328792   3329042   3329122  
  4750.000000   3329046   3328801   3328401   3327832   3327109  
  4740.000000   3326221   3325188   3324004   3322696   3321265  
  4730.000000   3319737   3318111   3316404   3314606   3312722  
  4720.000000   3310742   3308671   3306509   3304275   3301981  
  4710.000000   3299654   3297309   3294965   3292629   3290311  
  4700.000000   3288012   3285738   3283492   3281283   3279119  
  4690.000000   3277010   3274961   3272975   3271050   3269174  
  4680.000000   3267334   3265508   3263676   3261812   3259903  
  4670.000000   3257932   3255904   3253823   3251718   3249612  
  4660.000000   3247546   3245550   3243664   3241908   3240312  
  4650.000000   3238883   3237634   3236560   3235660   3234918  
  4640.000000   3234323   3233848   3233477   3233182   3232953  
  4630.000000   3232765   3232613   3232480   3232365   3232256  
  4620.000000   3232154   3232048   3231938   3231816   3231679  
  4610.000000   3231519   3231336   3231128   3230902   3230669  
  4600.000000   3230444   3230246   3230086   3229972   3229897  
  4590.000000   3229851   3229809   3229752   3229654   3229500  
  4580.000000   3229276   3228981   3228611   3228175   3227677  
  4570.000000   3227130   3226538   3225913   3225254   3224564  
  4560.000000   3223837   3223069   3222251   3221385   3220466  
  4550.000000   3219499   3218486   3217431   3216337   3215207  
  4540.000000   3214051   3212880   3211715   3210572   3209475  
  4530.000000   3208431   3207460   3206554   3205734   3204996  
  4520.000000   3204378   3203889   3203581   3203458   3203571  
  4510.000000   3203906   3204510   3205367   3206544   3208042  
  4500.000000   3209951   3212279   3215113   3218441   3222331  
  4490.000000   3226751   3231762   3237330   3243520   3250301  
  4480.000000   3257728   3265751   3274400   3283607   3293386  
  4470.000000   3303664   3314446   3325658   3337288   3349250  
  4460.000000   3361510   3373974   3386603   3399319   3412094  
  4450.000000   3424880   3437661   3450410   3463115   3475761  
  4440.000000   3488336   3500839   3513256   3525602   3537855  
  4430.000000   3550033   3562095   3574051   3585829   3597426  
  4420.000000   3608741   3619759   3630365   3640544   3650180  
  4410.000000   3659261   3667674   3675409   3682356   3688508  
  4400.000000   3693774   3698174   3701667   3704325   3706175  
  4390.000000   3707344   3707910   3708026   3707788   3707338  
  4380.000000   3706761   3706173   3705653   3705298   3705192  
  4370.000000   3705420   3706064   3707180   3708822   3710999  
  4360.000000   3713727   3716978   3720741   3724973   3729639  
  4350.000000   3734693   3740079   3745753   3751664   3757797  
  4340.000000   3764125   3770640   3777280   3783933   3790374  
  4330.000000   3796293   3801298   3805008   3807111   3807484  
  4320.000000   3806209   3803617   3800184   3796488   3793029  
  4310.000000   3790219   3788235   3787128   3786754   3786949  
  4300.000000   3787493   3788239   3789060   3789898   3790712  
  4290.000000   3791481   3792200   3792858   3793474   3794062  
  4280.000000   3794656   3795285   3795969   3796738   3797597  
  4270.000000   3798581   3799686   3800925   3802233   3803512  
  4260.000000   3804570   3805183   3805100   3804131   3802174  
  4250.000000   3799271   3795587   3791397   3787005   3782716  
  4240.000000   3778748   3775250   3772251   3769731   3767599  
  4230.000000   3765766   3764123   3762582   3761061   3759489  
  4220.000000   3757829   3756050   3754179   3752242   3750320  
  4210.000000   3748475   3746796   3745327   3744123   3743189  
  4200.000000   3742533   3742125   3741942   3741926   3742041  
  4190.000000   3742217   3742433   3742637   3742852   3743069  
  4180.000000   3743357   3743733   3744283   3745029   3746059  
  4170.000000   3747399   3749147   3751339   3754073   3757362  
  4160.000000   3761266   3765737   3770778   3776296   3782278  
  4150.000000   3788639   3795399   3802504   3810009   3817884  
  4140.000000   3826195   3834920   3844125   3853784   3863952  
  4130.000000   3874585   3885707   3897249   3909209   3921514  
  4120.000000   3934165   3947115   3960392   3973973   3987897  
  4110.000000   4002145   4016744   4031661   4046898   4062404  
  4100.000000   4078157   4094090   4110169   4126337   4142576  
  4090.000000   4158871   4175238   4191702   4208295   4225046  
  4080.000000   4241964   4259054   4276284   4293630   4311026  
  4070.000000   4328433   4345764   4362980   4379997   4396800  
  4060.000000   4413325   4429585   4445524   4461166   4476443  
  4050.000000   4491385   4505918   4520088   4533819   4547153  
  4040.000000   4559975   4572289   4583931   4594890   4605013  
  4030.000000   4614336   4622762   4630364   4637062   4642902  
  4020.000000   4647749   4651631   4654476   4656353   4657209  
  4010.000000   4657213   4656465   4655057   4652830   4649917  
  4000.000000   4646661  
##END= 
