##TITLE= Sample 028 By ssteindl date Dienstag, November 20 2018
##JCAMP-DX= 4.24
##DATA TYPE= INFRARED SPECTRUM
##ORIGIN= Exported PE Spectrum Data File
##OWNER= Sandra Steindl
##DATE= 18/11/20
##TIME= 17:22:27.00
##SPECTROMETER/DATA SYSTEM= PERKIN-ELMER Frontier FT-IR/NIR IR
##INSTRUMENT PARAMETERS=
  APODIZATION=stark
  DETECTOR=INGAAS
##RESOLUTION= 16.000000
##DELTAX= -2.000000
##XUNITS= 1/CM
##YUNITS= A
##XFACTOR= 1.00
##YFACTOR= 0.00000011920928955078
##FIRSTX= 10000.00
##LASTX= 4000.00
##NPOINTS= 3001
##FIRSTY= 0.209107
##MAXY= 0.574124
##MINY= 0.182586
##XYDATA= (X++(Y..Y))
 10000.000000   1754114   1755684   1757079   1758061   1758579  
  9990.000000   1758960   1759735   1761452   1764449   1768733  
  9980.000000   1773970   1779508   1784503   1788078   1789546  
  9970.000000   1788584   1785373   1780601   1775366   1770932  
  9960.000000   1768382   1768375   1770889   1775348   1780674  
  9950.000000   1785756   1789613   1791803   1792369   1791858  
  9940.000000   1790986   1790367   1790247   1790353   1790048  
  9930.000000   1788492   1785048   1779457   1771989   1763379  
  9920.000000   1754592   1746644   1740300   1736036   1733944  
  9910.000000   1733856   1735399   1738077   1741316   1744484  
  9900.000000   1746962   1748248   1748082   1746552   1744109  
  9890.000000   1741435   1739289   1738219   1738492   1739963  
  9880.000000   1742213   1744618   1746499   1747229   1746296  
  9870.000000   1743431   1738688   1732527   1725842   1719771  
  9860.000000   1715494   1713804   1714869   1718026   1721983  
  9850.000000   1725198   1726449   1725315   1722310   1718768  
  9840.000000   1716263   1716107   1718850   1724196   1731215  
  9830.000000   1738707   1745618   1751179   1754945   1756617  
  9820.000000   1755962   1752820   1747270   1739833   1731547  
  9810.000000   1723827   1718056   1715154   1715181   1717383  
  9800.000000   1720406   1722921   1724000   1723469   1721730  
  9790.000000   1719491   1717324   1715415   1713613   1711604  
  9780.000000   1709310   1706938   1704999   1703929   1703832  
  9770.000000   1704309   1704595   1703960   1702060   1699228  
  9760.000000   1696325   1694420   1694277   1696020   1699083  
  9750.000000   1702443   1705072   1706303   1706025   1704557  
  9740.000000   1702361   1699754   1696806   1693438   1689689  
  9730.000000   1685886   1682668   1680719   1680422   1681577  
  9720.000000   1683375   1684689   1684552   1682598   1679291  
  9710.000000   1675742   1673280   1672872   1674686   1678067  
  9700.000000   1681792   1684665   1686014   1685947   1685279  
  9690.000000   1685064   1686113   1688552   1691721   1694380  
  9680.000000   1695191   1693212   1688348   1681381   1673821  
  9670.000000   1667391   1663504   1662866   1665225   1669572  
  9660.000000   1674425   1678396   1680598   1680929   1680016  
  9650.000000   1678934   1678717   1679946   1682522   1685690  
  9640.000000   1688422   1689748   1689214   1686934   1683549  
  9630.000000   1679901   1676698   1674325   1672776   1671843  
  9620.000000   1671259   1670899   1670771   1670980   1671582  
  9610.000000   1672548   1673736   1674994   1676203   1677332  
  9600.000000   1678378   1679287   1679892   1679906   1679090  
  9590.000000   1677374   1675035   1672601   1670704   1669745  
  9580.000000   1669709   1670100   1670157   1669206   1666980  
  9570.000000   1663842   1660635   1658462   1658185   1660204  
  9560.000000   1664235   1669522   1675042   1679858   1683319  
  9550.000000   1685101   1685176   1683630   1680640   1676393  
  9540.000000   1671172   1665340   1659354   1653664   1648621  
  9530.000000   1644442   1641189   1638925   1637699   1637650  
  9520.000000   1638810   1641049   1643930   1646764   1648818  
  9510.000000   1649511   1648699   1646659   1644016   1641441  
  9500.000000   1639396   1637969   1636942   1635980   1634924  
  9490.000000   1633884   1633217   1633237   1633963   1634947  
  9480.000000   1635387   1634445   1631644   1627160   1621854  
  9470.000000   1617027   1613987   1613591   1615973   1620526  
  9460.000000   1626178   1631721   1636181   1638945   1639825  
  9450.000000   1638928   1636574   1633208   1629405   1625853  
  9440.000000   1623301   1622398   1623500   1626502   1630802  
  9430.000000   1635483   1639539   1642237   1643232   1642676  
  9420.000000   1641027   1638890   1636774   1635001   1633691  
  9410.000000   1632846   1632420   1632344   1632497   1632658  
  9400.000000   1632491   1631615   1629699   1626618   1622513  
  9390.000000   1617803   1613080   1608947   1605878   1604122  
  9380.000000   1603688   1604391   1605892   1607783   1609630  
  9370.000000   1611055   1611805   1611794   1611152   1610149  
  9360.000000   1609163   1608498   1608331   1608590   1609047  
  9350.000000   1609389   1609390   1609014   1608408   1607851  
  9340.000000   1607580   1607721   1608207   1608858   1609465  
  9330.000000   1609894   1610130   1610216   1610201   1610056  
  9320.000000   1609683   1608944   1607754   1606149   1604316  
  9310.000000   1602542   1601130   1600289   1600094   1600488  
  9300.000000   1601305   1602353   1603419   1604344   1604997  
  9290.000000   1605322   1605333   1605151   1604987   1605089  
  9280.000000   1605624   1606561   1607602   1608272   1608067  
  9270.000000   1606669   1604065   1600606   1596897   1593596  
  9260.000000   1591167   1589714   1588983   1588483   1587715  
  9250.000000   1586344   1584301   1581765   1579062   1576543  
  9240.000000   1574484   1573081   1572469   1572756   1573984  
  9230.000000   1576076   1578767   1581628   1584150   1585888  
  9220.000000   1586621   1586401   1585558   1584473   1583457  
  9210.000000   1582537   1581528   1580091   1577968   1575154  
  9200.000000   1571975   1569019   1566922   1566175   1566941  
  9190.000000   1569052   1572038   1575324   1578351   1580736  
  9180.000000   1582296   1583047   1583154   1582892   1582612  
  9170.000000   1582613   1583081   1583973   1585046   1585854  
  9160.000000   1585886   1584772   1582415   1579133   1575484  
  9150.000000   1572199   1569880   1568906   1569293   1570754  
  9140.000000   1572793   1574861   1576459   1577165   1576655  
  9130.000000   1574736   1571448   1567056   1562116   1557353  
  9120.000000   1553559   1551304   1550743   1551544   1553016  
  9110.000000   1554394   1555116   1555066   1554586   1554289  
  9100.000000   1554752   1556206   1558429   1560799   1562589  
  9090.000000   1563249   1562665   1561164   1559373   1557954  
  9080.000000   1557348   1557648   1558610   1559790   1560733  
  9070.000000   1561083   1560673   1559489   1557655   1555362  
  9060.000000   1552871   1550514   1548671   1547702   1547816  
  9050.000000   1549012   1551063   1553596   1556205   1558613  
  9040.000000   1560733   1562651   1564495   1566301   1567941  
  9030.000000   1569130   1569565   1569064   1567712   1565836  
  9020.000000   1563898   1562322   1561321   1560855   1560641  
  9010.000000   1560353   1559733   1558738   1557513   1556306  
  9000.000000   1555364   1554800   1554586   1554553   1554496  
  8990.000000   1554235   1553677   1552827   1551783   1550743  
  8980.000000   1549990   1549858   1550642   1552527   1555460  
  8970.000000   1559086   1562764   1565703   1567236   1566993  
  8960.000000   1565081   1562017   1558604   1555620   1553563  
  8950.000000   1552528   1552218   1552195   1552059   1551714  
  8940.000000   1551345   1551368   1552157   1553862   1556265  
  8930.000000   1558794   1560712   1561319   1560237   1557467  
  8920.000000   1553435   1548816   1544394   1540862   1538673  
  8910.000000   1537988   1538645   1540270   1542355   1544407  
  8900.000000   1546029   1547016   1547383   1547312   1547075  
  8890.000000   1546884   1546853   1546898   1546842   1546460  
  8880.000000   1545653   1544486   1543218   1542226   1541873  
  8870.000000   1542386   1543749   1545710   1547859   1549755  
  8860.000000   1551077   1551698   1551713   1551390   1551059  
  8850.000000   1551036   1551514   1552553   1554065   1555879  
  8840.000000   1557793   1559608   1561161   1562324   1562991  
  8830.000000   1563087   1562541   1561345   1559564   1557383  
  8820.000000   1555096   1553069   1551681   1551199   1551701  
  8810.000000   1553002   1554691   1556219   1557068   1556916  
  8800.000000   1555761   1553938   1552029   1550705   1550528  
  8790.000000   1551801   1554486   1558220   1562445   1566548  
  8780.000000   1570027   1572551   1574007   1574445   1574049  
  8770.000000   1573051   1571709   1570264   1568957   1568015  
  8760.000000   1567627   1567933   1568952   1570618   1572716  
  8750.000000   1574996   1577147   1578920   1580132   1580714  
  8740.000000   1580719   1580253   1579476   1578499   1577403  
  8730.000000   1576186   1574824   1573293   1571632   1569978  
  8720.000000   1568552   1567641   1567492   1568263   1569932  
  8710.000000   1572298   1575018   1577684   1579968   1581663  
  8700.000000   1582772   1583414   1583801   1584105   1584424  
  8690.000000   1584752   1585032   1585231   1585402   1585709  
  8680.000000   1586377   1587609   1589471   1591841   1594401  
  8670.000000   1596724   1598417   1599226   1599154   1598415  
  8660.000000   1597393   1596488   1596011   1596115   1596780  
  8650.000000   1597892   1599306   1600941   1602780   1604852  
  8640.000000   1607150   1609590   1611987   1614081   1615632  
  8630.000000   1616480   1616665   1616369   1615916   1615620  
  8620.000000   1615730   1616341   1617366   1618631   1619909  
  8610.000000   1621097   1622199   1623405   1624963   1627123  
  8600.000000   1629984   1633424   1637082   1640403   1642798  
  8590.000000   1643759   1643055   1640775   1637371   1633524  
  8580.000000   1629997   1627453   1626298   1626616   1628146  
  8570.000000   1630429   1632929   1635235   1637107   1638561  
  8560.000000   1639782   1641045   1642585   1644487   1646677  
  8550.000000   1648900   1650845   1652189   1652750   1652495  
  8540.000000   1651586   1650308   1648995   1647951   1647361  
  8530.000000   1647300   1647706   1648469   1649462   1650611  
  8520.000000   1651885   1653309   1654901   1656644   1658443  
  8510.000000   1660134   1661540   1662496   1662936   1662886  
  8500.000000   1662500   1661982   1661544   1661344   1661450  
  8490.000000   1661855   1662477   1663230   1664036   1664879  
  8480.000000   1665773   1666761   1667869   1669085   1670335  
  8470.000000   1671489   1672405   1672952   1673088   1672853  
  8460.000000   1672396   1671916   1671627   1671682   1672129  
  8450.000000   1672902   1673862   1674855   1675779   1676625  
  8440.000000   1677469   1678436   1679616   1681027   1682578  
  8430.000000   1684112   1685474   1686573   1687431   1688152  
  8420.000000   1688875   1689684   1690559   1691366   1691921  
  8410.000000   1692076   1691811   1691264   1690689   1690374  
  8400.000000   1690522   1691190   1692265   1693544   1694801  
  8390.000000   1695901   1696815   1697623   1698436   1699327  
  8380.000000   1700282   1701204   1701967   1702461   1702651  
  8370.000000   1702561   1702271   1701858   1701379   1700863  
  8360.000000   1700332   1699840   1699475   1699354   1699560  
  8350.000000   1700115   1700937   1701874   1702743   1703401  
  8340.000000   1703790   1703950   1703980   1703983   1704016  
  8330.000000   1704068   1704081   1703991   1703776   1703471  
  8320.000000   1703152   1702896   1702729   1702619   1702472  
  8310.000000   1702203   1701767   1701209   1700638   1700205  
  8300.000000   1700027   1700151   1700517   1700993   1701409  
  8290.000000   1701626   1701567   1701230   1700678   1699991  
  8280.000000   1699241   1698453   1697603   1696644   1695521  
  8270.000000   1694218   1692775   1691314   1690019   1689100  
  8260.000000   1688719   1688932   1689644   1690622   1691536  
  8250.000000   1692057   1691967   1691230   1690022   1688663  
  8240.000000   1687504   1686804   1686640   1686897   1687315  
  8230.000000   1687610   1687580   1687189   1686551   1685876  
  8220.000000   1685346   1685044   1684903   1684752   1684383  
  8210.000000   1683643   1682503   1681050   1679449   1677867  
  8200.000000   1676400   1675067   1673812   1672576   1671332  
  8190.000000   1670133   1669079   1668282   1667783   1667530  
  8180.000000   1667361   1667071   1666468   1665447   1664032  
  8170.000000   1662352   1660609   1658979   1657567   1656358  
  8160.000000   1655246   1654086   1652770   1651279   1649702  
  8150.000000   1648215   1647009   1646234   1645911   1645954  
  8140.000000   1646176   1646376   1646398   1646184   1645772  
  8130.000000   1645246   1644690   1644107   1643421   1642478  
  8120.000000   1641126   1639276   1636964   1634369   1631767  
  8110.000000   1629470   1627724   1626667   1626279   1626421  
  8100.000000   1626866   1627364   1627693   1627684   1627246  
  8090.000000   1626351   1625048   1623440   1621690   1619991  
  8080.000000   1618542   1617510   1616983   1616952   1617304  
  8070.000000   1617857   1618395   1618717   1618677   1618192  
  8060.000000   1617252   1615892   1614201   1612286   1610291  
  8050.000000   1608365   1606663   1605315   1604395   1603916  
  8040.000000   1603808   1603960   1604230   1604507   1604720  
  8030.000000   1604853   1604930   1604972   1604978   1604893  
  8020.000000   1604632   1604093   1603211   1601981   1600481  
  8010.000000   1598861   1597305   1595997   1595066   1594566  
  8000.000000   1594463   1594644   1594948   1595194   1595225  
  7990.000000   1594924   1594251   1593241   1592008   1590723  
  7980.000000   1589582   1588767   1588406   1588542   1589112  
  7970.000000   1589971   1590914   1591727   1592233   1592321  
  7960.000000   1591967   1591212   1590152   1588890   1587528  
  7950.000000   1586144   1584801   1583560   1582489   1581665  
  7940.000000   1581161   1581027   1581257   1581781   1582464  
  7930.000000   1583135   1583631   1583827   1583689   1583259  
  7920.000000   1582659   1582040   1581550   1581286   1581280  
  7910.000000   1581500   1581866   1582280   1582652   1582915  
  7900.000000   1583031   1582984   1582775   1582418   1581937  
  7890.000000   1581373   1580783   1580233   1579789   1579496  
  7880.000000   1579365   1579371   1579459   1579564   1579628  
  7870.000000   1579616   1579523   1579360   1579145   1578891  
  7860.000000   1578603   1578285   1577958   1577661   1577454  
  7850.000000   1577392   1577498   1577739   1578023   1578219  
  7840.000000   1578207   1577927   1577410   1576779   1576205  
  7830.000000   1575846   1575777   1575969   1576283   1576544  
  7820.000000   1576596   1576381   1575948   1575442   1575024  
  7810.000000   1574812   1574808   1574902   1574899   1574596  
  7800.000000   1573853   1572647   1571077   1569334   1567633  
  7790.000000   1566171   1565055   1564327   1563945   1563837  
  7780.000000   1563910   1564070   1564228   1564287   1564153  
  7770.000000   1563737   1562982   1561872   1560460   1558849  
  7760.000000   1557191   1555645   1554354   1553423   1552892  
  7750.000000   1552748   1552916   1553288   1553726   1554098  
  7740.000000   1554286   1554212   1553845   1553204   1552360  
  7730.000000   1551402   1550436   1549538   1548760   1548099  
  7720.000000   1547521   1546958   1546343   1545619   1544762  
  7710.000000   1543789   1542752   1541738   1540839   1540150  
  7700.000000   1539741   1539650   1539873   1540363   1541035  
  7690.000000   1541762   1542408   1542825   1542900   1542562  
  7680.000000   1541821   1540755   1539514   1538275   1537211  
  7670.000000   1536449   1536036   1535950   1536103   1536385  
  7660.000000   1536690   1536941   1537097   1537134   1537038  
  7650.000000   1536784   1536356   1535737   1534956   1534072  
  7640.000000   1533191   1532428   1531889   1531638   1531691  
  7630.000000   1532019   1532562   1533258   1534040   1534845  
  7620.000000   1535606   1536246   1536694   1536900   1536863  
  7610.000000   1536638   1536332   1536061   1535916   1535918  
  7600.000000   1536016   1536108   1536087   1535894   1535536  
  7590.000000   1535095   1534685   1534412   1534327   1534416  
  7580.000000   1534619   1534862   1535100   1535327   1535572  
  7570.000000   1535860   1536198   1536543   1536838   1537023  
  7560.000000   1537094   1537090   1537104   1537227   1537527  
  7550.000000   1538013   1538644   1539360   1540121   1540929  
  7540.000000   1541833   1542886   1544114   1545468   1546833  
  7530.000000   1548044   1548962   1549512   1549735   1549763  
  7520.000000   1549786   1549978   1550452   1551217   1552194  
  7510.000000   1553253   1554266   1555147   1555872   1556472  
  7500.000000   1557011   1557555   1558160   1558852   1559644  
  7490.000000   1560535   1561531   1562634   1563855   1565189  
  7480.000000   1566626   1568137   1569691   1571247   1572781  
  7470.000000   1574271   1575727   1577163   1578613   1580103  
  7460.000000   1581659   1583283   1584976   1586716   1588490  
  7450.000000   1590277   1592078   1593888   1595715   1597557  
  7440.000000   1599409   1601265   1603118   1604975   1606850  
  7430.000000   1608773   1610771   1612864   1615049   1617305  
  7420.000000   1619588   1621845   1624017   1626048   1627898  
  7410.000000   1629535   1630956   1632175   1633247   1634250  
  7400.000000   1635285   1636446   1637804   1639388   1641180  
  7390.000000   1643129   1645173   1647268   1649397   1651579  
  7380.000000   1653840   1656198   1658637   1661107   1663542  
  7370.000000   1665879   1668085   1670156   1672123   1674017  
  7360.000000   1675856   1677629   1679301   1680834   1682206  
  7350.000000   1683434   1684567   1685679   1686839   1688099  
  7340.000000   1689471   1690950   1692516   1694156   1695863  
  7330.000000   1697631   1699443   1701264   1703042   1704722  
  7320.000000   1706266   1707670   1708961   1710192   1711420  
  7310.000000   1712694   1714031   1715427   1716856   1718291  
  7300.000000   1719699   1721060   1722351   1723554   1724649  
  7290.000000   1725630   1726502   1727287   1728017   1728725  
  7280.000000   1729427   1730126   1730805   1731447   1732045  
  7270.000000   1732611   1733175   1733767   1734408   1735091  
  7260.000000   1735790   1736464   1737094   1737686   1738294  
  7250.000000   1738992   1739874   1741001   1742397   1744025  
  7240.000000   1745813   1747658   1749476   1751198   1752809  
  7230.000000   1754317   1755775   1757230   1758744   1760344  
  7220.000000   1762056   1763867   1765768   1767729   1769749  
  7210.000000   1771831   1774016   1776347   1778877   1781625  
  7200.000000   1784589   1787718   1790958   1794240   1797536  
  7190.000000   1800828   1804143   1807496   1810904   1814342  
  7180.000000   1817783   1821177   1824518   1827812   1831124  
  7170.000000   1834511   1838036   1841707   1845505   1849365  
  7160.000000   1853237   1857083   1860928   1864815   1868823  
  7150.000000   1873002   1877391   1881973   1886726   1891595  
  7140.000000   1896561   1901592   1906696   1911851   1917054  
  7130.000000   1922268   1927489   1932709   1937979   1943352  
  7120.000000   1948920   1954730   1960811   1967121   1973593  
  7110.000000   1980128   1986658   1993136   1999577   2006013  
  7100.000000   2012510   2019113   2025863   2032756   2039780  
  7090.000000   2046890   2054043   2061180   2068259   2075233  
  7080.000000   2082086   2088814   2095456   2102066   2108724  
  7070.000000   2115503   2122463   2129621   2136957   2144414  
  7060.000000   2151912   2159375   2166752   2174027   2181227  
  7050.000000   2188406   2195627   2202932   2210321   2217742  
  7040.000000   2225106   2232307   2239259   2245928   2252339  
  7030.000000   2258580   2264758   2270986   2277331   2283817  
  7020.000000   2290407   2297042   2303641   2310144   2316500  
  7010.000000   2322696   2328721   2334597   2340344   2346012  
  7000.000000   2351642   2357284   2362949   2368632   2374271  
  6990.000000   2379795   2385115   2390186   2394992   2399578  
  6980.000000   2403997   2408310   2412528   2416639   2420585  
  6970.000000   2424331   2427862   2431241   2434557   2437939  
  6960.000000   2441471   2445206   2449099   2453070   2456988  
  6950.000000   2460747   2464254   2467478   2470411   2473091  
  6940.000000   2475556   2477864   2480059   2482193   2484297  
  6930.000000   2486396   2488478   2490528   2492504   2494385  
  6920.000000   2496150   2497819   2499412   2500974   2502527  
  6910.000000   2504095   2505675   2507273   2508886   2510526  
  6900.000000   2512195   2513890   2515580   2517220   2518751  
  6890.000000   2520131   2521337   2522386   2523320   2524192  
  6880.000000   2525046   2525913   2526800   2527713   2528652  
  6870.000000   2529633   2530665   2531753   2532878   2534007  
  6860.000000   2535088   2536088   2536990   2537812   2538593  
  6850.000000   2539377   2540191   2541035   2541889   2542722  
  6840.000000   2543510   2544253   2544959   2545650   2546330  
  6830.000000   2546998   2547633   2548223   2548762   2549274  
  6820.000000   2549783   2550321   2550886   2551464   2552009  
  6810.000000   2552479   2552842   2553093   2553241   2553301  
  6800.000000   2553277   2553155   2552909   2552523   2552003  
  6790.000000   2551396   2550771   2550210   2549775   2549500  
  6780.000000   2549375   2549372   2549443   2549547   2549645  
  6770.000000   2549706   2549697   2549590   2549369   2549038  
  6760.000000   2548630   2548194   2547780   2547410   2547061  
  6750.000000   2546673   2546164   2545479   2544609   2543623  
  6740.000000   2542629   2541759   2541098   2540676   2540432  
  6730.000000   2540258   2540019   2539608   2538965   2538084  
  6720.000000   2537000   2535773   2534463   2533128   2531816  
  6710.000000   2530574   2529435   2528419   2527516   2526689  
  6700.000000   2525877   2525022   2524075   2523030   2521908  
  6690.000000   2520755   2519617   2518522   2517477   2516468  
  6680.000000   2515470   2514465   2513436   2512376   2511272  
  6670.000000   2510110   2508875   2507569   2506207   2504840  
  6660.000000   2503518   2502292   2501173   2500134   2499104  
  6650.000000   2497997   2496736   2495283   2493638   2491846  
  6640.000000   2489960   2488038   2486113   2484205   2482319  
  6630.000000   2480461   2478637   2476860   2475131   2473447  
  6620.000000   2471791   2470146   2468498   2466848   2465205  
  6610.000000   2463584   2461990   2460411   2458826   2457207  
  6600.000000   2455538   2453821   2452072   2450316   2448571  
  6590.000000   2446838   2445110   2443378   2441644   2439932  
  6580.000000   2438275   2436711   2435255   2433892   2432580  
  6570.000000   2431263   2429894   2428451   2426947   2425413  
  6560.000000   2423888   2422395   2420931   2419470   2417980  
  6550.000000   2416438   2414842   2413214   2411595   2410027  
  6540.000000   2408543   2407161   2405884   2404698   2403583  
  6530.000000   2402514   2401462   2400399   2399310   2398185  
  6520.000000   2397037   2395885   2394758   2393665   2392605  
  6510.000000   2391551   2390473   2389340   2388152   2386938  
  6500.000000   2385753   2384663   2383719   2382942   2382310  
  6490.000000   2381769   2381250   2380684   2380025   2379248  
  6480.000000   2378353   2377355   2376281   2375163   2374040  
  6470.000000   2372950   2371935   2371025   2370235   2369561  
  6460.000000   2368977   2368449   2367940   2367425   2366885  
  6450.000000   2366310   2365696   2365029   2364298   2363488  
  6440.000000   2362599   2361641   2360646   2359651   2358702  
  6430.000000   2357833   2357067   2356414   2355870   2355420  
  6420.000000   2355045   2354718   2354410   2354096   2353755  
  6410.000000   2353384   2352991   2352599   2352233   2351905  
  6400.000000   2351615   2351337   2351038   2350682   2350249  
  6390.000000   2349738   2349167   2348563   2347951   2347346  
  6380.000000   2346750   2346158   2345565   2344974   2344395  
  6370.000000   2343843   2343330   2342861   2342430   2342028  
  6360.000000   2341644   2341275   2340918   2340574   2340235  
  6350.000000   2339890   2339519   2339105   2338632   2338099  
  6340.000000   2337510   2336879   2336218   2335545   2334866  
  6330.000000   2334199   2333549   2332927   2332326   2331737  
  6320.000000   2331125   2330454   2329681   2328780   2327735  
  6310.000000   2326559   2325276   2323921   2322524   2321115  
  6300.000000   2319714   2318345   2317021   2315763   2314563  
  6290.000000   2313409   2312258   2311064   2309774   2308359  
  6280.000000   2306808   2305143   2303392   2301593   2299769  
  6270.000000   2297933   2296082   2294223   2292360   2290514  
  6260.000000   2288695   2286912   2285142   2283353   2281498  
  6250.000000   2279546   2277490   2275359   2273204   2271087  
  6240.000000   2269053   2267122   2265279   2263491   2261712  
  6230.000000   2259904   2258036   2256096   2254080   2251992  
  6220.000000   2249841   2247644   2245420   2243190   2240970  
  6210.000000   2238771   2236588   2234411   2232232   2230055  
  6200.000000   2227896   2225786   2223751   2221805   2219936  
  6190.000000   2218109   2216281   2214411   2212485   2210509  
  6180.000000   2208516   2206536   2204593   2202691   2200816  
  6170.000000   2198950   2197084   2195222   2193387   2191605  
  6160.000000   2189894   2188259   2186689   2185159   2183649  
  6150.000000   2182138   2180620   2179083   2177522   2175922  
  6140.000000   2174276   2172584   2170862   2169143   2167471  
  6130.000000   2165881   2164394   2163004   2161685   2160402  
  6120.000000   2159123   2157830   2156526   2155214   2153905  
  6110.000000   2152592   2151268   2149916   2148535   2147134  
  6100.000000   2145744   2144402   2143148   2142002   2140975  
  6090.000000   2140054   2139223   2138461   2137755   2137089  
  6080.000000   2136459   2135850   2135256   2134665   2134085  
  6070.000000   2133522   2133004   2132551   2132189   2131920  
  6060.000000   2131745   2131643   2131597   2131583   2131596  
  6050.000000   2131625   2131679   2131757   2131878   2132046  
  6040.000000   2132283   2132596   2133002   2133497   2134077  
  6030.000000   2134717   2135403   2136115   2136855   2137636  
  6020.000000   2138484   2139421   2140464   2141602   2142812  
  6010.000000   2144049   2145277   2146458   2147583   2148652  
  6000.000000   2149688   2150712   2151752   2152821   2153936  
  5990.000000   2155093   2156298   2157543   2158830   2160155  
  5980.000000   2161526   2162948   2164434   2165992   2167633  
  5970.000000   2169352   2171148   2173006   2174923   2176889  
  5960.000000   2178917   2181012   2183193   2185455   2187794  
  5950.000000   2190180   2192585   2194970   2197321   2199631  
  5940.000000   2201925   2204233   2206599   2209053   2211618  
  5930.000000   2214290   2217049   2219859   2222673   2225444  
  5920.000000   2228131   2230712   2233182   2235557   2237867  
  5910.000000   2240146   2242421   2244704   2246989   2249261  
  5900.000000   2251500   2253700   2255864   2258016   2260175  
  5890.000000   2262365   2264587   2266833   2269080   2271306  
  5880.000000   2273495   2275642   2277747   2279811   2281826  
  5870.000000   2283777   2285646   2287418   2289097   2290703  
  5860.000000   2292274   2293854   2295486   2297198   2299008  
  5850.000000   2300925   2302948   2305075   2307298   2309601  
  5840.000000   2311961   2314345   2316721   2319060   2321347  
  5830.000000   2323580   2325765   2327911   2330021   2332093  
  5820.000000   2334121   2336105   2338050   2339976   2341896  
  5810.000000   2343826   2345753   2347659   2349501   2351252  
  5800.000000   2352882   2354399   2355806   2357136   2358392  
  5790.000000   2359588   2360697   2361705   2362566   2363256  
  5780.000000   2363724   2363938   2363846   2363420   2362635  
  5770.000000   2361513   2360099   2358491   2356790   2355107  
  5760.000000   2353517   2352069   2350768   2349608   2348571  
  5750.000000   2347652   2346849   2346167   2345600   2345131  
  5740.000000   2344737   2344384   2344061   2343760   2343499  
  5730.000000   2343284   2343130   2343025   2342961   2342914  
  5720.000000   2342885   2342879   2342922   2343032   2343225  
  5710.000000   2343486   2343792   2344107   2344409   2344693  
  5700.000000   2344982   2345306   2345699   2346180   2346749  
  5690.000000   2347392   2348086   2348817   2349567   2350325  
  5680.000000   2351065   2351754   2352342   2352780   2353028  
  5670.000000   2353072   2352914   2352587   2352118   2351540  
  5660.000000   2350865   2350110   2349279   2348393   2347471  
  5650.000000   2346549   2345645   2344780   2343946   2343138  
  5640.000000   2342340   2341546   2340752   2339966   2339192  
  5630.000000   2338430   2337677   2336932   2336198   2335487  
  5620.000000   2334814   2334192   2333620   2333080   2332541  
  5610.000000   2331971   2331347   2330667   2329948   2329220  
  5600.000000   2328507   2327825   2327167   2326516   2325850  
  5590.000000   2325158   2324436   2323695   2322942   2322183  
  5580.000000   2321406   2320598   2319736   2318809   2317814  
  5570.000000   2316760   2315659   2314525   2313366   2312189  
  5560.000000   2311000   2309806   2308617   2307440   2306279  
  5550.000000   2305130   2303982   2302825   2301652   2300463  
  5540.000000   2299268   2298077   2296898   2295732   2294580  
  5530.000000   2293441   2292320   2291229   2290181   2289187  
  5520.000000   2288243   2287334   2286439   2285532   2284598  
  5510.000000   2283636   2282653   2281659   2280659   2279653  
  5500.000000   2278630   2277585   2276517   2275442   2274374  
  5490.000000   2273328   2272296   2271258   2270169   2268995  
  5480.000000   2267705   2266298   2264793   2263228   2261636  
  5470.000000   2260045   2258460   2256877   2255282   2253665  
  5460.000000   2252016   2250332   2248601   2246816   2244962  
  5450.000000   2243037   2241047   2239018   2236988   2234994  
  5440.000000   2233064   2231208   2229422   2227695   2226019  
  5430.000000   2224388   2222805   2221263   2219752   2218247  
  5420.000000   2216734   2215201   2213672   2212184   2210801  
  5410.000000   2209566   2208515   2207631   2206892   2206252  
  5400.000000   2205690   2205189   2204767   2204432   2204206  
  5390.000000   2204078   2204051   2204107   2204269   2204553  
  5380.000000   2205017   2205686   2206593   2207707   2209004  
  5370.000000   2210408   2211892   2213406   2214977   2216600  
  5360.000000   2218338   2220197   2222238   2224462   2226940  
  5350.000000   2229684   2232778   2236233   2240114   2244390  
  5340.000000   2249090   2254149   2259596   2265378   2271543  
  5330.000000   2278047   2284940   2292165   2299772   2307712  
  5320.000000   2316076   2324859   2334196   2344096   2354685  
  5310.000000   2365925   2377885   2390478   2403746   2417609  
  5300.000000   2432144   2447316   2463244   2479924   2497481  
  5290.000000   2515887   2535206   2555335   2576247   2597781  
  5280.000000   2619892   2642471   2665566   2689181   2713440  
  5270.000000   2738364   2763980   2790161   2816744   2843500  
  5260.000000   2870247   2896880   2923386   2949835   2976278  
  5250.000000   3002742   3029112   3055237   3080849   3105785  
  5240.000000   3129863   3153113   3175535   3197302   3218458  
  5230.000000   3239134   3259264   3278855   3297735   3315873  
  5220.000000   3333124   3349546   3365103   3379952   3394112  
  5210.000000   3407738   3420789   3433318   3445178   3456354  
  5200.000000   3466699   3476262   3484994   3493039   3500399  
  5190.000000   3507210   3513429   3519117   3524182   3528668  
  5180.000000   3532504   3535772   3538436   3540579   3542151  
  5170.000000   3543202   3543669   3543611   3543009   3541968  
  5160.000000   3540499   3538705   3536566   3534125   3531322  
  5150.000000   3528177   3524647   3520784   3516585   3512120  
  5140.000000   3507391   3502452   3497291   3491954   3486435  
  5130.000000   3480783   3474995   3469105   3463091   3456962  
  5120.000000   3450689   3444291   3437775   3431188   3424559  
  5110.000000   3417933   3411314   3404705   3398079   3391423  
  5100.000000   3384720   3377980   3371212   3364446   3357694  
  5090.000000   3350972   3344279   3337617   3330982   3324377  
  5080.000000   3317798   3311246   3304704   3298157   3291579  
  5070.000000   3284957   3278276   3271542   3264759   3257942  
  5060.000000   3251093   3244217   3237309   3230366   3223386  
  5050.000000   3216377   3209346   3202308   3195269   3188240  
  5040.000000   3181225   3174235   3167281   3160380   3153552  
  5030.000000   3146806   3140151   3133577   3127077   3120632  
  5020.000000   3114242   3107904   3101642   3095467   3089413  
  5010.000000   3083483   3077702   3072057   3066565   3061214  
  5000.000000   3056030   3051006   3046177   3041535   3037106  
  4990.000000   3032869   3028847   3025018   3021417   3018031  
  4980.000000   3014909   3012043   3009479   3007197   3005234  
  4970.000000   3003559   3002204   3001138   3000395   2999946  
  4960.000000   2999826   3000002   3000512   3001324   3002479  
  4950.000000   3003947   3005767   3007908   3010400   3013203  
  4940.000000   3016345   3019786   3023559   3027629   3032029  
  4930.000000   3036723   3041732   3047010   3052569   3058361  
  4920.000000   3064403   3070659   3077158   3083875   3090841  
  4910.000000   3098038   3105489   3113175   3121108   3129263  
  4900.000000   3137638   3146199   3154930   3163793   3172768  
  4890.000000   3181823   3190934   3200075   3209213   3218317  
  4880.000000   3227346   3236268   3245042   3253647   3262047  
  4870.000000   3270230   3278164   3285842   3293239   3300369  
  4860.000000   3307225   3313843   3320233   3326437   3332451  
  4850.000000   3338303   3343970   3349467   3354771   3359908  
  4840.000000   3364869   3369690   3374366   3378924   3383344  
  4830.000000   3387642   3391792   3395806   3399666   3403390  
  4820.000000   3406966   3410410   3413712   3416889   3419935  
  4810.000000   3422867   3425680   3428388   3430978   3433455  
  4800.000000   3435804   3438035   3440148   3442173   3444128  
  4790.000000   3446051   3447951   3449846   3451722   3453573  
  4780.000000   3455375   3457124   3458804   3460428   3461988  
  4770.000000   3463495   3464934   3466305   3467578   3468746  
  4760.000000   3469781   3470679   3471419   3472009   3472437  
  4750.000000   3472719   3472847   3472843   3472699   3472433  
  4740.000000   3472027   3471489   3470795   3469948   3468931  
  4730.000000   3467760   3466431   3464972   3463386   3461696  
  4720.000000   3459904   3458025   3456058   3454021   3451924  
  4710.000000   3449796   3447653   3445521   3443411   3441334  
  4700.000000   3439286   3437269   3435280   3433322   3431402  
  4690.000000   3429529   3427713   3425955   3424255   3422603  
  4680.000000   3420988   3419391   3417803   3416206   3414597  
  4670.000000   3412965   3411318   3409651   3407987   3406336  
  4660.000000   3404731   3403195   3401765   3400463   3399318  
  4650.000000   3398339   3397541   3396922   3396487   3396223  
  4640.000000   3396128   3396181   3396369   3396662   3397040  
  4630.000000   3397470   3397932   3398397   3398853   3399277  
  4620.000000   3399659   3399982   3400237   3400406   3400484  
  4610.000000   3400465   3400357   3400177   3399950   3399713  
  4600.000000   3399497   3399335   3399243   3399230   3399284  
  4590.000000   3399391   3399521   3399653   3399760   3399825  
  4580.000000   3399829   3399761   3399608   3399368   3399033  
  4570.000000   3398611   3398106   3397530   3396887   3396186  
  4560.000000   3395423   3394598   3393705   3392750   3391734  
  4550.000000   3390676   3389585   3388477   3387352   3386208  
  4540.000000   3385035   3383821   3382566   3381272   3379960  
  4530.000000   3378652   3377382   3376168   3375044   3374011  
  4520.000000   3373097   3372295   3371640   3371125   3370796  
  4510.000000   3370649   3370743   3371079   3371731   3372701  
  4500.000000   3374074   3375851   3378111   3380841   3384112  
  4490.000000   3387899   3392276   3397219   3402806   3409017  
  4480.000000   3415920   3423478   3431734   3440622   3450157  
  4470.000000   3460256   3470916   3482051   3493653   3505642  
  4460.000000   3518008   3530677   3543636   3556813   3570178  
  4450.000000   3583655   3597198   3610736   3624223   3637613  
  4440.000000   3650875   3663999   3676965   3689784   3702434  
  4430.000000   3714931   3727240   3739381   3751302   3763020  
  4420.000000   3774463   3785640   3796454   3806902   3816867  
  4410.000000   3826334   3835174   3843363   3850780   3857411  
  4400.000000   3863165   3868069   3872091   3875311   3877754  
  4390.000000   3879543   3880737   3881468   3881808   3881876  
  4380.000000   3881745   3881521   3881278   3881114   3881114  
  4370.000000   3881370   3881969   3882985   3884487   3886510  
  4360.000000   3889082   3892191   3895821   3899922   3904443  
  4350.000000   3909323   3914495   3919916   3925539   3931355  
  4340.000000   3937342   3943493   3949741   3955973   3961972  
  4330.000000   3967451   3972052   3975438   3977336   3977645  
  4320.000000   3976443   3974031   3970830   3967357   3964055  
  4310.000000   3961292   3959230   3957923   3957254   3957094  
  4300.000000   3957257   3957629   3958097   3958608   3959111  
  4290.000000   3959567   3959944   3960208   3960362   3960417  
  4280.000000   3960418   3960419   3960469   3960627   3960911  
  4270.000000   3961356   3961941   3962650   3963393   3964058  
  4260.000000   3964460   3964406   3963688   3962162   3959759  
  4250.000000   3956535   3952642   3948322   3943838   3939450  
  4240.000000   3935345   3931649   3928389   3925542   3923028  
  4230.000000   3920761   3918640   3916583   3914523   3912408  
  4220.000000   3910227   3907976   3905707   3903459   3901321  
  4210.000000   3899342   3897596   3896104   3894898   3893962  
  4200.000000   3893302   3892883   3892698   3892700   3892875  
  4190.000000   3893164   3893553   3893989   3894484   3895016  
  4180.000000   3895634   3896342   3897214   3898263   3899571  
  4170.000000   3901158   3903114   3905467   3908306   3911641  
  4160.000000   3915529   3919930   3924856   3930227   3936039  
  4150.000000   3942213   3948769   3955658   3962929   3970554  
  4140.000000   3978601   3987048   3995964   4005323   4015179  
  4130.000000   4025490   4036284   4047497   4059140   4071151  
  4120.000000   4083548   4096295   4109429   4122935   4136854  
  4110.000000   4151167   4165900   4181014   4196507   4212315  
  4100.000000   4228408   4244709   4261175   4277742   4294386  
  4090.000000   4311081   4327831   4344641   4361523   4378486  
  4080.000000   4395528   4412660   4429864   4447148   4464478  
  4070.000000   4481844   4499177   4516445   4533553   4550471  
  4060.000000   4567112   4583473   4599481   4615151   4630411  
  4050.000000   4645289   4659720   4673757   4687344   4700546  
  4040.000000   4713275   4725557   4737247   4748338   4758676  
  4030.000000   4768282   4777045   4785020   4792120   4798385  
  4020.000000   4803681   4808045   4811428   4813902   4815404  
  4010.000000   4816098   4816088   4815409   4813801   4811354  
  4000.000000   4808489  
##END= 
