##TITLE= Sample 032 By ssteindl date Dienstag, November 20 2018
##JCAMP-DX= 4.24
##DATA TYPE= INFRARED SPECTRUM
##ORIGIN= Exported PE Spectrum Data File
##OWNER= Sandra Steindl
##DATE= 18/11/20
##TIME= 17:30:37.00
##SPECTROMETER/DATA SYSTEM= PERKIN-ELMER Frontier FT-IR/NIR IR
##INSTRUMENT PARAMETERS=
  APODIZATION=stark
  DETECTOR=INGAAS
##RESOLUTION= 16.000000
##DELTAX= -2.000000
##XUNITS= 1/CM
##YUNITS= A
##XFACTOR= 1.00
##YFACTOR= 0.00000011920928955078
##FIRSTX= 10000.00
##LASTX= 4000.00
##NPOINTS= 3001
##FIRSTY= 0.218289
##MAXY= 0.635280
##MINY= 0.183586
##XYDATA= (X++(Y..Y))
 10000.000000   1831142   1831708   1831955   1831159   1828721  
  9990.000000   1824254   1817774   1809725   1801051   1792916  
  9980.000000   1786306   1781828   1779598   1779468   1781112  
  9970.000000   1784305   1788855   1794572   1801043   1807571  
  9960.000000   1813228   1817040   1818350   1816954   1813282  
  9950.000000   1808114   1802435   1797006   1792298   1788407  
  9940.000000   1785222   1782587   1780400   1778681   1777473  
  9930.000000   1776820   1776680   1776995   1777725   1778906  
  9920.000000   1780647   1783018   1785972   1789259   1792499  
  9910.000000   1795298   1797437   1798970   1800186   1801470  
  9900.000000   1803076   1804981   1806841   1808129   1808332  
  9890.000000   1807166   1804691   1801279   1797463   1793735  
  9880.000000   1790370   1787410   1784693   1782062   1779431  
  9870.000000   1776921   1774765   1773294   1772766   1773333  
  9860.000000   1774949   1777362   1780129   1782656   1784340  
  9850.000000   1784664   1783401   1780637   1776841   1772697  
  9840.000000   1768971   1766263   1764840   1764599   1765096  
  9830.000000   1765787   1766166   1765995   1765320   1764438  
  9820.000000   1763753   1763582   1764029   1764894   1765719  
  9810.000000   1765888   1764834   1762216   1758137   1753157  
  9800.000000   1748273   1744623   1743144   1744217   1747409  
  9790.000000   1751574   1755163   1756811   1755873   1752716  
  9780.000000   1748627   1745320   1744251   1745996   1750001  
  9770.000000   1754745   1758396   1759489   1757547   1753186  
  9760.000000   1747830   1743108   1740191   1739445   1740414  
  9750.000000   1742173   1743815   1744815   1745125   1745052  
  9740.000000   1744887   1744787   1744597   1744132   1743296  
  9730.000000   1742314   1741647   1741751   1742798   1744404  
  9720.000000   1745717   1745630   1743262   1738259   1731010  
  9710.000000   1722440   1713766   1706044   1700001   1695934  
  9700.000000   1693834   1693575   1694954   1697802   1701794  
  9690.000000   1706559   1711578   1716433   1720883   1724953  
  9680.000000   1728895   1732869   1736824   1740171   1742006  
  9670.000000   1741247   1737177   1729739   1719744   1708723  
  9660.000000   1698506   1690754   1686453   1685783   1688083  
  9650.000000   1692224   1696874   1700920   1703624   1704737  
  9640.000000   1704444   1703229   1701757   1700651   1700406  
  9630.000000   1701187   1702846   1704900   1706731   1707781  
  9620.000000   1707754   1706753   1705182   1703625   1702535  
  9610.000000   1702081   1702041   1701914   1701144   1699346  
  9600.000000   1696490   1692897   1689114   1685712   1683074  
  9590.000000   1681315   1680302   1679763   1679452   1679205  
  9580.000000   1679016   1678917   1678963   1679128   1679319  
  9570.000000   1679433   1679398   1679273   1679226   1679539  
  9560.000000   1680507   1682381   1685245   1688973   1693156  
  9550.000000   1697153   1700172   1701454   1700488   1697145  
  9540.000000   1691794   1685186   1678322   1672157   1667360  
  9530.000000   1664164   1662307   1661255   1660365   1659253  
  9520.000000   1657846   1656475   1655647   1655844   1657280  
  9510.000000   1659753   1662700   1665282   1666697   1666340  
  9500.000000   1664059   1660145   1655307   1650459   1646499  
  9490.000000   1644081   1643459   1644440   1646473   1648798  
  9480.000000   1650660   1651497   1651044   1649384   1646857  
  9470.000000   1643969   1641250   1639151   1638000   1637950  
  9460.000000   1638994   1640931   1643387   1645856   1647783  
  9450.000000   1648707   1648372   1646817   1644379   1641588  
  9440.000000   1639033   1637160   1636164   1635945   1636189  
  9430.000000   1636528   1636659   1636465   1635985   1635393  
  9420.000000   1634882   1634613   1634638   1634907   1635260  
  9410.000000   1635502   1635415   1634844   1633719   1632100  
  9400.000000   1630199   1628327   1626833   1625923   1625578  
  9390.000000   1625437   1624940   1623465   1620637   1616478  
  9380.000000   1611496   1606572   1602700   1600716   1601005  
  9370.000000   1603446   1607453   1612237   1617048   1621352  
  9360.000000   1624891   1627608   1629523   1630612   1630775  
  9350.000000   1629885   1627946   1625141   1621908   1618775  
  9340.000000   1616257   1614659   1613963   1613860   1613791  
  9330.000000   1613250   1611897   1609774   1607233   1604878  
  9320.000000   1603349   1603151   1604449   1606976   1610056  
  9310.000000   1612782   1614324   1614131   1612153   1608789  
  9300.000000   1604827   1601114   1598313   1596636   1595851  
  9290.000000   1595411   1594762   1593592   1591969   1590363  
  9280.000000   1589401   1589697   1591493   1594649   1598606  
  9270.000000   1602658   1606157   1608690   1610153   1610619  
  9260.000000   1610253   1609116   1607178   1604306   1600425  
  9250.000000   1595582   1590064   1584362   1579093   1574878  
  9240.000000   1572134   1571068   1571550   1573278   1575776  
  9230.000000   1578595   1581375   1583903   1586116   1588010  
  9220.000000   1589601   1590787   1591383   1591119   1589814  
  9210.000000   1587443   1584268   1580788   1577649   1575450  
  9200.000000   1574505   1574762   1575759   1576845   1577363  
  9190.000000   1576913   1575442   1573268   1570928   1568960  
  9180.000000   1567717   1567264   1567435   1567890   1568270  
  9170.000000   1568269   1567746   1566708   1565286   1563690  
  9160.000000   1562163   1560971   1560329   1560361   1561035  
  9150.000000   1562167   1563486   1564694   1565581   1566059  
  9140.000000   1566176   1566033   1565687   1565101   1564160  
  9130.000000   1562778   1561004   1559088   1557442   1556524  
  9120.000000   1556643   1557782   1559542   1561270   1562295  
  9110.000000   1562150   1560719   1558281   1555398   1552698  
  9100.000000   1550657   1549515   1549301   1549888   1551076  
  9090.000000   1552630   1554325   1555875   1556962   1557258  
  9080.000000   1556578   1554951   1552668   1550209   1548109  
  9070.000000   1546814   1546553   1547320   1548925   1551148  
  9060.000000   1553803   1556746   1559770   1562560   1564687  
  9050.000000   1565666   1565131   1563012   1559683   1555863  
  9040.000000   1552400   1550019   1549086   1549526   1550851  
  9030.000000   1552432   1553726   1554466   1554636   1554388  
  9020.000000   1553892   1553205   1552262   1550922   1549148  
  9010.000000   1547043   1544909   1543095   1541916   1541515  
  9000.000000   1541839   1542712   1543887   1545206   1546584  
  8990.000000   1548035   1549590   1551243   1552954   1554623  
  8980.000000   1556142   1557384   1558220   1558483   1557999  
  8970.000000   1556645   1554461   1551712   1548892   1546621  
  8960.000000   1545465   1545704   1547175   1549293   1551230  
  8950.000000   1552214   1551787   1550003   1547382   1544758  
  8940.000000   1542949   1542519   1543609   1545969   1549099  
  8930.000000   1552396   1555306   1557395   1558396   1558164  
  8920.000000   1556694   1554121   1550786   1547186   1543915  
  8910.000000   1541481   1540187   1540030   1540725   1541847  
  8900.000000   1542984   1543929   1544692   1545484   1546548  
  8890.000000   1548022   1549854   1551791   1553510   1554705  
  8880.000000   1555249   1555165   1554642   1553903   1553150  
  8870.000000   1552504   1552005   1551658   1551452   1551402  
  8860.000000   1551521   1551831   1552333   1553014   1553853  
  8850.000000   1554817   1555876   1556959   1557971   1558776  
  8840.000000   1559255   1559341   1559059   1558560   1558075  
  8830.000000   1557880   1558214   1559210   1560890   1563126  
  8820.000000   1565696   1568269   1570463   1571875   1572181  
  8810.000000   1571234   1569187   1566523   1564005   1562487  
  8800.000000   1562653   1564811   1568728   1573702   1578735  
  8790.000000   1582891   1585581   1586745   1586787   1586354  
  8780.000000   1586048   1586167   1586651   1587135   1587223  
  8770.000000   1586667   1585534   1584159   1582983   1582390  
  8760.000000   1582507   1583253   1584363   1585608   1586872  
  8750.000000   1588222   1589821   1591789   1594104   1596531  
  8740.000000   1598715   1600259   1600912   1600602   1599510  
  8730.000000   1597947   1596287   1594848   1593852   1593428  
  8720.000000   1593628   1594466   1595916   1597909   1600328  
  8710.000000   1603001   1605734   1608330   1610629   1612521  
  8700.000000   1613966   1614980   1615660   1616170   1616746  
  8690.000000   1617651   1619123   1621294   1624116   1627346  
  8680.000000   1630574   1633337   1635260   1636169   1636163  
  8670.000000   1635547   1634742   1634124   1633942   1634259  
  8660.000000   1634990   1635988   1637120   1638353   1639737  
  8650.000000   1641384   1643392   1645792   1648530   1651451  
  8640.000000   1654348   1656966   1659094   1660561   1661332  
  8630.000000   1661507   1661362   1661304   1661775   1663146  
  8620.000000   1665558   1668903   1672799   1676729   1680172  
  8610.000000   1682772   1684421   1685251   1685541   1685573  
  8600.000000   1685533   1685450   1685257   1684875   1684331  
  8590.000000   1683798   1683553   1683886   1684968   1686795  
  8580.000000   1689154   1691718   1694146   1696195   1697790  
  8570.000000   1699000   1699992   1700936   1701953   1703082  
  8560.000000   1704307   1705581   1706873   1708168   1709471  
  8550.000000   1710770   1712030   1713181   1714133   1714807  
  8540.000000   1715159   1715213   1715056   1714835   1714728  
  8530.000000   1714919   1715564   1716756   1718503   1720702  
  8520.000000   1723171   1725648   1727873   1729624   1730790  
  8510.000000   1731387   1731563   1731566   1731695   1732246  
  8500.000000   1733442   1735410   1738138   1741496   1745211  
  8490.000000   1748944   1752305   1754960   1756678   1757396  
  8480.000000   1757242   1756485   1755490   1754585   1753999  
  8470.000000   1753782   1753821   1753903   1753803   1753414  
  8460.000000   1752792   1752187   1751944   1752418   1753810  
  8450.000000   1756108   1759043   1762164   1764963   1767029  
  8440.000000   1768199   1768571   1768495   1768398   1768655  
  8430.000000   1769426   1770620   1771922   1772948   1773403  
  8420.000000   1773226   1772623   1771984   1771758   1772265  
  8410.000000   1773598   1775572   1777819   1779929   1781596  
  8400.000000   1782704   1783339   1783704   1784038   1784490  
  8390.000000   1785111   1785839   1786584   1787280   1787907  
  8380.000000   1788486   1789035   1789526   1789866   1789906  
  8370.000000   1789518   1788647   1787369   1785882   1784465  
  8360.000000   1783409   1782941   1783154   1784012   1785332  
  8350.000000   1786877   1788379   1789628   1790489   1790936  
  8340.000000   1791047   1790955   1790813   1790719   1790708  
  8330.000000   1790711   1790610   1790260   1789582   1788595  
  8320.000000   1787426   1786278   1785351   1784801   1784667  
  8310.000000   1784910   1785416   1786080   1786840   1787689  
  8300.000000   1788664   1789763   1790919   1791956   1792642  
  8290.000000   1792753   1792157   1790881   1789122   1787233  
  8280.000000   1785622   1784662   1784561   1785331   1786761  
  8270.000000   1788495   1790078   1791098   1791258   1790478  
  8260.000000   1788899   1786839   1784700   1782852   1781535  
  8250.000000   1780787   1780443   1780205   1779745   1778845  
  8240.000000   1777458   1775736   1773950   1772413   1771359  
  8230.000000   1770868   1770844   1771038   1771145   1770882  
  8220.000000   1770093   1768761   1767020   1765103   1763284  
  8210.000000   1761822   1760881   1760515   1760636   1761062  
  8200.000000   1761551   1761880   1761893   1761539   1760867  
  8190.000000   1759986   1759002   1757962   1756838   1755542  
  8180.000000   1753992   1752170   1750155   1748122   1746279  
  8170.000000   1744809   1743781   1743152   1742754   1742393  
  8160.000000   1741898   1741187   1740267   1739202   1738063  
  8150.000000   1736883   1735646   1734302   1732818   1731208  
  8140.000000   1729548   1727943   1726488   1725223   1724118  
  8130.000000   1723089   1722042   1720917   1719716   1718493  
  8120.000000   1717326   1716274   1715348   1714515   1713719  
  8110.000000   1712921   1712123   1711370   1710728   1710235  
  8100.000000   1709879   1709574   1709180   1708542   1707535  
  8090.000000   1706112   1704327   1702328   1700326   1698549  
  8080.000000   1697178   1696310   1695919   1695868   1695933  
  8070.000000   1695865   1695461   1694610   1693330   1691740  
  8060.000000   1690024   1688355   1686844   1685519   1684339  
  8050.000000   1683250   1682226   1681312   1680597   1680178  
  8040.000000   1680080   1680225   1680426   1680431   1680014  
  8030.000000   1679041   1677531   1675634   1673589   1671639  
  8020.000000   1669967   1668666   1667743   1667149   1666818  
  8010.000000   1666679   1666656   1666659   1666576   1666295  
  8000.000000   1665740   1664902   1663865   1662783   1661838  
  7990.000000   1661169   1660832   1660774   1660861   1660932  
  7980.000000   1660862   1660592   1660145   1659577   1658942  
  7970.000000   1658244   1657444   1656470   1655284   1653910  
  7960.000000   1652463   1651123   1650096   1649552   1649573  
  7950.000000   1650127   1651070   1652186   1653236   1654010  
  7940.000000   1654381   1654324   1653919   1653329   1652749  
  7930.000000   1652348   1652219   1652347   1652621   1652858  
  7920.000000   1652875   1652541   1651822   1650786   1649568  
  7910.000000   1648334   1647213   1646288   1645579   1645069  
  7900.000000   1644736   1644565   1644555   1644699   1644966  
  7890.000000   1645291   1645579   1645737   1645699   1645454  
  7880.000000   1645050   1644577   1644143   1643842   1643734  
  7870.000000   1643834   1644113   1644509   1644926   1645260  
  7860.000000   1645396   1645251   1644780   1644011   1643038  
  7850.000000   1642005   1641065   1640334   1639858   1639599  
  7840.000000   1639457   1639310   1639056   1638648   1638092  
  7830.000000   1637448   1636785   1636182   1635695   1635374  
  7820.000000   1635249   1635334   1635606   1635991   1636360  
  7810.000000   1636544   1636378   1635751   1634654   1633193  
  7800.000000   1631561   1629982   1628634   1627610   1626890  
  7790.000000   1626384   1625980   1625600   1625226   1624895  
  7780.000000   1624652   1624516   1624441   1624326   1624051  
  7770.000000   1623518   1622702   1621653   1620493   1619363  
  7760.000000   1618383   1617625   1617090   1616735   1616488  
  7750.000000   1616280   1616055   1615777   1615425   1614983  
  7740.000000   1614436   1613770   1612980   1612074   1611084  
  7730.000000   1610057   1609059   1608151   1607380   1606758  
  7720.000000   1606259   1605817   1605351   1604782   1604075  
  7710.000000   1603244   1602358   1601521   1600837   1600374  
  7700.000000   1600150   1600129   1600245   1600434   1600655  
  7690.000000   1600895   1601152   1601411   1601624   1601702  
  7680.000000   1601548   1601085   1600302   1599257   1598076  
  7670.000000   1596898   1595849   1594997   1594353   1593889  
  7660.000000   1593564   1593350   1593240   1593235   1593327  
  7650.000000   1593482   1593652   1593781   1593838   1593826  
  7640.000000   1593781   1593749   1593770   1593849   1593968  
  7630.000000   1594098   1594226   1594357   1594523   1594739  
  7620.000000   1594989   1595204   1595290   1595157   1594773  
  7610.000000   1594190   1593544   1593011   1592749   1592837  
  7600.000000   1593260   1593911   1594652   1595354   1595944  
  7590.000000   1596406   1596774   1597092   1597400   1597716  
  7580.000000   1598054   1598427   1598868   1599405   1600056  
  7570.000000   1600799   1601577   1602314   1602954   1603492  
  7560.000000   1603983   1604523   1605210   1606096   1607165  
  7550.000000   1608331   1609479   1610508   1611376   1612099  
  7540.000000   1612749   1613395   1614088   1614822   1615560  
  7530.000000   1616242   1616836   1617340   1617805   1618298  
  7520.000000   1618903   1619679   1620672   1621891   1623329  
  7510.000000   1624947   1626690   1628477   1630237   1631902  
  7500.000000   1633461   1634951   1636470   1638127   1640018  
  7490.000000   1642168   1644540   1647027   1649509   1651883  
  7480.000000   1654117   1656236   1658312   1660401   1662534  
  7470.000000   1664674   1666755   1668698   1670474   1672100  
  7460.000000   1673654   1675243   1676971   1678916   1681112  
  7450.000000   1683558   1686232   1689103   1692131   1695256  
  7440.000000   1698398   1701465   1704372   1707061   1709525  
  7430.000000   1711806   1713987   1716150   1718361   1720633  
  7420.000000   1722942   1725237   1727478   1729649   1731767  
  7410.000000   1733880   1736040   1738293   1740664   1743162  
  7400.000000   1745782   1748510   1751319   1754173   1757016  
  7390.000000   1759789   1762438   1764941   1767313   1769609  
  7380.000000   1771907   1774275   1776739   1779272   1781802  
  7370.000000   1784240   1786514   1788601   1790539   1792411  
  7360.000000   1794314   1796328   1798487   1800779   1803152  
  7350.000000   1805543   1807904   1810221   1812515   1814832  
  7340.000000   1817215   1819689   1822241   1824828   1827387  
  7330.000000   1829855   1832195   1834409   1836535   1838638  
  7320.000000   1840772   1842969   1845209   1847436   1849562  
  7310.000000   1851516   1853255   1854803   1856222   1857609  
  7300.000000   1859040   1860560   1862160   1863797   1865405  
  7290.000000   1866935   1868356   1869669   1870881   1872007  
  7280.000000   1873046   1873996   1874859   1875658   1876431  
  7270.000000   1877232   1878104   1879069   1880115   1881206  
  7260.000000   1882300   1883370   1884416   1885454   1886515  
  7250.000000   1887606   1888716   1889800   1890822   1891751  
  7240.000000   1892618   1893482   1894458   1895646   1897145  
  7230.000000   1898984   1901162   1903615   1906270   1909033  
  7220.000000   1911839   1914624   1917375   1920090   1922825  
  7210.000000   1925625   1928564   1931662   1934925   1938286  
  7200.000000   1941673   1944999   1948240   1951419   1954644  
  7190.000000   1958033   1961708   1965705   1969989   1974421  
  7180.000000   1978849   1983118   1987174   1991029   1994797  
  7170.000000   1998596   2002554   2006721   2011113   2015679  
  7160.000000   2020383   2025180   2030080   2035097   2040275  
  7150.000000   2045635   2051204   2056969   2062929   2069038  
  7140.000000   2075268   2081537   2087788   2093928   2099926  
  7130.000000   2105767   2111528   2117315   2123290   2129586  
  7120.000000   2136315   2143500   2151111   2159042   2167184  
  7110.000000   2175405   2183614   2191716   2199665   2207412  
  7100.000000   2214971   2222370   2229703   2237068   2244582  
  7090.000000   2252313   2260290   2268479   2276823   2285254  
  7080.000000   2293733   2302242   2310786   2319352   2327911  
  7070.000000   2336388   2344713   2352826   2360730   2368482  
  7060.000000   2376189   2383958   2391868   2399940   2408143  
  7050.000000   2416422   2424722   2433023   2441325   2449647  
  7040.000000   2457981   2466295   2474521   2482593   2490461  
  7030.000000   2498127   2505626   2513018   2520340   2527597  
  7020.000000   2534749   2541749   2548551   2555168   2561643  
  7010.000000   2568070   2574522   2581056   2587664   2594313  
  7000.000000   2600929   2607464   2613872   2620149   2626287  
  6990.000000   2632303   2638183   2643933   2649532   2654990  
  6980.000000   2660298   2665465   2670473   2675313   2679952  
  6970.000000   2684388   2688617   2692680   2696604   2700434  
  6960.000000   2704167   2707803   2711304   2714667   2717893  
  6950.000000   2721039   2724154   2727298   2730473   2733651  
  6940.000000   2736749   2739697   2742439   2744980   2747364  
  6930.000000   2749672   2751968   2754299   2756660   2759033  
  6920.000000   2761380   2763691   2765960   2768204   2770423  
  6910.000000   2772607   2774722   2776734   2778609   2780346  
  6900.000000   2781958   2783479   2784940   2786368   2787776  
  6890.000000   2789187   2790624   2792126   2793717   2795403  
  6880.000000   2797138   2798844   2800419   2801783   2802903  
  6870.000000   2803821   2804629   2805451   2806380   2807455  
  6860.000000   2808646   2809875   2811048   2812092   2812980  
  6850.000000   2813730   2814386   2814999   2815601   2816211  
  6840.000000   2816832   2817473   2818149   2818882   2819694  
  6830.000000   2820590   2821553   2822549   2823526   2824444  
  6820.000000   2825266   2825976   2826573   2827072   2827497  
  6810.000000   2827883   2828261   2828666   2829108   2829580  
  6800.000000   2830040   2830436   2830706   2830820   2830776  
  6790.000000   2830617   2830398   2830182   2829999   2829852  
  6780.000000   2829706   2829523   2829272   2828950   2828577  
  6770.000000   2828189   2827807   2827437   2827060   2826652  
  6760.000000   2826195   2825695   2825178   2824690   2824264  
  6750.000000   2823920   2823647   2823414   2823175   2822886  
  6740.000000   2822513   2822033   2821432   2820705   2819853  
  6730.000000   2818894   2817861   2816803   2815776   2814834  
  6720.000000   2814010   2813320   2812746   2812257   2811805  
  6710.000000   2811345   2810827   2810220   2809495   2808648  
  6700.000000   2807691   2806658   2805597   2804554   2803557  
  6690.000000   2802613   2801692   2800754   2799752   2798667  
  6680.000000   2797496   2796272   2795020   2793769   2792515  
  6670.000000   2791240   2789911   2788503   2787004   2785420  
  6660.000000   2783757   2782019   2780199   2778289   2776294  
  6650.000000   2774253   2772231   2770316   2768575   2767041  
  6640.000000   2765683   2764427   2763169   2761827   2760357  
  6630.000000   2758769   2757108   2755427   2753761   2752109  
  6620.000000   2750445   2748734   2746955   2745113   2743237  
  6610.000000   2741360   2739503   2737668   2735836   2733990  
  6600.000000   2732117   2730229   2728345   2726481   2724639  
  6590.000000   2722803   2720949   2719060   2717143   2715231  
  6580.000000   2713370   2711598   2709933   2708359   2706843  
  6570.000000   2705346   2703845   2702336   2700835   2699352  
  6560.000000   2697888   2696416   2694902   2693313   2691644  
  6550.000000   2689916   2688178   2686484   2684875   2683368  
  6540.000000   2681957   2680625   2679356   2678147   2676999  
  6530.000000   2675910   2674863   2673824   2672756   2671627  
  6520.000000   2670431   2669186   2667932   2666705   2665526  
  6510.000000   2664390   2663276   2662157   2661023   2659881  
  6500.000000   2658758   2657677   2656651   2655673   2654721  
  6490.000000   2653775   2652830   2651903   2651023   2650214  
  6480.000000   2649475   2648776   2648062   2647275   2646374  
  6470.000000   2645349   2644226   2643045   2641850   2640668  
  6460.000000   2639510   2638381   2637287   2636246   2635285  
  6450.000000   2634431   2633691   2633050   2632469   2631898  
  6440.000000   2631292   2630624   2629891   2629105   2628288  
  6430.000000   2627456   2626625   2625804   2625006   2624243  
  6420.000000   2623531   2622872   2622255   2621654   2621035  
  6410.000000   2620367   2619640   2618860   2618052   2617246  
  6400.000000   2616466   2615728   2615040   2614412   2613863  
  6390.000000   2613417   2613097   2612909   2612830   2612805  
  6380.000000   2612761   2612626   2612351   2611924   2611372  
  6370.000000   2610750   2610120   2609532   2609014   2608572  
  6360.000000   2608188   2607837   2607481   2607092   2606641  
  6350.000000   2606113   2605509   2604850   2604168   2603507  
  6340.000000   2602892   2602332   2601803   2601271   2600693  
  6330.000000   2600052   2599351   2598625   2597908   2597234  
  6320.000000   2596592   2595953   2595256   2594455   2593521  
  6310.000000   2592467   2591328   2590155   2588979   2587810  
  6300.000000   2586620   2585372   2584021   2582547   2580945  
  6290.000000   2579239   2577452   2575622   2573772   2571932  
  6280.000000   2570117   2568346   2566615   2564912   2563199  
  6270.000000   2561432   2559565   2557572   2555453   2553240  
  6260.000000   2550979   2548723   2546501   2544328   2542190  
  6250.000000   2540070   2537945   2535807   2533648   2531468  
  6240.000000   2529259   2527015   2524731   2522414   2520085  
  6230.000000   2517773   2515505   2513287   2511103   2508915  
  6220.000000   2506677   2504360   2501962   2499517   2497071  
  6210.000000   2494676   2492358   2490118   2487929   2485759  
  6200.000000   2483581   2481392   2479201   2477026   2474876  
  6190.000000   2472741   2470601   2468429   2466212   2463954  
  6180.000000   2461681   2459421   2457207   2455055   2452974  
  6170.000000   2450963   2449023   2447155   2445356   2443611  
  6160.000000   2441894   2440159   2438365   2436482   2434513  
  6150.000000   2432490   2430473   2428518   2426666   2424922  
  6140.000000   2423258   2421626   2419980   2418292   2416562  
  6130.000000   2414812   2413077   2411385   2409752   2408178  
  6120.000000   2406651   2405151   2403667   2402183   2400697  
  6110.000000   2399203   2397710   2396225   2394770   2393365  
  6100.000000   2392041   2390811   2389689   2388666   2387734  
  6090.000000   2386867   2386051   2385267   2384509   2383768  
  6080.000000   2383050   2382354   2381698   2381094   2380572  
  6070.000000   2380143   2379824   2379596   2379443   2379326  
  6060.000000   2379229   2379135   2379069   2379058   2379147  
  6050.000000   2379360   2379716   2380200   2380800   2381488  
  6040.000000   2382260   2383109   2384045   2385060   2386146  
  6030.000000   2387274   2388418   2389555   2390686   2391824  
  6020.000000   2392999   2394228   2395525   2396873   2398251  
  6010.000000   2399631   2401000   2402355   2403710   2405075  
  6000.000000   2406458   2407848   2409234   2410600   2411951  
  5990.000000   2413302   2414690   2416147   2417703   2419362  
  5980.000000   2421120   2422955   2424856   2426815   2428841  
  5970.000000   2430941   2433128   2435397   2437744   2440148  
  5960.000000   2442599   2445077   2447575   2450073   2452563  
  5950.000000   2455019   2457437   2459817   2462187   2464586  
  5940.000000   2467063   2469653   2472372   2475203   2478107  
  5930.000000   2481039   2483959   2486849   2489711   2492554  
  5920.000000   2495388   2498204   2500986   2503707   2506350  
  5910.000000   2508909   2511401   2513849   2516277   2518701  
  5900.000000   2521121   2523534   2525936   2528337   2530756  
  5890.000000   2533225   2535766   2538394   2541101   2543863  
  5880.000000   2546647   2549414   2552130   2554763   2557291  
  5870.000000   2559692   2561957   2564087   2566105   2568051  
  5860.000000   2569979   2571944   2573990   2576142   2578400  
  5850.000000   2580751   2583170   2585637   2588135   2590654  
  5840.000000   2593184   2595717   2598246   2600768   2603287  
  5830.000000   2605816   2608372   2610970   2613612   2616286  
  5820.000000   2618964   2621617   2624212   2626734   2629163  
  5810.000000   2631500   2633727   2635839   2637813   2639650  
  5800.000000   2641343   2642923   2644403   2645822   2647170  
  5790.000000   2648444   2649584   2650545   2651254   2651674  
  5780.000000   2651765   2651531   2650970   2650116   2648997  
  5770.000000   2647670   2646190   2644638   2643079   2641582  
  5760.000000   2640178   2638889   2637703   2636612   2635603  
  5750.000000   2634680   2633854   2633139   2632543   2632052  
  5740.000000   2631649   2631296   2630975   2630670   2630392  
  5730.000000   2630153   2629978   2629877   2629864   2629930  
  5720.000000   2630073   2630276   2630531   2630815   2631109  
  5710.000000   2631387   2631636   2631848   2632043   2632251  
  5700.000000   2632513   2632862   2633317   2633875   2634511  
  5690.000000   2635198   2635912   2636643   2637389   2638154  
  5680.000000   2638927   2639690   2640401   2641019   2641495  
  5670.000000   2641803   2641921   2641847   2641581   2641136  
  5660.000000   2640525   2639783   2638949   2638080   2637226  
  5650.000000   2636431   2635702   2635028   2634369   2633689  
  5640.000000   2632957   2632174   2631354   2630531   2629730  
  5630.000000   2628965   2628235   2627533   2626850   2626189  
  5620.000000   2625560   2624971   2624423   2623901   2623372  
  5610.000000   2622805   2622173   2621476   2620730   2619970  
  5600.000000   2619229   2618532   2617885   2617279   2616692  
  5590.000000   2616103   2615486   2614822   2614087   2613261  
  5580.000000   2612325   2611271   2610109   2608868   2607585  
  5570.000000   2606302   2605046   2603827   2602634   2601450  
  5560.000000   2600256   2599047   2597829   2596618   2595427  
  5550.000000   2594264   2593127   2592007   2590892   2589777  
  5540.000000   2588663   2587553   2586452   2585362   2584287  
  5530.000000   2583228   2582195   2581197   2580241   2579323  
  5520.000000   2578428   2577523   2576578   2575566   2574479  
  5510.000000   2573332   2572149   2570961   2569785   2568628  
  5500.000000   2567483   2566345   2565210   2564089   2562990  
  5490.000000   2561920   2560861   2559785   2558644   2557404  
  5480.000000   2556042   2554570   2553014   2551416   2549803  
  5470.000000   2548191   2546566   2544907   2543186   2541389  
  5460.000000   2539507   2537547   2535508   2533397   2531213  
  5450.000000   2528969   2526684   2524396   2522143   2519956  
  5440.000000   2517850   2515815   2513833   2511880   2509951  
  5430.000000   2508049   2506194   2504391   2502645   2500935  
  5420.000000   2499253   2497589   2495978   2494457   2493095  
  5410.000000   2491921   2490949   2490135   2489432   2488775  
  5400.000000   2488148   2487553   2487049   2486678   2486500  
  5390.000000   2486517   2486729   2487094   2487604   2488240  
  5380.000000   2489035   2489997   2491159   2492494   2493994  
  5370.000000   2495599   2497305   2499078   2500964   2502967  
  5360.000000   2505157   2507534   2510156   2513010   2516160  
  5350.000000   2519604   2523426   2527628   2532276   2537333  
  5340.000000   2542834   2548715   2555023   2561715   2568863  
  5330.000000   2576429   2584476   2592937   2601856   2611165  
  5320.000000   2620948   2631188   2642029   2653483   2665697  
  5310.000000   2678644   2692418   2706934   2722254   2738293  
  5300.000000   2755134   2772732   2791208   2810543   2830859  
  5290.000000   2852117   2874379   2897531   2921543   2946242  
  5280.000000   2971576   2997429   3023846   3050835   3078516  
  5270.000000   3106908   3136019   3165699   3195741   3225876  
  5260.000000   3255881   3285634   3315117   3344417   3373603  
  5250.000000   3402733   3431698   3460368   3488457   3515806  
  5240.000000   3542214   3567717   3592304   3616164   3639326  
  5230.000000   3661934   3683897   3705217   3725690   3745278  
  5220.000000   3763817   3781378   3797932   3813671   3828636  
  5210.000000   3843021   3856791   3870014   3882519   3894278  
  5200.000000   3905107   3915046   3924028   3932207   3939592  
  5190.000000   3946338   3952410   3957885   3962671   3966822  
  5180.000000   3970265   3973097   3975286   3976932   3977990  
  5170.000000   3978525   3978469   3977885   3976739   3975128  
  5160.000000   3973047   3970588   3967723   3964502   3960871  
  5150.000000   3956878   3952499   3947813   3942829   3937621  
  5140.000000   3932175   3926524   3920629   3914513   3908159  
  5130.000000   3901621   3894913   3888098   3881182   3874199  
  5120.000000   3867133   3859996   3852773   3845483   3838122  
  5110.000000   3830710   3823240   3815721   3808148   3800541  
  5100.000000   3792912   3785296   3777714   3770186   3762708  
  5090.000000   3755274   3747860   3740460   3733067   3725696  
  5080.000000   3718360   3711076   3703843   3696656   3689490  
  5070.000000   3682329   3675150   3667945   3660706   3653431  
  5060.000000   3646114   3638751   3631335   3623873   3616370  
  5050.000000   3608847   3601319   3593804   3586304   3578820  
  5040.000000   3571343   3563870   3556401   3548947   3541522  
  5030.000000   3534139   3526808   3519529   3512306   3505133  
  5020.000000   3498028   3490999   3484081   3477285   3470639  
  5010.000000   3464137   3457785   3451561   3445477   3439520  
  5000.000000   3433729   3428111   3422720   3417561   3412674  
  4990.000000   3408041   3403683   3399566   3395707   3392072  
  4980.000000   3388693   3385547   3382681   3380085   3377822  
  4970.000000   3375885   3374338   3373161   3372399   3372009  
  4960.000000   3372012   3372355   3373063   3374097   3375504  
  4950.000000   3377262   3379422   3381953   3384891   3388182  
  4940.000000   3391846   3395825   3400140   3404740   3409649  
  4930.000000   3414823   3420284   3425992   3431980   3438223  
  4920.000000   3444767   3451596   3458747   3466188   3473927  
  4910.000000   3481912   3490134   3498547   3507152   3515921  
  4900.000000   3524867   3533968   3543227   3552617   3562129  
  4890.000000   3571739   3581434   3591193   3600992   3610798  
  4880.000000   3620565   3630251   3639804   3649192   3658379  
  4870.000000   3667360   3676112   3684643   3692933   3700991  
  4860.000000   3708798   3716369   3723688   3730781   3737633  
  4850.000000   3744271   3750678   3756883   3762875   3768693  
  4840.000000   3774335   3779843   3785211   3790467   3795588  
  4830.000000   3800588   3805435   3810138   3814669   3819038  
  4820.000000   3823225   3827242   3831075   3834746   3838251  
  4810.000000   3841621   3844861   3847993   3851012   3853930  
  4800.000000   3856733   3859434   3862034   3864564   3867037  
  4790.000000   3869486   3871908   3874310   3876664   3878957  
  4780.000000   3881163   3883281   3885305   3887253   3889127  
  4770.000000   3890939   3892672   3894326   3895875   3897321  
  4760.000000   3898649   3899876   3900992   3902014   3902920  
  4750.000000   3903712   3904356   3904851   3905168   3905313  
  4740.000000   3905267   3905043   3904627   3904033   3903248  
  4730.000000   3902290   3901153   3899862   3898417   3896844  
  4720.000000   3895148   3893357   3891480   3889550   3887583  
  4710.000000   3885611   3883643   3881698   3879771   3877864  
  4700.000000   3875965   3874071   3872177   3870289   3868411  
  4690.000000   3866552   3864717   3862909   3861125   3859359  
  4680.000000   3857596   3855819   3854004   3852122   3850153  
  4670.000000   3848075   3845890   3843610   3841275   3838932  
  4660.000000   3836642   3834453   3832417   3830554   3828888  
  4650.000000   3827416   3826144   3825063   3824172   3823453  
  4640.000000   3822891   3822455   3822120   3821853   3821642  
  4630.000000   3821475   3821362   3821310   3821333   3821428  
  4620.000000   3821584   3821770   3821947   3822067   3822088  
  4610.000000   3821974   3821708   3821293   3820749   3820120  
  4600.000000   3819455   3818812   3818235   3817761   3817392  
  4590.000000   3817116   3816892   3816679   3816424   3816096  
  4580.000000   3815670   3815148   3814535   3813855   3813122  
  4570.000000   3812354   3811554   3810726   3809859   3808947  
  4560.000000   3807978   3806951   3805862   3804721   3803529  
  4550.000000   3802297   3801024   3799709   3798347   3796929  
  4540.000000   3795458   3793939   3792396   3790852   3789347  
  4530.000000   3787900   3786546   3785283   3784132   3783081  
  4520.000000   3782159   3781361   3780740   3780297   3780096  
  4510.000000   3780133   3780472   3781100   3782094   3783446  
  4500.000000   3785252   3787514   3790336   3793712   3797736  
  4490.000000   3802387   3807744   3813773   3820545   3828015  
  4480.000000   3836241   3845170   3854842   3865195   3876254  
  4470.000000   3887945   3900271   3913139   3926524   3940312  
  4460.000000   3954459   3968853   3983444   3998139   4012893  
  4450.000000   4027631   4042313   4056886   4071322   4085599  
  4440.000000   4099709   4113664   4127460   4141122   4154628  
  4430.000000   4168000   4181191   4194223   4207031   4219637  
  4420.000000   4231960   4244007   4255669   4266928   4277644  
  4410.000000   4287780   4297180   4305808   4313526   4320328  
  4400.000000   4326126   4330971   4334846   4337858   4340045  
  4390.000000   4341544   4342415   4342791   4342735   4342366  
  4380.000000   4341751   4341002   4340195   4339441   4338830  
  4370.000000   4338469   4338458   4338887   4339846   4341387  
  4360.000000   4343559   4346356   4349763   4353717   4358152  
  4350.000000   4362981   4368127   4373528   4379137   4384932  
  4340.000000   4390885   4396961   4403081   4409115   4414866  
  4330.000000   4420087   4424507   4427886   4430055   4430985  
  4320.000000   4430778   4429701   4428088   4426340   4424775  
  4310.000000   4423660   4423087   4423076   4423509   4424270  
  4300.000000   4425199   4426204   4427198   4428149   4429023  
  4290.000000   4429807   4430480   4431027   4431443   4431741  
  4280.000000   4431945   4432099   4432232   4432391   4432582  
  4270.000000   4432830   4433109   4433405   4433637   4433724  
  4260.000000   4433521   4432893   4431690   4429826   4427265  
  4250.000000   4424078   4420399   4416435   4412392   4408475  
  4240.000000   4404814   4401495   4398515   4395850   4393423  
  4230.000000   4391171   4389015   4386890   4384734   4382485  
  4220.000000   4380101   4377542   4374813   4371928   4368954  
  4210.000000   4365952   4363020   4360225   4357649   4355328  
  4200.000000   4353305   4351577   4350149   4348984   4348059  
  4190.000000   4347309   4346707   4346183   4345738   4345328  
  4180.000000   4344997   4344735   4344623   4344678   4345008  
  4170.000000   4345655   4346749   4348341   4350553   4353402  
  4160.000000   4356956   4361160   4366016   4371420   4377357  
  4150.000000   4383732   4390566   4397794   4405470   4413554  
  4140.000000   4422117   4431128   4440670   4450722   4461359  
  4130.000000   4472542   4484310   4496583   4509360   4522551  
  4120.000000   4536158   4550127   4564503   4579268   4594481  
  4110.000000   4610119   4626207   4642687   4659547   4676711  
  4100.000000   4694157   4711821   4729691   4747730   4765939  
  4090.000000   4784301   4802824   4821506   4840349   4859356  
  4080.000000   4878516   4897827   4917252   4936773   4956315  
  4070.000000   4975833   4995221   5014427   5033347   5051967  
  4060.000000   5070214   5088115   5105605   5122715   5139354  
  4050.000000   5155545   5171190   5186333   5200888   5214917  
  4040.000000   5228317   5241123   5253185   5264523   5274990  
  4030.000000   5284643   5293379   5301282   5308258   5314351  
  4020.000000   5319404   5323442   5326384   5328298   5329115  
  4010.000000   5329013   5328096   5326447   5323869   5320500  
  4000.000000   5316737  
##END= 
