##TITLE= Sample 054 By ssteindl date Dienstag, November 20 2018
##JCAMP-DX= 4.24
##DATA TYPE= INFRARED SPECTRUM
##ORIGIN= Exported PE Spectrum Data File
##OWNER= Sandra Steindl
##DATE= 18/11/20
##TIME= 13:02:50.00
##SPECTROMETER/DATA SYSTEM= PERKIN-ELMER Frontier FT-IR/NIR IR
##INSTRUMENT PARAMETERS=
  APODIZATION=stark
  DETECTOR=INGAAS
##RESOLUTION= 16.000000
##DELTAX= -2.000000
##XUNITS= 1/CM
##YUNITS= A
##XFACTOR= 1.00
##YFACTOR= 0.00000011920928955078
##FIRSTX= 10000.00
##LASTX= 4000.00
##NPOINTS= 3001
##FIRSTY= 0.217966
##MAXY= 0.644196
##MINY= 0.186143
##XYDATA= (X++(Y..Y))
 10000.000000   1828431   1823705   1819459   1816356   1814635  
  9990.000000   1814077   1814473   1815413   1816253   1815956  
  9980.000000   1813584   1808399   1800282   1789827   1778497  
  9970.000000   1768305   1761300   1759037   1762067   1769826  
  9960.000000   1780765   1792870   1804192   1813327   1819597  
  9950.000000   1822969   1823805   1822555   1819669   1815523  
  9940.000000   1810642   1805636   1801268   1798139   1796508  
  9930.000000   1796120   1796201   1795791   1794006   1790510  
  9920.000000   1785580   1780118   1775278   1772094   1771153  
  9910.000000   1772456   1775530   1779625   1783981   1787965  
  9900.000000   1791164   1793351   1794478   1794651   1794123  
  9890.000000   1793264   1792476   1792062   1792114   1792466  
  9880.000000   1792769   1792650   1791869   1790438   1788555  
  9870.000000   1786510   1784485   1782462   1780244   1777570  
  9860.000000   1774336   1770701   1767092   1764056   1762003  
  9850.000000   1761086   1761135   1761828   1762891   1764225  
  9840.000000   1765959   1768223   1771027   1774014   1776552  
  9830.000000   1777878   1777437   1775155   1771552   1767661  
  9820.000000   1764693   1763697   1765204   1769134   1774796  
  9810.000000   1781122   1786874   1790932   1792456   1791065  
  9800.000000   1786888   1780598   1773268   1766198   1760558  
  9790.000000   1757126   1756039   1756801   1758465   1759983  
  9780.000000   1760528   1759728   1757629   1754568   1750909  
  9770.000000   1746897   1742668   1738332   1734203   1730770  
  9760.000000   1728672   1728371   1729944   1732913   1736355  
  9750.000000   1739202   1740634   1740392   1738863   1736877  
  9740.000000   1735358   1734939   1735775   1737559   1739743  
  9730.000000   1741805   1743449   1744627   1745441   1745970  
  9720.000000   1746157   1745838   1744809   1743011   1740555  
  9710.000000   1737753   1734967   1732527   1730614   1729310  
  9700.000000   1728603   1728483   1728865   1729555   1730162  
  9690.000000   1730114   1728830   1725917   1721435   1715921  
  9680.000000   1710307   1705586   1702478   1701159   1701270  
  9670.000000   1702102   1702990   1703577   1703948   1704475  
  9660.000000   1705516   1707161   1709079   1710695   1711429  
  9650.000000   1711045   1709826   1708495   1707958   1708855  
  9640.000000   1711278   1714614   1717755   1719435   1718689  
  9630.000000   1715133   1709108   1701540   1693696   1686871  
  9620.000000   1682100   1679998   1680636   1683604   1688078  
  9610.000000   1693037   1697478   1700664   1702267   1702421  
  9600.000000   1701614   1700465   1699524   1699039   1698999  
  9590.000000   1699144   1699200   1698968   1698394   1697552  
  9580.000000   1696525   1695403   1694224   1693058   1692010  
  9570.000000   1691246   1690906   1691019   1691405   1691693  
  9560.000000   1691435   1690320   1688358   1685967   1683836  
  9550.000000   1682663   1682823   1684186   1686145   1687858  
  9540.000000   1688604   1688039   1686304   1683882   1681361  
  9530.000000   1679141   1677345   1675829   1674424   1673064  
  9520.000000   1671920   1671262   1671307   1672035   1673150  
  9510.000000   1674228   1674921   1675208   1675424   1676157  
  9500.000000   1677923   1680900   1684758   1688755   1692026  
  9490.000000   1693918   1694244   1693288   1691610   1689742  
  9480.000000   1687921   1686057   1683817   1680928   1677364  
  9470.000000   1673504   1670007   1667569   1666582   1666951  
  9460.000000   1668053   1669006   1668957   1667416   1664392  
  9450.000000   1660358   1656095   1652418   1649986   1649111  
  9440.000000   1649727   1651397   1653468   1655195   1655969  
  9430.000000   1655414   1653537   1650677   1647483   1644676  
  9420.000000   1642883   1642386   1643084   1644530   1646165  
  9410.000000   1647546   1648515   1649255   1650139   1651596  
  9400.000000   1653840   1656822   1660152   1663285   1665669  
  9390.000000   1666972   1667149   1666428   1665166   1663695  
  9380.000000   1662204   1660676   1658936   1656688   1653658  
  9370.000000   1649664   1644728   1639105   1633232   1627702  
  9360.000000   1623087   1619904   1618468   1618894   1621054  
  9350.000000   1624618   1629084   1633837   1638227   1641637  
  9340.000000   1643609   1643893   1642592   1640100   1637104  
  9330.000000   1634332   1632383   1631497   1631517   1631961  
  9320.000000   1632244   1631913   1630827   1629211   1627501  
  9310.000000   1626165   1625427   1625240   1625304   1625296  
  9300.000000   1625077   1624810   1624927   1625870   1627830  
  9290.000000   1630551   1633373   1635438   1636019   1634793  
  9280.000000   1631996   1628344   1624780   1622120   1620784  
  9270.000000   1620751   1621657   1623016   1624355   1625372  
  9260.000000   1625884   1625855   1625254   1624107   1622490  
  9250.000000   1620609   1618794   1617384   1616592   1616327  
  9240.000000   1616211   1615657   1614114   1611284   1607285  
  9230.000000   1602672   1598258   1594819   1592819   1592283  
  9220.000000   1592854   1593966   1595063   1595778   1596031  
  9210.000000   1595946   1595766   1595683   1595833   1596219  
  9200.000000   1596817   1597532   1598294   1598985   1599499  
  9190.000000   1599729   1599653   1599397   1599253   1599632  
  9180.000000   1600898   1603250   1606554   1610366   1613995  
  9170.000000   1616782   1618282   1618449   1617575   1616219  
  9160.000000   1614953   1614188   1613993   1614114   1614088  
  9150.000000   1613422   1611776   1609026   1605307   1600926  
  9140.000000   1596291   1591802   1587774   1584430   1581884  
  9130.000000   1580192   1579354   1579355   1580185   1581825  
  9120.000000   1584226   1587239   1590612   1593967   1596896  
  9110.000000   1598987   1599996   1599868   1598864   1597425  
  9100.000000   1596107   1595388   1595543   1596584   1598207  
  9090.000000   1599992   1601460   1602345   1602560   1602315  
  9080.000000   1601942   1601809   1602120   1602813   1603553  
  9070.000000   1603739   1602731   1599992   1595372   1589107  
  9060.000000   1581851   1574549   1568220   1563725   1561482  
  9050.000000   1561490   1563350   1566470   1570204   1574046  
  9040.000000   1577712   1581057   1583976   1586259   1587680  
  9030.000000   1587936   1586900   1584640   1581598   1578422  
  9020.000000   1575817   1574340   1574216   1575363   1577396  
  9010.000000   1579875   1582422   1584870   1587194   1589408  
  9000.000000   1591416   1592955   1593644   1593131   1591286  
  8990.000000   1588331   1584858   1581667   1579519   1578883  
  8980.000000   1579772   1581758   1584089   1585961   1586741  
  8970.000000   1586155   1584306   1581598   1578581   1575804  
  8960.000000   1573704   1572532   1572351   1573055   1574420  
  8950.000000   1576132   1577826   1579166   1579904   1579946  
  8940.000000   1579370   1578398   1577366   1576573   1576217  
  8930.000000   1576302   1576679   1577101   1577324   1577217  
  8920.000000   1576805   1576277   1575901   1575946   1576581  
  8910.000000   1577798   1579411   1581083   1582452   1583201  
  8900.000000   1583170   1582375   1581037   1579513   1578220  
  8890.000000   1577535   1577694   1578745   1580548   1582807  
  8880.000000   1585178   1587339   1589080   1590311   1591055  
  8870.000000   1591398   1591443   1591292   1591045   1590825  
  8860.000000   1590808   1591216   1592263   1594069   1596560  
  8850.000000   1599455   1602288   1604531   1605729   1605662  
  8840.000000   1604410   1602352   1600037   1598031   1596762  
  8830.000000   1596424   1596977   1598177   1599679   1601121  
  8820.000000   1602196   1602701   1602533   1601721   1600419  
  8810.000000   1598914   1597599   1596887   1597128   1598451  
  8800.000000   1600725   1603533   1606307   1608473   1609656  
  8790.000000   1609766   1609063   1608018   1607187   1606984  
  8780.000000   1607586   1608896   1610638   1612491   1614219  
  8770.000000   1615765   1617227   1618825   1620744   1623081  
  8760.000000   1625753   1628539   1631130   1633205   1634530  
  8750.000000   1634982   1634597   1633537   1632059   1630473  
  8740.000000   1629057   1628055   1627596   1627725   1628374  
  8730.000000   1629428   1630728   1632120   1633458   1634608  
  8720.000000   1635457   1635899   1635883   1635406   1634572  
  8710.000000   1633557   1632616   1632005   1631932   1632513  
  8700.000000   1633740   1635525   1637709   1640124   1642593  
  8690.000000   1644952   1647047   1648715   1649830   1650292  
  8680.000000   1650127   1649432   1648424   1647319   1646325  
  8670.000000   1645562   1645076   1644873   1644970   1645464  
  8660.000000   1646509   1648285   1650885   1654250   1658140  
  8650.000000   1662154   1665860   1668874   1671012   1672270  
  8640.000000   1672845   1673012   1673074   1673290   1673855  
  8630.000000   1674909   1676518   1678700   1681372   1684363  
  8620.000000   1687390   1690127   1692276   1693667   1694310  
  8610.000000   1694382   1694175   1693974   1693989   1694300  
  8600.000000   1694880   1695670   1696629   1697790   1699211  
  8590.000000   1700950   1702986   1705201   1707399   1709370  
  8580.000000   1710995   1712250   1713228   1714044   1714800  
  8570.000000   1715516   1716153   1716675   1717121   1717657  
  8560.000000   1718549   1720082   1722430   1725558   1729187  
  8550.000000   1732853   1736040   1738344   1739586   1739869  
  8540.000000   1739524   1739030   1738862   1739382   1740744  
  8530.000000   1742890   1745571   1748406   1750950   1752792  
  8520.000000   1753650   1753433   1752266   1750474   1748520  
  8510.000000   1746888   1745953   1745904   1746725   1748238  
  8500.000000   1750176   1752297   1754427   1756497   1758479  
  8490.000000   1760354   1762078   1763573   1764777   1765650  
  8480.000000   1766252   1766685   1767090   1767563   1768133  
  8470.000000   1768770   1769412   1770047   1770731   1771602  
  8460.000000   1772825   1774496   1776567   1778815   1780896  
  8450.000000   1782443   1783203   1783135   1782459   1781590  
  8440.000000   1781012   1781140   1782190   1784124   1786648  
  8430.000000   1789326   1791706   1793451   1794403   1794626  
  8420.000000   1794355   1793930   1793672   1793813   1794441  
  8410.000000   1795487   1796765   1798027   1799045   1799673  
  8400.000000   1799866   1799698   1799296   1798840   1798462  
  8390.000000   1798261   1798253   1798421   1798724   1799122  
  8380.000000   1799578   1800054   1800498   1800826   1800919  
  8370.000000   1800644   1799900   1798647   1796954   1794980  
  8360.000000   1792965   1791175   1789846   1789134   1789074  
  8350.000000   1789598   1790551   1791747   1792994   1794143  
  8340.000000   1795096   1795812   1796295   1796567   1796670  
  8330.000000   1796640   1796523   1796342   1796114   1795828  
  8320.000000   1795459   1794971   1794322   1793511   1792566  
  8310.000000   1791594   1790719   1790087   1789789   1789854  
  8300.000000   1790209   1790702   1791140   1791326   1791135  
  8290.000000   1790510   1789490   1788162   1786637   1785026  
  8280.000000   1783423   1781936   1780680   1779811   1779475  
  8270.000000   1779811   1780859   1782545   1784619   1786708  
  8260.000000   1788368   1789197   1788940   1787532   1785147  
  8250.000000   1782131   1778935   1775992   1773617   1771954  
  8240.000000   1770953   1770445   1770177   1769930   1769541  
  8230.000000   1768976   1768271   1767535   1766851   1766259  
  8220.000000   1765716   1765116   1764333   1763257   1761848  
  8210.000000   1760147   1758284   1756424   1754725   1753279  
  8200.000000   1752085   1751053   1750032   1748865   1747436  
  8190.000000   1745726   1743810   1741860   1740081   1738671  
  8180.000000   1737741   1737305   1737257   1737409   1737530  
  8170.000000   1737402   1736873   1735872   1734427   1732621  
  8160.000000   1730573   1728388   1726142   1723875   1721612  
  8150.000000   1719384   1717247   1715293   1713617   1712308  
  8140.000000   1711383   1710792   1710404   1710048   1709560  
  8130.000000   1708832   1707848   1706669   1705417   1704211  
  8120.000000   1703136   1702204   1701367   1700535   1699625  
  8110.000000   1698587   1697425   1696180   1694911   1693665  
  8100.000000   1692457   1691271   1690079   1688855   1687604  
  8090.000000   1686364   1685195   1684164   1683320   1682680  
  8080.000000   1682228   1681918   1681688   1681465   1681181  
  8070.000000   1680770   1680183   1679390   1678400   1677255  
  8060.000000   1676045   1674875   1673859   1673078   1672564  
  8050.000000   1672291   1672184   1672152   1672101   1671979  
  8040.000000   1671766   1671480   1671151   1670810   1670466  
  8030.000000   1670104   1669693   1669184   1668534   1667698  
  8020.000000   1666651   1665377   1663891   1662235   1660481  
  8010.000000   1658731   1657099   1655698   1654605   1653859  
  8000.000000   1653443   1653299   1653336   1653457   1653573  
  7990.000000   1653615   1653541   1653328   1652983   1652515  
  7980.000000   1651957   1651332   1650676   1650000   1649317  
  7970.000000   1648613   1647878   1647100   1646286   1645469  
  7960.000000   1644700   1644052   1643587   1643355   1643370  
  7950.000000   1643610   1644018   1644511   1644997   1645379  
  7940.000000   1645585   1645553   1645269   1644738   1644009  
  7930.000000   1643146   1642234   1641360   1640608   1640056  
  7920.000000   1639762   1639772   1640098   1640718   1641556  
  7910.000000   1642488   1643354   1643983   1644245   1644070  
  7900.000000   1643492   1642618   1641623   1640680   1639935  
  7890.000000   1639467   1639280   1639335   1639562   1639910  
  7880.000000   1640340   1640848   1641428   1642072   1642755  
  7870.000000   1643431   1644046   1644539   1644859   1644956  
  7860.000000   1644801   1644383   1643730   1642916   1642062  
  7850.000000   1641327   1640855   1640753   1641033   1641613  
  7840.000000   1642323   1642971   1643378   1643450   1643182  
  7830.000000   1642652   1641981   1641283   1640639   1640080  
  7820.000000   1639604   1639185   1638804   1638436   1638059  
  7810.000000   1637640   1637136   1636522   1635802   1635041  
  7800.000000   1634350   1633872   1633721   1633949   1634507  
  7790.000000   1635260   1636013   1636578   1636819   1636685  
  7780.000000   1636210   1635482   1634609   1633678   1632744  
  7770.000000   1631826   1630924   1630037   1629171   1628342  
  7760.000000   1627567   1626863   1626225   1625651   1625116  
  7750.000000   1624604   1624093   1623577   1623063   1622573  
  7740.000000   1622146   1621810   1621579   1621421   1621260  
  7730.000000   1620982   1620476   1619671   1618588   1617342  
  7720.000000   1616127   1615151   1614567   1614418   1614617  
  7710.000000   1614986   1615320   1615471   1615392   1615146  
  7700.000000   1614867   1614694   1614708   1614903   1615198  
  7690.000000   1615476   1615648   1615671   1615574   1615411  
  7680.000000   1615236   1615061   1614854   1614561   1614137  
  7670.000000   1613579   1612935   1612293   1611750   1611382  
  7660.000000   1611217   1611241   1611397   1611614   1611812  
  7650.000000   1611924   1611896   1611697   1611328   1610821  
  7640.000000   1610247   1609689   1609233   1608918   1608734  
  7630.000000   1608612   1608455   1608181   1607766   1607266  
  7620.000000   1606802   1606521   1606540   1606897   1607541  
  7610.000000   1608334   1609108   1609704   1610039   1610102  
  7600.000000   1609966   1609740   1609543   1609464   1609554  
  7590.000000   1609820   1610240   1610772   1611372   1612003  
  7580.000000   1612638   1613263   1613877   1614483   1615087  
  7570.000000   1615686   1616278   1616847   1617388   1617893  
  7560.000000   1618374   1618845   1619329   1619840   1620382  
  7550.000000   1620951   1621542   1622156   1622804   1623507  
  7540.000000   1624283   1625131   1626034   1626950   1627833  
  7530.000000   1628646   1629382   1630061   1630727   1631428  
  7520.000000   1632199   1633055   1633989   1634983   1636020  
  7510.000000   1637083   1638163   1639238   1640281   1641249  
  7500.000000   1642109   1642846   1643492   1644114   1644808  
  7490.000000   1645663   1646747   1648074   1649615   1651303  
  7480.000000   1653065   1654835   1656578   1658276   1659933  
  7470.000000   1661555   1663162   1664765   1666395   1668071  
  7460.000000   1669821   1671647   1673534   1675442   1677326  
  7450.000000   1679151   1680910   1682629   1684357   1686144  
  7440.000000   1688018   1689966   1691949   1693908   1695799  
  7430.000000   1697607   1699350   1701067   1702798   1704559  
  7420.000000   1706340   1708111   1709842   1711521   1713173  
  7410.000000   1714843   1716589   1718450   1720435   1722508  
  7400.000000   1724606   1726650   1728577   1730348   1731973  
  7390.000000   1733501   1735015   1736616   1738391   1740405  
  7380.000000   1742666   1745134   1747714   1750291   1752763  
  7370.000000   1755063   1757175   1759124   1760958   1762716  
  7360.000000   1764411   1766035   1767571   1769034   1770481  
  7350.000000   1772023   1773782   1775854   1778240   1780848  
  7340.000000   1783490   1785957   1788072   1789762   1791073  
  7330.000000   1792144   1793157   1794268   1795561   1797036  
  7320.000000   1798624   1800233   1801793   1803282   1804721  
  7310.000000   1806159   1807635   1809165   1810733   1812307  
  7300.000000   1813860   1815384   1816897   1818428   1819999  
  7290.000000   1821610   1823230   1824812   1826305   1827681  
  7280.000000   1828941   1830118   1831269   1832454   1833719  
  7270.000000   1835086   1836553   1838092   1839672   1841258  
  7260.000000   1842834   1844391   1845938   1847481   1849031  
  7250.000000   1850577   1852114   1853624   1855108   1856575  
  7240.000000   1858070   1859642   1861358   1863259   1865373  
  7230.000000   1867681   1870153   1872722   1875345   1877966  
  7220.000000   1880570   1883141   1885700   1888264   1890883  
  7210.000000   1893603   1896494   1899608   1902991   1906643  
  7200.000000   1910538   1914602   1918759   1922925   1927059  
  7190.000000   1931138   1935179   1939195   1943204   1947186  
  7180.000000   1951119   1954964   1958714   1962382   1966025  
  7170.000000   1969707   1973499   1977429   1981504   1985678  
  7160.000000   1989915   1994160   1998408   2002656   2006943  
  7150.000000   2011299   2015769   2020383   2025186   2030213  
  7140.000000   2035516   2041119   2047040   2053231   2059628  
  7130.000000   2066106   2072558   2078866   2084985   2090901  
  7120.000000   2096687   2102429   2108251   2114242   2120470  
  7110.000000   2126944   2133644   2140513   2147498   2154542  
  7100.000000   2161623   2168728   2175870   2183057   2190300  
  7090.000000   2197580   2204877   2212149   2219376   2226540  
  7080.000000   2233660   2240755   2247857   2254976   2262107  
  7070.000000   2269226   2276311   2283359   2290393   2297468  
  7060.000000   2304640   2311946   2319379   2326880   2334352  
  7050.000000   2341692   2348822   2355720   2362414   2368979  
  7040.000000   2375495   2382029   2388607   2395225   2401854  
  7030.000000   2408471   2415059   2421618   2428147   2434644  
  7020.000000   2441083   2447431   2453639   2459681   2465543  
  7010.000000   2471249   2476839   2482376   2487913   2493505  
  7000.000000   2499170   2504916   2510704   2516495   2522219  
  6990.000000   2527821   2533241   2538455   2543441   2548213  
  6980.000000   2552777   2557155   2561347   2565374   2569240  
  6970.000000   2572983   2576629   2580229   2583799   2587357  
  6960.000000   2590870   2594317   2597651   2600866   2603955  
  6950.000000   2606943   2609838   2612644   2615327   2617853  
  6940.000000   2620183   2622321   2624306   2626222   2628150  
  6930.000000   2630164   2632281   2634478   2636691   2638861  
  6920.000000   2640942   2642934   2644853   2646737   2648600  
  6910.000000   2650451   2652267   2654040   2655764   2657463  
  6900.000000   2659157   2660868   2662579   2664255   2665832  
  6890.000000   2667260   2668506   2669576   2670498   2671316  
  6880.000000   2672064   2672766   2673435   2674092   2674770  
  6870.000000   2675514   2676363   2677331   2678386   2679469  
  6860.000000   2680502   2681436   2682262   2683037   2683845  
  6850.000000   2684770   2685857   2687084   2688377   2689628  
  6840.000000   2690740   2691651   2692342   2692829   2693142  
  6830.000000   2693316   2693380   2693380   2693373   2693450  
  6820.000000   2693697   2694183   2694910   2695818   2696775  
  6810.000000   2697635   2698265   2698602   2698651   2698488  
  6800.000000   2698218   2697939   2697712   2697559   2697461  
  6790.000000   2697388   2697301   2697179   2697002   2696765  
  6780.000000   2696462   2696105   2695708   2695302   2694915  
  6770.000000   2694564   2694241   2693915   2693540   2693080  
  6760.000000   2692520   2691885   2691225   2690604   2690069  
  6750.000000   2689638   2689289   2688980   2688664   2688309  
  6740.000000   2687907   2687466   2687006   2686543   2686081  
  6730.000000   2685622   2685165   2684716   2684285   2683881  
  6720.000000   2683506   2683152   2682801   2682436   2682047  
  6710.000000   2681635   2681204   2680754   2680270   2679728  
  6700.000000   2679102   2678383   2677581   2676736   2675895  
  6690.000000   2675100   2674360   2673664   2672970   2672249  
  6680.000000   2671479   2670675   2669859   2669059   2668271  
  6670.000000   2667465   2666586   2665586   2664442   2663175  
  6660.000000   2661838   2660502   2659210   2657976   2656768  
  6650.000000   2655542   2654255   2652904   2651516   2650147  
  6640.000000   2648842   2647628   2646482   2645365   2644219  
  6630.000000   2643009   2641721   2640371   2638980   2637561  
  6620.000000   2636107   2634593   2632990   2631284   2629481  
  6610.000000   2627618   2625739   2623892   2622102   2620379  
  6600.000000   2618707   2617069   2615441   2613805   2612145  
  6590.000000   2610449   2608703   2606901   2605046   2603152  
  6580.000000   2601247   2599367   2597546   2595812   2594181  
  6570.000000   2592656   2591227   2589876   2588576   2587293  
  6560.000000   2585990   2584633   2583197   2581678   2580089  
  6550.000000   2578459   2576824   2575206   2573616   2572043  
  6540.000000   2570471   2568886   2567287   2565687   2564105  
  6530.000000   2562557   2561043   2559555   2558083   2556629  
  6520.000000   2555215   2553875   2552647   2551542   2550538  
  6510.000000   2549573   2548569   2547452   2546188   2544789  
  6500.000000   2543315   2541845   2540453   2539180   2538032  
  6490.000000   2536983   2535995   2535040   2534098   2533165  
  6480.000000   2532235   2531293   2530311   2529257   2528112  
  6470.000000   2526876   2525577   2524258   2522967   2521735  
  6460.000000   2520571   2519457   2518365   2517265   2516137  
  6450.000000   2514976   2513791   2512595   2511404   2510226  
  6440.000000   2509071   2507938   2506831   2505745   2504683  
  6430.000000   2503646   2502647   2501704   2500844   2500091  
  6420.000000   2499456   2498922   2498455   2497994   2497484  
  6410.000000   2496883   2496189   2495423   2494637   2493877  
  6400.000000   2493180   2492552   2491982   2491451   2490949  
  6390.000000   2490484   2490080   2489763   2489543   2489410  
  6380.000000   2489326   2489240   2489105   2488889   2488584  
  6370.000000   2488203   2487769   2487310   2486847   2486405  
  6360.000000   2486003   2485666   2485408   2485236   2485126  
  6350.000000   2485034   2484890   2484625   2484181   2483532  
  6340.000000   2482683   2481679   2480573   2479431   2478306  
  6330.000000   2477241   2476258   2475368   2474559   2473811  
  6320.000000   2473080   2472318   2471475   2470519   2469435  
  6310.000000   2468243   2466980   2465694   2464421   2463186  
  6300.000000   2461985   2460807   2459626   2458431   2457210  
  6290.000000   2455963   2454689   2453387   2452049   2450668  
  6280.000000   2449236   2447753   2446219   2444641   2443018  
  6270.000000   2441355   2439649   2437909   2436147   2434385  
  6260.000000   2432641   2430930   2429248   2427584   2425915  
  6250.000000   2424224   2422500   2420752   2418993   2417243  
  6240.000000   2415512   2413796   2412082   2410349   2408580  
  6230.000000   2406763   2404901   2403001   2401077   2399143  
  6220.000000   2397218   2395323   2393478   2391699   2389992  
  6210.000000   2388348   2386746   2385158   2383564   2381962  
  6200.000000   2380372   2378828   2377363   2375991   2374695  
  6190.000000   2373425   2372123   2370733   2369234   2367641  
  6180.000000   2366002   2364379   2362826   2361369   2360006  
  6170.000000   2358709   2357440   2356170   2354883   2353580  
  6160.000000   2352271   2350968   2349682   2348414   2347166  
  6150.000000   2345935   2344719   2343509   2342294   2341054  
  6140.000000   2339774   2338444   2337068   2335670   2334282  
  6130.000000   2332942   2331681   2330510   2329429   2328418  
  6120.000000   2327454   2326512   2325570   2324610   2323620  
  6110.000000   2322592   2321531   2320450   2319384   2318370  
  6100.000000   2317453   2316662   2316008   2315470   2315014  
  6090.000000   2314590   2314159   2313696   2313203   2312695  
  6080.000000   2312202   2311746   2311348   2311011   2310737  
  6070.000000   2310517   2310350   2310226   2310153   2310122  
  6060.000000   2310143   2310213   2310346   2310540   2310813  
  6050.000000   2311161   2311595   2312105   2312701   2313379  
  6040.000000   2314157   2315044   2316067   2317238   2318577  
  6030.000000   2320080   2321750   2323564   2325511   2327555  
  6020.000000   2329674   2331823   2333976   2336093   2338168  
  6010.000000   2340186   2342174   2344145   2346142   2348180  
  6000.000000   2350283   2352448   2354683   2356983   2359367  
  5990.000000   2361847   2364456   2367209   2370129   2373210  
  5980.000000   2376449   2379819   2383307   2386883   2390539  
  5970.000000   2394252   2398020   2401820   2405660   2409530  
  5960.000000   2413447   2417411   2421441   2425531   2429682  
  5950.000000   2433878   2438116   2442391   2446721   2451122  
  5940.000000   2455616   2460213   2464905   2469670   2474471  
  5930.000000   2479277   2484060   2488808   2493514   2498172  
  5920.000000   2502759   2507244   2511581   2515731   2519664  
  5910.000000   2523376   2526878   2530202   2533378   2536440  
  5900.000000   2539408   2542315   2545180   2548042   2550928  
  5890.000000   2553873   2556880   2559948   2563045   2566141  
  5880.000000   2569197   2572192   2575112   2577957   2580730  
  5870.000000   2583434   2586073   2588650   2591174   2593654  
  5860.000000   2596110   2598556   2601004   2603462   2605938  
  5850.000000   2608441   2610989   2613599   2616287   2619054  
  5840.000000   2621885   2624748   2627610   2630443   2633244  
  5830.000000   2636029   2638831   2641680   2644592   2647558  
  5820.000000   2650554   2653546   2656507   2659427   2662309  
  5810.000000   2665161   2667978   2670751   2673442   2676040  
  5800.000000   2678518   2680915   2683250   2685600   2687977  
  5790.000000   2690409   2692829   2695169   2697282   2699040  
  5780.000000   2700275   2700873   2700716   2699765   2698012  
  5770.000000   2695545   2692493   2689060   2685447   2681869  
  5760.000000   2678466   2675344   2672518   2669983   2667689  
  5750.000000   2665607   2663706   2661977   2660407   2658982  
  5740.000000   2657681   2656470   2655330   2654237   2653196  
  5730.000000   2652198   2651257   2650358   2649500   2648659  
  5720.000000   2647836   2647023   2646235   2645480   2644770  
  5710.000000   2644100   2643464   2642848   2642251   2641674  
  5700.000000   2641133   2640641   2640203   2639817   2639466  
  5690.000000   2639140   2638825   2638530   2638255   2638016  
  5680.000000   2637796   2637575   2637299   2636914   2636352  
  5670.000000   2635567   2634513   2633172   2631528   2629588  
  5660.000000   2627369   2624919   2622298   2619591   2616876  
  5650.000000   2614228   2611687   2609272   2606971   2604776  
  5640.000000   2602673   2600669   2598771   2596985   2595303  
  5630.000000   2593698   2592136   2590577   2589010   2587433  
  5620.000000   2585875   2584358   2582905   2581510   2580160  
  5610.000000   2578826   2577500   2576180   2574893   2573663  
  5600.000000   2572518   2571458   2570475   2569540   2568633  
  5590.000000   2567738   2566858   2565999   2565169   2564364  
  5580.000000   2563571   2562773   2561955   2561116   2560261  
  5570.000000   2559399   2558531   2557643   2556705   2555686  
  5560.000000   2554557   2553309   2551954   2550518   2549036  
  5550.000000   2547540   2546052   2544588   2543156   2541767  
  5540.000000   2540427   2539140   2537903   2536706   2535531  
  5530.000000   2534366   2533203   2532046   2530902   2529777  
  5520.000000   2528668   2527560   2526432   2525267   2524056  
  5510.000000   2522806   2521533   2520254   2518975   2517693  
  5500.000000   2516395   2515068   2513706   2512318   2510909  
  5490.000000   2509490   2508049   2506566   2505011   2503364  
  5480.000000   2501621   2499806   2497953   2496104   2494281  
  5470.000000   2492489   2490709   2488926   2487123   2485308  
  5460.000000   2483496   2481704   2479932   2478162   2476360  
  5450.000000   2474491   2472537   2470506   2468434   2466368  
  5440.000000   2464349   2462395   2460508   2458670   2456869  
  5430.000000   2455097   2453365   2451677   2450045   2448461  
  5420.000000   2446924   2445427   2443996   2442656   2441462  
  5410.000000   2440438   2439602   2438917   2438349   2437837  
  5400.000000   2437367   2436929   2436569   2436323   2436251  
  5390.000000   2436362   2436675   2437161   2437828   2438658  
  5380.000000   2439682   2440897   2442326   2443935   2445714  
  5370.000000   2447605   2449609   2451697   2453920   2456285  
  5360.000000   2458865   2461658   2464726   2468051   2471697  
  5350.000000   2475658   2480017   2484773   2490001   2495667  
  5340.000000   2501815   2508385   2515428   2522893   2530852  
  5330.000000   2539259   2548180   2557548   2567422   2577741  
  5320.000000   2588599   2599983   2612041   2624777   2638341  
  5310.000000   2652700   2667950   2684008   2700939   2718659  
  5300.000000   2737253   2756674   2777038   2798319   2820630  
  5290.000000   2843908   2868192   2893333   2919265   2945786  
  5280.000000   2972828   3000274   3028187   3056603   3085686  
  5270.000000   3115493   3146070   3177296   3208984   3240878  
  5260.000000   3272756   3304492   3336058   3367524   3398941  
  5250.000000   3430343   3461607   3492588   3523008   3552721  
  5240.000000   3581556   3609575   3636799   3663430   3689503  
  5230.000000   3715143   3740234   3764742   3788437   3811259  
  5220.000000   3833045   3853874   3873732   3892827   3911204  
  5210.000000   3929048   3946306   3963013   3978978   3994158  
  5200.000000   4008368   4021662   4033990   4045527   4056288  
  5190.000000   4066432   4075910   4084792   4092967   4100486  
  5180.000000   4107266   4113398   4118836   4123666   4127816  
  5170.000000   4131333   4134134   4136285   4137758   4138677  
  5160.000000   4139049   4138991   4138469   4137538   4136124  
  5150.000000   4134265   4131918   4129156   4125973   4122444  
  5140.000000   4118549   4114337   4109777   4104925   4099785  
  5130.000000   4094443   4088928   4083309   4077584   4071775  
  5120.000000   4065849   4059816   4053660   4047415   4041089  
  5110.000000   4034714   4028285   4021811   4015275   4008686  
  5100.000000   4002046   3995386   3988722   3982081   3975464  
  5090.000000   3968877   3962307   3955762   3949240   3942758  
  5080.000000   3936314   3929906   3923501   3917070   3910570  
  5070.000000   3903982   3897291   3890511   3883652   3876733  
  5060.000000   3869752   3862711   3855594   3848404   3841135  
  5050.000000   3833810   3826435   3819029   3811589   3804117  
  5040.000000   3796601   3789042   3781437   3773799   3766130  
  5030.000000   3758440   3750724   3742982   3735216   3727439  
  5020.000000   3719679   3711968   3704338   3696805   3689378  
  5010.000000   3682042   3674789   3667605   3660506   3653504  
  5000.000000   3646641   3639936   3633424   3627099   3620977  
  4990.000000   3615036   3609297   3603748   3598425   3593321  
  4980.000000   3588471   3583854   3579492   3575358   3571483  
  4970.000000   3567851   3564510   3561450   3558715   3556275  
  4960.000000   3554162   3552332   3550820   3549601   3548733  
  4950.000000   3548210   3548099   3548385   3549115   3550248  
  4940.000000   3551810   3553746   3556085   3558776   3561853  
  4930.000000   3565271   3569066   3573190   3577677   3582485  
  4920.000000   3587649   3593136   3598984   3605165   3611718  
  4910.000000   3618622   3625910   3633560   3641584   3649940  
  4900.000000   3658606   3667515   3676618   3685849   3695163  
  4890.000000   3704519   3713884   3723228   3732506   3741678  
  4880.000000   3750675   3759456   3767951   3776136   3783955  
  4870.000000   3791400   3798410   3804979   3811040   3816595  
  4860.000000   3821597   3826081   3830037   3833530   3836567  
  4850.000000   3839220   3841495   3843461   3845126   3846563  
  4840.000000   3847787   3848865   3849811   3850674   3851458  
  4830.000000   3852201   3852909   3853618   3854339   3855100  
  4820.000000   3855904   3856759   3857654   3858585   3859549  
  4810.000000   3860548   3861594   3862694   3863857   3865079  
  4800.000000   3866352   3867662   3869002   3870366   3871760  
  4790.000000   3873191   3874672   3876204   3877788   3879417  
  4780.000000   3881078   3882759   3884446   3886128   3887789  
  4770.000000   3889413   3890987   3892498   3893939   3895313  
  4760.000000   3896622   3897877   3899079   3900236   3901343  
  4750.000000   3902405   3903419   3904395   3905330   3906230  
  4740.000000   3907081   3907875   3908585   3909197   3909696  
  4730.000000   3910084   3910367   3910563   3910687   3910751  
  4720.000000   3910761   3910722   3910641   3910529   3910409  
  4710.000000   3910305   3910246   3910255   3910356   3910566  
  4700.000000   3910906   3911396   3912061   3912918   3913984  
  4690.000000   3915254   3916719   3918342   3920094   3921925  
  4680.000000   3923802   3925679   3927531   3929317   3931021  
  4670.000000   3932616   3934109   3935505   3936846   3938171  
  4660.000000   3939541   3941001   3942605   3944379   3946353  
  4650.000000   3948532   3950924   3953521   3956310   3959267  
  4640.000000   3962361   3965557   3968822   3972127   3975448  
  4630.000000   3978769   3982066   3985315   3988476   3991510  
  4620.000000   3994367   3997015   3999422   4001587   4003506  
  4610.000000   4005205   4006688   4007987   4009100   4010060  
  4600.000000   4010867   4011562   4012149   4012664   4013094  
  4590.000000   4013444   4013666   4013734   4013584   4013196  
  4580.000000   4012537   4011624   4010474   4009139   4007656  
  4570.000000   4006075   4004417   4002707   4000941   3999131  
  4560.000000   3997268   3995368   3993435   3991492   3989546  
  4550.000000   3987612   3985685   3983764   3981837   3979895  
  4540.000000   3977938   3975965   3973995   3972037   3970119  
  4530.000000   3968249   3966457   3964745   3963146   3961664  
  4520.000000   3960339   3959170   3958200   3957412   3956841  
  4510.000000   3956459   3956310   3956375   3956735   3957399  
  4500.000000   3958484   3960015   3962114   3964793   3968151  
  4490.000000   3972171   3976928   3982378   3988579   3995470  
  4480.000000   4003092   4011373   4020343   4029924   4040139  
  4470.000000   4050909   4062243   4074050   4086320   4098951  
  4460.000000   4111924   4125147   4138606   4152234   4166024  
  4450.000000   4179924   4193927   4207991   4222114   4236283  
  4440.000000   4250513   4264819   4279212   4293704   4308263  
  4430.000000   4322861   4337412   4351861   4366101   4380090  
  4420.000000   4393736   4407027   4419888   4432318   4444240  
  4410.000000   4455638   4466423   4476573   4486006   4494727  
  4400.000000   4502699   4509984   4516612   4522704   4528343  
  4390.000000   4533681   4538820   4543900   4548998   4554211  
  4380.000000   4559567   4565111   4570837   4576761   4582872  
  4370.000000   4589186   4595698   4602417   4609327   4616411  
  4360.000000   4623630   4630950   4638313   4645695   4653015  
  4350.000000   4660258   4667316   4674189   4680779   4687148  
  4340.000000   4693269   4699255   4705067   4710681   4715811  
  4330.000000   4720083   4722889   4723646   4721808   4717142  
  4320.000000   4709728   4700082   4688979   4677390   4666196  
  4310.000000   4656125   4647560   4640631   4635190   4630997  
  4300.000000   4627760   4625250   4623315   4621855   4620842  
  4290.000000   4620213   4619971   4620056   4620497   4621273  
  4280.000000   4622443   4624014   4626009   4628410   4631173  
  4270.000000   4634249   4637553   4640999   4644429   4647639  
  4260.000000   4650322   4652128   4652685   4651701   4649021  
  4250.000000   4644707   4639014   4632384   4625313   4618323  
  4240.000000   4611793   4605998   4601005   4596786   4593181  
  4230.000000   4590027   4587133   4584352   4581567   4578700  
  4220.000000   4575732   4572661   4569567   4566523   4563679  
  4210.000000   4561133   4559017   4557367   4556211   4555483  
  4200.000000   4555117   4554990   4555025   4555128   4555281  
  4190.000000   4555452   4555687   4555994   4556446   4557050  
  4180.000000   4557871   4558902   4560193   4561729   4563560  
  4170.000000   4565675   4568134   4570932   4574132   4577718  
  4160.000000   4581738   4586153   4590994   4596208   4601827  
  4150.000000   4607809   4614202   4620980   4628207   4635862  
  4140.000000   4644005   4652600   4661687   4671207   4681175  
  4130.000000   4691514   4702231   4713258   4724627   4736308  
  4120.000000   4748371   4760822   4773745   4787149   4801093  
  4110.000000   4815556   4830550   4846012   4861906   4878135  
  4100.000000   4894632   4911293   4928055   4944849   4961652  
  4090.000000   4978455   4995271   5012121   5029014   5045967  
  4080.000000   5062962   5080007   5097061   5114125   5131129  
  4070.000000   5148050   5164772   5181244   5197328   5212989  
  4060.000000   5228114   5242713   5256707   5270129   5282901  
  4050.000000   5295064   5306542   5317399   5327575   5337151  
  4040.000000   5346062   5354371   5361992   5368982   5375267  
  4030.000000   5380938   5385950   5390400   5394232   5397490  
  4020.000000   5400063   5401987   5403229   5403875   5403908  
  4010.000000   5403478   5402669   5401496   5399747   5397446  
  4000.000000   5394858  
##END= 
