##TITLE= Sample 002 By ssteindl date Dienstag, November 20 2018
##JCAMP-DX= 4.24
##DATA TYPE= INFRARED SPECTRUM
##ORIGIN= Exported PE Spectrum Data File
##OWNER= Sandra Steindl
##DATE= 18/11/20
##TIME= 13:18:27.00
##SPECTROMETER/DATA SYSTEM= PERKIN-ELMER Frontier FT-IR/NIR IR
##INSTRUMENT PARAMETERS=
  APODIZATION=stark
  DETECTOR=INGAAS
##RESOLUTION= 16.000000
##DELTAX= -2.000000
##XUNITS= 1/CM
##YUNITS= A
##XFACTOR= 1.00
##YFACTOR= 0.00000011920928955078
##FIRSTX= 10000.00
##LASTX= 4000.00
##NPOINTS= 3001
##FIRSTY= 0.204688
##MAXY= 0.593353
##MINY= 0.180662
##XYDATA= (X++(Y..Y))
 10000.000000   1717050   1716622   1717466   1720832   1725813  
  9990.000000   1730229   1732531   1732290   1729684   1725222  
  9980.000000   1719882   1714560   1709583   1704649   1699300  
  9970.000000   1693304   1686889   1680870   1676367   1674440  
  9960.000000   1675591   1679647   1685732   1692618   1699103  
  9950.000000   1704290   1707826   1709712   1710248   1709700  
  9940.000000   1708297   1706174   1703539   1700745   1698328  
  9930.000000   1696905   1696958   1698709   1701915   1706015  
  9920.000000   1710142   1713454   1715264   1715247   1713477  
  9910.000000   1710364   1706513   1702523   1698827   1695614  
  9900.000000   1692857   1690436   1688251   1686343   1684827  
  9890.000000   1683891   1683583   1683830   1684313   1684642  
  9880.000000   1684408   1683399   1681659   1679477   1677271  
  9870.000000   1675353   1673843   1672522   1671033   1668918  
  9860.000000   1665908   1661922   1657144   1651913   1646633  
  9850.000000   1641740   1637666   1634884   1633898   1635128  
  9840.000000   1638807   1644726   1652213   1660099   1667013  
  9830.000000   1671696   1673391   1672092   1668582   1664229  
  9820.000000   1660634   1659174   1660687   1665226   1672081  
  9810.000000   1679906   1687029   1691828   1693107   1690442  
  9800.000000   1684278   1675916   1667137   1659846   1655505  
  9790.000000   1654842   1657648   1662927   1669224   1675063  
  9780.000000   1679336   1681496   1681522   1679731   1676542  
  9770.000000   1672318   1667419   1662257   1657469   1653838  
  9760.000000   1652144   1652895   1656048   1661015   1666716  
  9750.000000   1671972   1675798   1677688   1677723   1676375  
  9740.000000   1674341   1672137   1670031   1667959   1665724  
  9730.000000   1663203   1660469   1657899   1655990   1655333  
  9720.000000   1656288   1659011   1663221   1668326   1673432  
  9710.000000   1677522   1679719   1679394   1676442   1671184  
  9700.000000   1664380   1656948   1649749   1643374   1638067  
  9690.000000   1633856   1630708   1628771   1628323   1629718  
  9680.000000   1633019   1637855   1643295   1648061   1650960  
  9670.000000   1651221   1648905   1644727   1639926   1635646  
  9660.000000   1632657   1631069   1630495   1630346   1630203  
  9650.000000   1630068   1630292   1631404   1633678   1637031  
  9640.000000   1640911   1644607   1647479   1649227   1649959  
  9630.000000   1650000   1649741   1649324   1648681   1647527  
  9620.000000   1645611   1642845   1639362   1635499   1631615  
  9610.000000   1628083   1625178   1623222   1622525   1623436  
  9600.000000   1626121   1630426   1635704   1640856   1644611  
  9590.000000   1645887   1644247   1640035   1634358   1628632  
  9580.000000   1624140   1621572   1620890   1621475   1622461  
  9570.000000   1623171   1623308   1623035   1622726   1622769  
  9560.000000   1623299   1624194   1625124   1625741   1625814  
  9550.000000   1625263   1624147   1622548   1620553   1618241  
  9540.000000   1615743   1613273   1611090   1609391   1608201  
  9530.000000   1607279   1606214   1604558   1602083   1598901  
  9520.000000   1595471   1592437   1590382   1589626   1590144  
  9510.000000   1591636   1593703   1596015   1598429   1600925  
  9500.000000   1603515   1606077   1608317   1609829   1610257  
  9490.000000   1609487   1607731   1605490   1603383   1601934  
  9480.000000   1601415   1601781   1602726   1603799   1604527  
  9470.000000   1604500   1603433   1601181   1597815   1593619  
  9460.000000   1589134   1585060   1582105   1580795   1581284  
  9450.000000   1583337   1586388   1589807   1593089   1596069  
  9440.000000   1598859   1601719   1604789   1607900   1610600  
  9430.000000   1612243   1612339   1610673   1607482   1603299  
  9420.000000   1598775   1594449   1590574   1587222   1584342  
  9410.000000   1582034   1580521   1580144   1581114   1583364  
  9400.000000   1586435   1589568   1591901   1592737   1591782  
  9390.000000   1589217   1585657   1581895   1578694   1576563  
  9380.000000   1575717   1576085   1577388   1579204   1581008  
  9370.000000   1582264   1582483   1581400   1579034   1575764  
  9360.000000   1572223   1569141   1567126   1566439   1566943  
  9350.000000   1568098   1569207   1569612   1568940   1567152  
  9340.000000   1564522   1561483   1558523   1556039   1554343  
  9330.000000   1553598   1553869   1555088   1557065   1559506  
  9320.000000   1562034   1564322   1566162   1567600   1568881  
  9310.000000   1570351   1572269   1574642   1577224   1579519  
  9300.000000   1581007   1581241   1580046   1577525   1574017  
  9290.000000   1569998   1565923   1562231   1559268   1557395  
  9280.000000   1556866   1557860   1560263   1563714   1567541  
  9270.000000   1570971   1573287   1574042   1573199   1571059  
  9260.000000   1568173   1565011   1561885   1558794   1555601  
  9250.000000   1552130   1548370   1544563   1541176   1538780  
  9240.000000   1537799   1538415   1540450   1543491   1546989  
  9230.000000   1550435   1553483   1555953   1557846   1559209  
  9220.000000   1560132   1560647   1560783   1560540   1559969  
  9210.000000   1559147   1558224   1557374   1556764   1556502  
  9200.000000   1556570   1556863   1557174   1557306   1557105  
  9190.000000   1556566   1555836   1555206   1554989   1555416  
  9180.000000   1556499   1558047   1559692   1561048   1561820  
  9170.000000   1561937   1561535   1560892   1560269   1559804  
  9160.000000   1559454   1559004   1558171   1556708   1554530  
  9150.000000   1551707   1548430   1544946   1541490   1538278  
  9140.000000   1535491   1533314   1531919   1531439   1531882  
  9130.000000   1533093   1534742   1536403   1537665   1538250  
  9120.000000   1538102   1537377   1536400   1535482   1534855  
  9110.000000   1534532   1534405   1534226   1533765   1532845  
  9100.000000   1531441   1529636   1527612   1525609   1523910  
  9090.000000   1522811   1522550   1523304   1525122   1527914  
  9080.000000   1531409   1535226   1538933   1542160   1544663  
  9070.000000   1546357   1547313   1547671   1547588   1547143  
  9060.000000   1546345   1545156   1543558   1541611   1539462  
  9050.000000   1537368   1535598   1534395   1533844   1533897  
  9040.000000   1534341   1534897   1535259   1535206   1534645  
  9030.000000   1533638   1532357   1531031   1529889   1529077  
  9020.000000   1528658   1528574   1528712   1528898   1528951  
  9010.000000   1528700   1528023   1526867   1525266   1523384  
  9000.000000   1521503   1519985   1519163   1519266   1520323  
  8990.000000   1522138   1524306   1526338   1527806   1528448  
  8980.000000   1528230   1527310   1525990   1524546   1523181  
  8970.000000   1521939   1520802   1519699   1518602   1517536  
  8960.000000   1516592   1515884   1515503   1515518   1515966  
  8950.000000   1516893   1518327   1520275   1522668   1525339  
  8940.000000   1528022   1530412   1532265   1533466   1534086  
  8930.000000   1534316   1534394   1534459   1534508   1534376  
  8920.000000   1533842   1532746   1531092   1529093   1527085  
  8910.000000   1525440   1524404   1524073   1524364   1525127  
  8900.000000   1526194   1527456   1528829   1530217   1531451  
  8890.000000   1532297   1532535   1532045   1530926   1529463  
  8880.000000   1528090   1527175   1526903   1527169   1527651  
  8870.000000   1527941   1527749   1527038   1526059   1525246  
  8860.000000   1525021   1525638   1527082   1529113   1531367  
  8850.000000   1533524   1535407   1537016   1538452   1539827  
  8840.000000   1541188   1542474   1543564   1544318   1544660  
  8830.000000   1544554   1544023   1543078   1541750   1540087  
  8820.000000   1538209   1536345   1534794   1533894   1533883  
  8810.000000   1534849   1536657   1539034   1541638   1544183  
  8800.000000   1546507   1548545   1550302   1551730   1552742  
  8790.000000   1553173   1552932   1552033   1550707   1549332  
  8780.000000   1548353   1548151   1548899   1550565   1552897  
  8770.000000   1555586   1558341   1561003   1563512   1565866  
  8760.000000   1568034   1569910   1571323   1572083   1572088  
  8750.000000   1571362   1570115   1568665   1567373   1566526  
  8740.000000   1566265   1566566   1567255   1568091   1568831  
  8730.000000   1569313   1569494   1569463   1569420   1569612  
  8720.000000   1570263   1571502   1573329   1575610   1578132  
  8710.000000   1580669   1583046   1585187   1587114   1588906  
  8700.000000   1590623   1592256   1593721   1594873   1595597  
  8690.000000   1595834   1595638   1595129   1594456   1593743  
  8680.000000   1593039   1592367   1591726   1591192   1590905  
  8670.000000   1591067   1591849   1593309   1595334   1597624  
  8660.000000   1599795   1601445   1602327   1602354   1601675  
  8650.000000   1600564   1599397   1598513   1598199   1598642  
  8640.000000   1599949   1602137   1605115   1608700   1612621  
  8630.000000   1616576   1620278   1623524   1626234   1628450  
  8620.000000   1630304   1631933   1633421   1634755   1635861  
  8610.000000   1636660   1637143   1637409   1637627   1637994  
  8600.000000   1638623   1639517   1640535   1641486   1642200  
  8590.000000   1642614   1642809   1642969   1643310   1643973  
  8580.000000   1644965   1646176   1647432   1648601   1649658  
  8570.000000   1650717   1651987   1653678   1655895   1658569  
  8560.000000   1661449   1664163   1666332   1667679   1668133  
  8550.000000   1667824   1667066   1666247   1665735   1665776  
  8540.000000   1666428   1667584   1669007   1670450   1671709  
  8530.000000   1672719   1673533   1674330   1675300   1676588  
  8520.000000   1678213   1680044   1681857   1683357   1684327  
  8510.000000   1684637   1684344   1683602   1682649   1681715  
  8500.000000   1680984   1680578   1680561   1680994   1681964  
  8490.000000   1683592   1685975   1689148   1693010   1697306  
  8480.000000   1701629   1705523   1708594   1710615   1711601  
  8470.000000   1711794   1711626   1711550   1711925   1712887  
  8460.000000   1714319   1715894   1717179   1717806   1717590  
  8450.000000   1716616   1715189   1713771   1712809   1712626  
  8440.000000   1713301   1714694   1716511   1718432   1720215  
  8430.000000   1721773   1723153   1724493   1725896   1727384  
  8420.000000   1728847   1730099   1730957   1731318   1731225  
  8410.000000   1730834   1730351   1729945   1729651   1729385  
  8400.000000   1728951   1728181   1726994   1725486   1723898  
  8390.000000   1722548   1721720   1721554   1721992   1722791  
  8380.000000   1723610   1724120   1724118   1723579   1722666  
  8370.000000   1721674   1720942   1720757   1721274   1722489  
  8360.000000   1724247   1726286   1728301   1730011   1731220  
  8350.000000   1731852   1731940   1731599   1730971   1730175  
  8340.000000   1729278   1728292   1727204   1726023   1724807  
  8330.000000   1723685   1722799   1722275   1722128   1722266  
  8320.000000   1722491   1722568   1722322   1721688   1720759  
  8310.000000   1719717   1718771   1718054   1717588   1717285  
  8300.000000   1717019   1716717   1716422   1716296   1716547  
  8290.000000   1717327   1718630   1720264   1721881   1723097  
  8280.000000   1723624   1723373   1722481   1721252   1720026  
  8270.000000   1719071   1718475   1718174   1717984   1717722  
  8260.000000   1717274   1716627   1715850   1715012   1714130  
  8250.000000   1713132   1711880   1710247   1708195   1705852  
  8240.000000   1703487   1701478   1700175   1699838   1700515  
  8230.000000   1702068   1704154   1706331   1708133   1709162  
  8220.000000   1709168   1708055   1705904   1702910   1699367  
  8210.000000   1695584   1691859   1688425   1685444   1683009  
  8200.000000   1681142   1679832   1679006   1678584   1678438  
  8190.000000   1678447   1678472   1678401   1678156   1677701  
  8180.000000   1677053   1676253   1675362   1674416   1673440  
  8170.000000   1672428   1671371   1670257   1669085   1667854  
  8160.000000   1666557   1665169   1663654   1661979   1660136  
  8150.000000   1658169   1656168   1654268   1652597   1651269  
  8140.000000   1650328   1649776   1649558   1649604   1649830  
  8130.000000   1650152   1650476   1650683   1650640   1650201  
  8120.000000   1649259   1647756   1645733   1643310   1640679  
  8110.000000   1638045   1635590   1633444   1631671   1630292  
  8100.000000   1629282   1628603   1628184   1627931   1627718  
  8090.000000   1627408   1626887   1626102   1625093   1623971  
  8080.000000   1622901   1622007   1621349   1620862   1620412  
  8070.000000   1619821   1618973   1617845   1616534   1615211  
  8060.000000   1614055   1613181   1612601   1612236   1611966  
  8050.000000   1611699   1611418   1611186   1611103   1611245  
  8040.000000   1611609   1612086   1612498   1612654   1612428  
  8030.000000   1611791   1610831   1609696   1608543   1607482  
  8020.000000   1606551   1605735   1604994   1604310   1603688  
  8010.000000   1603161   1602739   1602397   1602053   1601598  
  8000.000000   1600932   1600013   1598883   1597656   1596488  
  7990.000000   1595517   1594825   1594408   1594198   1594086  
  7980.000000   1593967   1593764   1593443   1593002   1592467  
  7970.000000   1591869   1591252   1590660   1590150   1589766  
  7960.000000   1589536   1589444   1589440   1589444   1589380  
  7950.000000   1589207   1588937   1588629   1588365   1588209  
  7940.000000   1588172   1588211   1588249   1588211   1588062  
  7930.000000   1587827   1587567   1587351   1587207   1587102  
  7920.000000   1586959   1586684   1586229   1585609   1584910  
  7910.000000   1584240   1583685   1583262   1582913   1582545  
  7900.000000   1582085   1581538   1581004   1580648   1580633  
  7890.000000   1581041   1581826   1582811   1583754   1584412  
  7880.000000   1584648   1584449   1583942   1583318   1582776  
  7870.000000   1582451   1582393   1582576   1582938   1583423  
  7860.000000   1584003   1584688   1585491   1586414   1587417  
  7850.000000   1588428   1589341   1590057   1590499   1590633  
  7840.000000   1590476   1590086   1589557   1588993   1588490  
  7830.000000   1588109   1587859   1587696   1587531   1587274  
  7820.000000   1586859   1586296   1585663   1585104   1584769  
  7810.000000   1584768   1585118   1585744   1586488   1587181  
  7800.000000   1587690   1587962   1588030   1587984   1587914  
  7790.000000   1587864   1587805   1587640   1587250   1586535  
  7780.000000   1585465   1584092   1582541   1580981   1579572  
  7770.000000   1578448   1577676   1577275   1577204   1577395  
  7760.000000   1577754   1578180   1578574   1578842   1578906  
  7750.000000   1578707   1578224   1577463   1576488   1575387  
  7740.000000   1574290   1573325   1572602   1572182   1572055  
  7730.000000   1572149   1572340   1572513   1572585   1572554  
  7720.000000   1572487   1572495   1572679   1573069   1573605  
  7710.000000   1574128   1574444   1574371   1573817   1572798  
  7700.000000   1571439   1569935   1568483   1567249   1566323  
  7690.000000   1565731   1565445   1565411   1565560   1565815  
  7680.000000   1566088   1566284   1566315   1566121   1565700  
  7670.000000   1565107   1564456   1563875   1563479   1563324  
  7660.000000   1563406   1563655   1563974   1564260   1564439  
  7650.000000   1564464   1564323   1564022   1563587   1563057  
  7640.000000   1562492   1561964   1561551   1561310   1561263  
  7630.000000   1561382   1561606   1561858   1562088   1562283  
  7620.000000   1562477   1562722   1563060   1563489   1563965  
  7610.000000   1564406   1564737   1564923   1564992   1565026  
  7600.000000   1565130   1565387   1565826   1566408   1567037  
  7590.000000   1567597   1567986   1568152   1568105   1567912  
  7580.000000   1567675   1567504   1567488   1567683   1568092  
  7570.000000   1568670   1569325   1569940   1570408   1570650  
  7560.000000   1570659   1570479   1570214   1569968   1569831  
  7550.000000   1569833   1569958   1570152   1570377   1570632  
  7540.000000   1570977   1571510   1572327   1573478   1574933  
  7530.000000   1576573   1578227   1579718   1580923   1581799  
  7520.000000   1582396   1582822   1583214   1583680   1584286  
  7510.000000   1585036   1585902   1586825   1587757   1588654  
  7500.000000   1589491   1590257   1590960   1591619   1592270  
  7490.000000   1592960   1593743   1594662   1595753   1597014  
  7480.000000   1598421   1599918   1601444   1602935   1604349  
  7470.000000   1605669   1606915   1608128   1609376   1610714  
  7460.000000   1612187   1613792   1615492   1617202   1618831  
  7450.000000   1620295   1621556   1622625   1623571   1624488  
  7440.000000   1625480   1626619   1627938   1629427   1631057  
  7430.000000   1632796   1634622   1636530   1638517   1640580  
  7420.000000   1642697   1644837   1646963   1649047   1651082  
  7410.000000   1653067   1655010   1656896   1658696   1660363  
  7400.000000   1661861   1663186   1664378   1665522   1666721  
  7390.000000   1668062   1669577   1671236   1672950   1674616  
  7380.000000   1676147   1677518   1678768   1679991   1681294  
  7370.000000   1682757   1684410   1686221   1688115   1690001  
  7360.000000   1691806   1693494   1695070   1696570   1698041  
  7350.000000   1699528   1701054   1702618   1704195   1705747  
  7340.000000   1707236   1708630   1709916   1711101   1712211  
  7330.000000   1713286   1714367   1715490   1716671   1717911  
  7320.000000   1719194   1720499   1721814   1723137   1724484  
  7310.000000   1725870   1727311   1728801   1730317   1731816  
  7300.000000   1733257   1734607   1735861   1737048   1738223  
  7290.000000   1739460   1740826   1742366   1744087   1745949  
  7280.000000   1747874   1749748   1751446   1752857   1753913  
  7270.000000   1754605   1754988   1755176   1755322   1755578  
  7260.000000   1756070   1756867   1757980   1759361   1760932  
  7250.000000   1762602   1764296   1765955   1767555   1769083  
  7240.000000   1770553   1771972   1773378   1774798   1776299  
  7230.000000   1777930   1779754   1781792   1784049   1786476  
  7220.000000   1789008   1791568   1794111   1796625   1799162  
  7210.000000   1801795   1804619   1807688   1811016   1814538  
  7200.000000   1818151   1821716   1825130   1828327   1831319  
  7190.000000   1834169   1836991   1839895   1842976   1846273  
  7180.000000   1849780   1853438   1857173   1860892   1864530  
  7170.000000   1868036   1871405   1874656   1877849   1881046  
  7160.000000   1884326   1887737   1891322   1895079   1899000  
  7150.000000   1903049   1907202   1911432   1915735   1920102  
  7140.000000   1924545   1929054   1933636   1938278   1942991  
  7130.000000   1947771   1952642   1957608   1962683   1967849  
  7120.000000   1973094   1978383   1983707   1989055   1994451  
  7110.000000   1999907   2005442   2011039   2016669   2022278  
  7100.000000   2027836   2033331   2038804   2044322   2049966  
  7090.000000   2055788   2061798   2067943   2074138   2080285  
  7080.000000   2086313   2092197   2097971   2103699   2109466  
  7070.000000   2115335   2121338   2127462   2133662   2139872  
  7060.000000   2146023   2152053   2157921   2163612   2169141  
  7050.000000   2174554   2179912   2185284   2190718   2196230  
  7040.000000   2201798   2207371   2212891   2218322   2223656  
  7030.000000   2228925   2234173   2239443   2244742   2250052  
  7020.000000   2255320   2260501   2265561   2270507   2275364  
  7010.000000   2280167   2284924   2289618   2294187   2298567  
  7000.000000   2302697   2306566   2310199   2313673   2317075  
  6990.000000   2320498   2324004   2327636   2331391   2335251  
  6980.000000   2339161   2343067   2346892   2350581   2354085  
  6970.000000   2357406   2360571   2363646   2366690   2369751  
  6960.000000   2372824   2375864   2378783   2381499   2383951  
  6950.000000   2386139   2388106   2389948   2391754   2393616  
  6940.000000   2395577   2397657   2399830   2402066   2404309  
  6930.000000   2406510   2408608   2410557   2412317   2413886  
  6920.000000   2415281   2416559   2417784   2419021   2420302  
  6910.000000   2421632   2422979   2424305   2425569   2426749  
  6900.000000   2427836   2428839   2429761   2430612   2431397  
  6890.000000   2432137   2432869   2433652   2434543   2435586  
  6880.000000   2436784   2438099   2439456   2440771   2441969  
  6870.000000   2443012   2443901   2444670   2445366   2446035  
  6860.000000   2446712   2447421   2448175   2448988   2449859  
  6850.000000   2450781   2451722   2452641   2453487   2454226  
  6840.000000   2454844   2455359   2455803   2456214   2456607  
  6830.000000   2456980   2457311   2457584   2457802   2457998  
  6820.000000   2458220   2458518   2458910   2459377   2459858  
  6810.000000   2460283   2460592   2460766   2460826   2460830  
  6800.000000   2460839   2460907   2461049   2461258   2461498  
  6790.000000   2461733   2461922   2462036   2462046   2461931  
  6780.000000   2461678   2461298   2460825   2460325   2459873  
  6770.000000   2459539   2459356   2459313   2459358   2459417  
  6760.000000   2459421   2459326   2459123   2458832   2458483  
  6750.000000   2458099   2457698   2457287   2456886   2456524  
  6740.000000   2456243   2456082   2456056   2456147   2456304  
  6730.000000   2456460   2456557   2456573   2456526   2456473  
  6720.000000   2456471   2456564   2456755   2457010   2457271  
  6710.000000   2457478   2457590   2457590   2457476   2457255  
  6700.000000   2456922   2456470   2455890   2455184   2454377  
  6690.000000   2453517   2452658   2451852   2451127   2450492  
  6680.000000   2449926   2449409   2448912   2448430   2447956  
  6670.000000   2447500   2447056   2446619   2446166   2445674  
  6660.000000   2445118   2444480   2443748   2442918   2441986  
  6650.000000   2440954   2439821   2438598   2437296   2435947  
  6640.000000   2434579   2433236   2431948   2430747   2429642  
  6630.000000   2428627   2427673   2426740   2425772   2424726  
  6620.000000   2423568   2422296   2420929   2419512   2418089  
  6610.000000   2416701   2415360   2414055   2412754   2411417  
  6600.000000   2410011   2408521   2406946   2405304   2403615  
  6590.000000   2401899   2400172   2398450   2396748   2395084  
  6580.000000   2393475   2391934   2390459   2389043   2387667  
  6570.000000   2386311   2384957   2383597   2382224   2380833  
  6560.000000   2379416   2377958   2376453   2374899   2373315  
  6550.000000   2371731   2370190   2368727   2367364   2366099  
  6540.000000   2364908   2363761   2362625   2361482   2360328  
  6530.000000   2359168   2358010   2356859   2355713   2354566  
  6520.000000   2353410   2352242   2351058   2349858   2348637  
  6510.000000   2347388   2346102   2344779   2343426   2342060  
  6500.000000   2340701   2339365   2338056   2336765   2335469  
  6490.000000   2334149   2332795   2331415   2330034   2328688  
  6480.000000   2327405   2326205   2325083   2324018   2322978  
  6470.000000   2321923   2320826   2319662   2318427   2317123  
  6460.000000   2315768   2314384   2312999   2311638   2310324  
  6450.000000   2309068   2307879   2306759   2305712   2304744  
  6440.000000   2303861   2303062   2302335   2301649   2300960  
  6430.000000   2300219   2299392   2298468   2297473   2296455  
  6420.000000   2295483   2294609   2293869   2293263   2292767  
  6410.000000   2292341   2291947   2291555   2291150   2290726  
  6400.000000   2290285   2289828   2289365   2288905   2288472  
  6390.000000   2288089   2287781   2287562   2287429   2287359  
  6380.000000   2287317   2287263   2287159   2286977   2286699  
  6370.000000   2286315   2285825   2285238   2284577   2283886  
  6360.000000   2283217   2282629   2282160   2281825   2281592  
  6350.000000   2281402   2281177   2280850   2280380   2279767  
  6340.000000   2279043   2278260   2277468   2276704   2275979  
  6330.000000   2275293   2274632   2273985   2273338   2272681  
  6320.000000   2271994   2271260   2270454   2269566   2268590  
  6310.000000   2267541   2266439   2265312   2264175   2263037  
  6300.000000   2261900   2260768   2259650   2258565   2257527  
  6290.000000   2256547   2255609   2254688   2253739   2252727  
  6280.000000   2251630   2250447   2249197   2247905   2246591  
  6270.000000   2245261   2243910   2242531   2241122   2239702  
  6260.000000   2238295   2236936   2235642   2234415   2233227  
  6250.000000   2232040   2230810   2229506   2228112   2226631  
  6240.000000   2225080   2223481   2221857   2220235   2218640  
  6230.000000   2217100   2215636   2214262   2212972   2211744  
  6220.000000   2210544   2209336   2208092   2206801   2205469  
  6210.000000   2204112   2202754   2201410   2200088   2198792  
  6200.000000   2197524   2196290   2195100   2193965   2192888  
  6190.000000   2191862   2190873   2189894   2188904   2187883  
  6180.000000   2186822   2185718   2184574   2183393   2182182  
  6170.000000   2180956   2179733   2178541   2177406   2176351  
  6160.000000   2175382   2174489   2173647   2172823   2171987  
  6150.000000   2171118   2170208   2169254   2168259   2167216  
  6140.000000   2166119   2164961   2163743   2162483   2161216  
  6130.000000   2159984   2158833   2157795   2156880   2156070  
  6120.000000   2155331   2154615   2153884   2153107   2152282  
  6110.000000   2151423   2150566   2149748   2149012   2148379  
  6100.000000   2147862   2147448   2147117   2146835   2146578  
  6090.000000   2146319   2146056   2145785   2145522   2145270  
  6080.000000   2145044   2144843   2144673   2144531   2144429  
  6070.000000   2144373   2144382   2144466   2144641   2144906  
  6060.000000   2145264   2145699   2146201   2146741   2147310  
  6050.000000   2147884   2148470   2149067   2149709   2150421  
  6040.000000   2151249   2152215   2153345   2154631   2156067  
  6030.000000   2157622   2159280   2161016   2162825   2164692  
  6020.000000   2166617   2168577   2170564   2172554   2174552  
  6010.000000   2176554   2178590   2180673   2182835   2185071  
  6000.000000   2187382   2189741   2192139   2194565   2197043  
  5990.000000   2199598   2202277   2205103   2208094   2211231  
  5980.000000   2214490   2217827   2221223   2224661   2228156  
  5970.000000   2231721   2235384   2239150   2243023   2246977  
  5960.000000   2250996   2255040   2259088   2263113   2267112  
  5950.000000   2271079   2275039   2279019   2283067   2287225  
  5940.000000   2291531   2295997   2300610   2305330   2310096  
  5930.000000   2314848   2319532   2324119   2328596   2332969  
  5920.000000   2337240   2341411   2345465   2349383   2353139  
  5910.000000   2356712   2360089   2363274   2366275   2369125  
  5900.000000   2371853   2374514   2377152   2379828   2382575  
  5890.000000   2385425   2388366   2391381   2394422   2397450  
  5880.000000   2400424   2403321   2406121   2408817   2411394  
  5870.000000   2413835   2416123   2418252   2420234   2422104  
  5860.000000   2423915   2425726   2427586   2429525   2431554  
  5850.000000   2433665   2435847   2438091   2440397   2442775  
  5840.000000   2445234   2447780   2450411   2453117   2455885  
  5830.000000   2458697   2461539   2464390   2467231   2470034  
  5820.000000   2472782   2475457   2478060   2480603   2483111  
  5810.000000   2485608   2488109   2490625   2493140   2495659  
  5800.000000   2498162   2500675   2503195   2505760   2508348  
  5790.000000   2510959   2513515   2515948   2518124   2519936  
  5780.000000   2521241   2521941   2521938   2521202   2519729  
  5770.000000   2517603   2514935   2511905   2508679   2505440  
  5760.000000   2502302   2499360   2496630   2494124   2491810  
  5750.000000   2489682   2487717   2485917   2484267   2482756  
  5740.000000   2481362   2480055   2478816   2477618   2476457  
  5730.000000   2475312   2474185   2473057   2471932   2470807  
  5720.000000   2469706   2468647   2467662   2466765   2465962  
  5710.000000   2465236   2464564   2463918   2463285   2462663  
  5700.000000   2462058   2461481   2460933   2460407   2459885  
  5690.000000   2459361   2458829   2458308   2457809   2457354  
  5680.000000   2456928   2456505   2456023   2455417   2454613  
  5670.000000   2453562   2452221   2450579   2448631   2446399  
  5660.000000   2443913   2441232   2438428   2435594   2432812  
  5650.000000   2430156   2427662   2425338   2423157   2421084  
  5640.000000   2419083   2417134   2415230   2413369   2411556  
  5630.000000   2409786   2408058   2406364   2404717   2403126  
  5620.000000   2401619   2400202   2398882   2397636   2396443  
  5610.000000   2395271   2394111   2392963   2391845   2390777  
  5600.000000   2389770   2388817   2387901   2386993   2386077  
  5590.000000   2385143   2384201   2383262   2382336   2381424  
  5580.000000   2380519   2379612   2378697   2377780   2376868  
  5570.000000   2375971   2375087   2374204   2373299   2372354  
  5560.000000   2371359   2370321   2369257   2368190   2367129  
  5550.000000   2366074   2365010   2363924   2362808   2361675  
  5540.000000   2360551   2359465   2358437   2357467   2356537  
  5530.000000   2355621   2354689   2353728   2352739   2351734  
  5520.000000   2350727   2349729   2348738   2347750   2346754  
  5510.000000   2345747   2344726   2343694   2342646   2341579  
  5500.000000   2340482   2339354   2338197   2337029   2335860  
  5490.000000   2334703   2333547   2332371   2331142   2329837  
  5480.000000   2328442   2326975   2325462   2323941   2322434  
  5470.000000   2320947   2319463   2317958   2316404   2314790  
  5460.000000   2313115   2311385   2309608   2307786   2305916  
  5450.000000   2304000   2302051   2300096   2298173   2296318  
  5440.000000   2294556   2292893   2291321   2289822   2288388  
  5430.000000   2287011   2285697   2284441   2283239   2282069  
  5420.000000   2280921   2279783   2278680   2277639   2276717  
  5410.000000   2275941   2275330   2274852   2274472   2274134  
  5400.000000   2273818   2273511   2273248   2273054   2272979  
  5390.000000   2273033   2273237   2273576   2274066   2274705  
  5380.000000   2275525   2276526   2277723   2279079   2280578  
  5370.000000   2282164   2283840   2285584   2287449   2289447  
  5360.000000   2291647   2294049   2296707   2299604   2302799  
  5350.000000   2306285   2310143   2314374   2319046   2324128  
  5340.000000   2329660   2335583   2341944   2348697   2355908  
  5330.000000   2363532   2371626   2380122   2389063   2398386  
  5320.000000   2408172   2418403   2429213   2440609   2452726  
  5310.000000   2465534   2479121   2493415   2508478   2524242  
  5300.000000   2540789   2558079   2576217   2595175   2615044  
  5290.000000   2635762   2657360   2679710   2702769   2726370  
  5280.000000   2750473   2774979   2799950   2825407   2851483  
  5270.000000   2878213   2905627   2933605   2961982   2990528  
  5260.000000   3019051   3047438   3075667   3103801   3131894  
  5250.000000   3159981   3187966   3215724   3243011   3269685  
  5240.000000   3295576   3320718   3345111   3368925   3392201  
  5230.000000   3415069   3437459   3459370   3480621   3501164  
  5220.000000   3520840   3539694   3557689   3574981   3591600  
  5210.000000   3607703   3623251   3638287   3652650   3666310  
  5200.000000   3679108   3691097   3702239   3712698   3722496  
  5190.000000   3731781   3740506   3748718   3756300   3763268  
  5180.000000   3769529   3775151   3780095   3784451   3788176  
  5170.000000   3791335   3793874   3795864   3797288   3798258  
  5160.000000   3798784   3798965   3798771   3798245   3797313  
  5150.000000   3795999   3794257   3792147   3789667   3786896  
  5140.000000   3783832   3780527   3776959   3773164   3769124  
  5130.000000   3764880   3760425   3755797   3750981   3746007  
  5120.000000   3740864   3735595   3730215   3724778   3719304  
  5110.000000   3713822   3708323   3702803   3697244   3691650  
  5100.000000   3686032   3680425   3674853   3669344   3663897  
  5090.000000   3658506   3653150   3647822   3642516   3637242  
  5080.000000   3632002   3626797   3621606   3616403   3611148  
  5070.000000   3605821   3600404   3594906   3589332   3583695  
  5060.000000   3577989   3572210   3566335   3560362   3554282  
  5050.000000   3548112   3541858   3535540   3529150   3522688  
  5040.000000   3516137   3509498   3502769   3495974   3489131  
  5030.000000   3482268   3475394   3468514   3461619   3454703  
  5020.000000   3447763   3440810   3433864   3426948   3420088  
  5010.000000   3413302   3406609   3400016   3393541   3387190  
  5000.000000   3380985   3374925   3369030   3363288   3357715  
  4990.000000   3352298   3347059   3341993   3337132   3332465  
  4980.000000   3328018   3323765   3319719   3315851   3312184  
  4970.000000   3308702   3305452   3302431   3299691   3297222  
  4960.000000   3295062   3293183   3291618   3290331   3289359  
  4950.000000   3288672   3288315   3288260   3288557   3289183  
  4940.000000   3290191   3291561   3293343   3295509   3298096  
  4930.000000   3301055   3304408   3308102   3312163   3316551  
  4920.000000   3321307   3326401   3331873   3337687   3343864  
  4910.000000   3350363   3357198   3364336   3371795   3379552  
  4900.000000   3387612   3395940   3404510   3413267   3422154  
  4890.000000   3431108   3440060   3448952   3457707   3466275  
  4880.000000   3474576   3482574   3490198   3497434   3504223  
  4870.000000   3510567   3516409   3521756   3526552   3530817  
  4860.000000   3534508   3537667   3540275   3542389   3544005  
  4850.000000   3545189   3545950   3546366   3546466   3546342  
  4840.000000   3546033   3545623   3545136   3544627   3544096  
  4830.000000   3543572   3543050   3542551   3542079   3541654  
  4820.000000   3541284   3540977   3540738   3540563   3540455  
  4810.000000   3540407   3540425   3540497   3540626   3540798  
  4800.000000   3541016   3541277   3541602   3542007   3542527  
  4790.000000   3543181   3543991   3544951   3546052   3547263  
  4780.000000   3548557   3549902   3551279   3552668   3554060  
  4770.000000   3555440   3556802   3558132   3559424   3560673  
  4760.000000   3561881   3563049   3564182   3565279   3566336  
  4750.000000   3567349   3568310   3569217   3570068   3570868  
  4740.000000   3571624   3572347   3573048   3573739   3574432  
  4730.000000   3575134   3575849   3576569   3577282   3577966  
  4720.000000   3578605   3579182   3579705   3580186   3580665  
  4710.000000   3581176   3581769   3582471   3583318   3584319  
  4700.000000   3585498   3586856   3588413   3590172   3592147  
  4690.000000   3594330   3596722   3599300   3602053   3604948  
  4680.000000   3607968   3611070   3614232   3617401   3620549  
  4670.000000   3623629   3626631   3629540   3632383   3635185  
  4660.000000   3638004   3640882   3643877   3647026   3650368  
  4650.000000   3653918   3657688   3661668   3665836   3670157  
  4640.000000   3674591   3679099   3683649   3688228   3692828  
  4630.000000   3697453   3702093   3706734   3711331   3715836  
  4620.000000   3720174   3724289   3728119   3731640   3734822  
  4610.000000   3737682   3740215   3742457   3744416   3746137  
  4600.000000   3747630   3748949   3750103   3751141   3752061  
  4590.000000   3752893   3753611   3754220   3754676   3754971  
  4580.000000   3755060   3754936   3754571   3753977   3753151  
  4570.000000   3752128   3750927   3749595   3748155   3746647  
  4560.000000   3745080   3743476   3741830   3740152   3738433  
  4550.000000   3736686   3734909   3733120   3731326   3729543  
  4540.000000   3727779   3726042   3724335   3722655   3721004  
  4530.000000   3719369   3717755   3716152   3714575   3713025  
  4520.000000   3711537   3710115   3708804   3707604   3706562  
  4510.000000   3705668   3704978   3704490   3704283   3704370  
  4500.000000   3704852   3705748   3707158   3709084   3711612  
  4490.000000   3714724   3718494   3722891   3727983   3733731  
  4480.000000   3740189   3747301   3755107   3763535   3772609  
  4470.000000   3782250   3792465   3803164   3814337   3825885  
  4460.000000   3837790   3849960   3862383   3874993   3887789  
  4450.000000   3900724   3913801   3926984   3940273   3953646  
  4440.000000   3967101   3980632   3994228   4007882   4021557  
  4430.000000   4035235   4048850   4062374   4075725   4088876  
  4420.000000   4101741   4114296   4126455   4138192   4149417  
  4410.000000   4160105   4170172   4179605   4188343   4196407  
  4400.000000   4203786   4210552   4216751   4222504   4227898  
  4390.000000   4233078   4238137   4243206   4248354   4253666  
  4380.000000   4259165   4264886   4270815   4276956   4283283  
  4370.000000   4289790   4296451   4303252   4310156   4317131  
  4360.000000   4324126   4331106   4338011   4344830   4351494  
  4350.000000   4358009   4364285   4370347   4376109   4381646  
  4340.000000   4386929   4392068   4397011   4401727   4405923  
  4330.000000   4409226   4411041   4410804   4407993   4402394  
  4320.000000   4394109   4383657   4371818   4359548   4347719  
  4310.000000   4337037   4327874   4320346   4314308   4309524  
  4300.000000   4305722   4302693   4300312   4298499   4297242  
  4290.000000   4296479   4296206   4296341   4296892   4297816  
  4280.000000   4299155   4300905   4303086   4305673   4308621  
  4270.000000   4311867   4315312   4318852   4322320   4325505  
  4260.000000   4328110   4329804   4330238   4329146   4326388  
  4250.000000   4322035   4316334   4309715   4302658   4295668  
  4240.000000   4289114   4283270   4278201   4273885   4270163  
  4230.000000   4266875   4263833   4260896   4257957   4254952  
  4220.000000   4251876   4248739   4245622   4242586   4239756  
  4210.000000   4237202   4235021   4233228   4231847   4230823  
  4200.000000   4230115   4229636   4229342   4229161   4229081  
  4190.000000   4229062   4229126   4229255   4229489   4229817  
  4180.000000   4230286   4230885   4231661   4232604   4233764  
  4170.000000   4235139   4236790   4238724   4241009   4243650  
  4160.000000   4246709   4250173   4254084   4258408   4263178  
  4150.000000   4268350   4273956   4279950   4286365   4293153  
  4140.000000   4300349   4307902   4315847   4324132   4332794  
  4130.000000   4341779   4351124   4360785   4370809   4381175  
  4120.000000   4391949   4403138   4414819   4427004   4439753  
  4110.000000   4453055   4466925   4481301   4496137   4511322  
  4100.000000   4526766   4542343   4557970   4573565   4589101  
  4090.000000   4604566   4619979   4635366   4650742   4666129  
  4080.000000   4681518   4696927   4712325   4727730   4743084  
  4070.000000   4758372   4773479   4788347   4802826   4816858  
  4060.000000   4830318   4843200   4855423   4867022   4877936  
  4050.000000   4888222   4897839   4906877   4915317   4923267  
  4040.000000   4930693   4937664   4944096   4950018   4955329  
  4030.000000   4960075   4964192   4967757   4970733   4973182  
  4020.000000   4975041   4976361   4977127   4977409   4977184  
  4010.000000   4976564   4975608   4974329   4972557   4970324  
  4000.000000   4967851  
##END= 
