##TITLE= Sample 037 By ssteindl date Dienstag, November 20 2018
##JCAMP-DX= 4.24
##DATA TYPE= INFRARED SPECTRUM
##ORIGIN= Exported PE Spectrum Data File
##OWNER= Sandra Steindl
##DATE= 18/11/20
##TIME= 11:57:32.00
##SPECTROMETER/DATA SYSTEM= PERKIN-ELMER Frontier FT-IR/NIR IR
##INSTRUMENT PARAMETERS=
  APODIZATION=stark
  DETECTOR=INGAAS
##RESOLUTION= 16.000000
##DELTAX= -2.000000
##XUNITS= 1/CM
##YUNITS= A
##XFACTOR= 1.00
##YFACTOR= 0.00000011920928955078
##FIRSTX= 10000.00
##LASTX= 4000.00
##NPOINTS= 3001
##FIRSTY= 0.199426
##MAXY= 0.597704
##MINY= 0.170877
##XYDATA= (X++(Y..Y))
 10000.000000   1672903   1672662   1671263   1667378   1661364  
  9990.000000   1654366   1646992   1639382   1632071   1626054  
  9980.000000   1622019   1620316   1621055   1624237   1629590  
  9970.000000   1636653   1644790   1653095   1660391   1665340  
  9960.000000   1666814   1664163   1657617   1648249   1637845  
  9950.000000   1628335   1621285   1617427   1616567   1617779  
  9940.000000   1619816   1621577   1622333   1621859   1620230  
  9930.000000   1617730   1614669   1611420   1608477   1606446  
  9920.000000   1606020   1607670   1611471   1616854   1622713  
  9910.000000   1627669   1630514   1630640   1628224   1624152  
  9900.000000   1619686   1615984   1613790   1613231   1613957  
  9890.000000   1615314   1616630   1617389   1617288   1616282  
  9880.000000   1614464   1612136   1609694   1607723   1606796  
  9870.000000   1607404   1609683   1613314   1617547   1621366  
  9860.000000   1623850   1624371   1622816   1619446   1614782  
  9850.000000   1609315   1603419   1597327   1591293   1585734  
  9840.000000   1581296   1578765   1578783   1581603   1586816  
  9830.000000   1593474   1600221   1605783   1609264   1610423  
  9820.000000   1609695   1607939   1606214   1605299   1605588  
  9810.000000   1606845   1608425   1609382   1608851   1606294  
  9800.000000   1601686   1595633   1589150   1583587   1580101  
  9790.000000   1579532   1582003   1587018   1593552   1600367  
  9780.000000   1606344   1610623   1612740   1612468   1609791  
  9770.000000   1604762   1597630   1588860   1579330   1570232  
  9760.000000   1562951   1558688   1558081   1561008   1566481  
  9750.000000   1573046   1579092   1583454   1585615   1585834  
  9740.000000   1584896   1583760   1583199   1583541   1584669  
  9730.000000   1586093   1587223   1587499   1586605   1584429  
  9720.000000   1581114   1576914   1572176   1567218   1562317  
  9710.000000   1557650   1553328   1549442   1546149   1543773  
  9700.000000   1542758   1543658   1546852   1552454   1560062  
  9690.000000   1568837   1577620   1585224   1590750   1593744  
  9680.000000   1594308   1592876   1590083   1586443   1582317  
  9670.000000   1577846   1573121   1568274   1563531   1559220  
  9660.000000   1555593   1552836   1550906   1549718   1549120  
  9650.000000   1549086   1549667   1550953   1552925   1555351  
  9640.000000   1557789   1559688   1560593   1560300   1558979  
  9630.000000   1557081   1555246   1553994   1553612   1553968  
  9620.000000   1554618   1554912   1554219   1552140   1548608  
  9610.000000   1543980   1538949   1534445   1531413   1530592  
  9600.000000   1532283   1536212   1541516   1546935   1551129  
  9590.000000   1553087   1552430   1549561   1545532   1541704  
  9580.000000   1539289   1538934   1540553   1543368   1546256  
  9570.000000   1548114   1548218   1546390   1542952   1538600  
  9560.000000   1534095   1530132   1527132   1525280   1524540  
  9550.000000   1524726   1525570   1526729   1527835   1528540  
  9540.000000   1528545   1527707   1526004   1523588   1520712  
  9530.000000   1517694   1514908   1512689   1511370   1511108  
  9520.000000   1511890   1513352   1514876   1515630   1514885  
  9510.000000   1512234   1507855   1502514   1497423   1493911  
  9500.000000   1493033   1495281   1500420   1507623   1515701  
  9490.000000   1523493   1530117   1535142   1538513   1540433  
  9480.000000   1541160   1540915   1539845   1538060   1535705  
  9470.000000   1532969   1530097   1527315   1524743   1522388  
  9460.000000   1520074   1517577   1514637   1511137   1507127  
  9450.000000   1502871   1498787   1495364   1493024   1492028  
  9440.000000   1492366   1493775   1495795   1497919   1499763  
  9430.000000   1501146   1502133   1502908   1503648   1504354  
  9420.000000   1504818   1504646   1503488   1501180   1497944  
  9410.000000   1494301   1490939   1488433   1487036   1486582  
  9400.000000   1486579   1486415   1485658   1484222   1482424  
  9390.000000   1480815   1479921   1480048   1481162   1483003  
  9380.000000   1485223   1487570   1489996   1492611   1495585  
  9370.000000   1498924   1502386   1505463   1507572   1508225  
  9360.000000   1507242   1504790   1501375   1497685   1494417  
  9350.000000   1492129   1491087   1491317   1492561   1494467  
  9340.000000   1496566   1498475   1499891   1500738   1501122  
  9330.000000   1501282   1501452   1501696   1501886   1501653  
  9320.000000   1500588   1498323   1494768   1490182   1485175  
  9310.000000   1480565   1477095   1475264   1475160   1476530  
  9300.000000   1478879   1481655   1484397   1486775   1488596  
  9290.000000   1489736   1490108   1489667   1488464   1486706  
  9280.000000   1484779   1483196   1482450   1482848   1484371  
  9270.000000   1486684   1489204   1491275   1492308   1491946  
  9260.000000   1490120   1487039   1483091   1478744   1474445  
  9250.000000   1470595   1467492   1465348   1464239   1464109  
  9240.000000   1464755   1465863   1467052   1467925   1468149  
  9230.000000   1467484   1465878   1463418   1460372   1457082  
  9220.000000   1453969   1451445   1449884   1449539   1450477  
  9210.000000   1452579   1455540   1458944   1462309   1465185  
  9200.000000   1467224   1468229   1468209   1467300   1465780  
  9190.000000   1463944   1462103   1460482   1459219   1458355  
  9180.000000   1457854   1457671   1457737   1458043   1458580  
  9170.000000   1459379   1460411   1461606   1462800   1463784  
  9160.000000   1464341   1464302   1463600   1462259   1460412  
  9150.000000   1458243   1455990   1453863   1452050   1450639  
  9140.000000   1449640   1448959   1448438   1447884   1447143  
  9130.000000   1446203   1445212   1444484   1444355   1445138  
  9120.000000   1446968   1449767   1453222   1456885   1460331  
  9110.000000   1463221   1465363   1466625   1466920   1466139  
  9100.000000   1464201   1461083   1456940   1452185   1447462  
  9090.000000   1443527   1440979   1440151   1440946   1442936  
  9080.000000   1445416   1447709   1449321   1450061   1449984  
  9070.000000   1449266   1448115   1446636   1444888   1442857  
  9060.000000   1440631   1438359   1436312   1434725   1433757  
  9050.000000   1433421   1433606   1434168   1434973   1435990  
  9040.000000   1437261   1438888   1440936   1443396   1446147  
  9030.000000   1449005   1451764   1454237   1456280   1457766  
  9020.000000   1458629   1458804   1458299   1457155   1455490  
  9010.000000   1453455   1451194   1448823   1446391   1443986  
  9000.000000   1441739   1439930   1438885   1438978   1440413  
  8990.000000   1443129   1446693   1450400   1453483   1455303  
  8980.000000   1455580   1454405   1452243   1449669   1447194  
  8970.000000   1445108   1443486   1442271   1441395   1440913  
  8960.000000   1440992   1441847   1443545   1445943   1448656  
  8950.000000   1451156   1452922   1453594   1453112   1451654  
  8940.000000   1449596   1447334   1445242   1443588   1442545  
  8930.000000   1442218   1442642   1443796   1445537   1447638  
  8920.000000   1449772   1451640   1453021   1453867   1454288  
  8910.000000   1454473   1454612   1454753   1454820   1454600  
  8900.000000   1453889   1452583   1450778   1448754   1446892  
  8890.000000   1445558   1444980   1445215   1446131   1447497  
  8880.000000   1449053   1450596   1452019   1453300   1454473  
  8870.000000   1455581   1456654   1457684   1458634   1459442  
  8860.000000   1460057   1460453   1460657   1460747   1460853  
  8850.000000   1461111   1461608   1462333   1463153   1463843  
  8840.000000   1464156   1463925   1463132   1461952   1460707  
  8830.000000   1459791   1459529   1460096   1461454   1463385  
  8820.000000   1465571   1467677   1469442   1470694   1471379  
  8810.000000   1471509   1471167   1470462   1469554   1468618  
  8800.000000   1467854   1467439   1467510   1468130   1469279  
  8790.000000   1470890   1472845   1475041   1477348   1479662  
  8780.000000   1481844   1483764   1485302   1486384   1487041  
  8770.000000   1487355   1487478   1487495   1487422   1487123  
  8760.000000   1486384   1484986   1482843   1480116   1477218  
  8750.000000   1474772   1473418   1473668   1475717   1479398  
  8740.000000   1484181   1489318   1494030   1497687   1499969  
  8730.000000   1500861   1500665   1499828   1498883   1498247  
  8720.000000   1498194   1498765   1499843   1501201   1502603  
  8710.000000   1503897   1505025   1506080   1507204   1508589  
  8700.000000   1510348   1512509   1514971   1517538   1519965  
  8690.000000   1522019   1523539   1524460   1524825   1524762  
  8680.000000   1524451   1524075   1523770   1523610   1523587  
  8670.000000   1523645   1523698   1523688   1523615   1523546  
  8660.000000   1523600   1523890   1524492   1525370   1526412  
  8650.000000   1527428   1528263   1528827   1529175   1529490  
  8640.000000   1530057   1531175   1533058   1535799   1539327  
  8630.000000   1543449   1547864   1552234   1556238   1559602  
  8620.000000   1562152   1563791   1564543   1564499   1563838  
  8610.000000   1562747   1561426   1560038   1558731   1557642  
  8600.000000   1556917   1556733   1557252   1558609   1560804  
  8590.000000   1563735   1567148   1570752   1574258   1577493  
  8580.000000   1580418   1583114   1585711   1588281   1590797  
  8570.000000   1593100   1594986   1596249   1596806   1596685  
  8560.000000   1596049   1595092   1593987   1592839   1591700  
  8550.000000   1590624   1589696   1589102   1589070   1589850  
  8540.000000   1591575   1594253   1597713   1601663   1605730  
  8530.000000   1609558   1612875   1615499   1617373   1618509  
  8520.000000   1619030   1619094   1618901   1618634   1618446  
  8510.000000   1618422   1618563   1618830   1619174   1619620  
  8500.000000   1620232   1621146   1622461   1624199   1626222  
  8490.000000   1628263   1630000   1631172   1631693   1631672  
  8480.000000   1631398   1631194   1631321   1631846   1632663  
  8470.000000   1633548   1634280   1634757   1635031   1635298  
  8460.000000   1635795   1636714   1638115   1639926   1641993  
  8450.000000   1644135   1646203   1648094   1649739   1651078  
  8440.000000   1652050   1652630   1652866   1652916   1653026  
  8430.000000   1653463   1654411   1655874   1657637   1659309  
  8420.000000   1660443   1660706   1659997   1658504   1656636  
  8410.000000   1654916   1653802   1653583   1654272   1655686  
  8400.000000   1657494   1659361   1660997   1662235   1663023  
  8390.000000   1663400   1663446   1663231   1662804   1662174  
  8380.000000   1661333   1660259   1658957   1657478   1655927  
  8370.000000   1654492   1653365   1652742   1652719   1653295  
  8360.000000   1654330   1655577   1656731   1657493   1657656  
  8350.000000   1657116   1655907   1654152   1652069   1649903  
  8340.000000   1647930   1646383   1645442   1645187   1645578  
  8330.000000   1646456   1647549   1648571   1649277   1649566  
  8320.000000   1649482   1649211   1648996   1649048   1649454  
  8310.000000   1650138   1650884   1651412   1651487   1650983  
  8300.000000   1649927   1648467   1646814   1645163   1643630  
  8290.000000   1642246   1640958   1639702   1638423   1637143  
  8280.000000   1635946   1634988   1634413   1634331   1634750  
  8270.000000   1635575   1636610   1637581   1638214   1638262  
  8260.000000   1637605   1636247   1634337   1632122   1629890  
  8250.000000   1627921   1626418   1625509   1625210   1625478  
  8240.000000   1626191   1627197   1628295   1629265   1629878  
  8230.000000   1629916   1629230   1627756   1625570   1622856  
  8220.000000   1619894   1616995   1614440   1612447   1611111  
  8210.000000   1610445   1610339   1610652   1611185   1611757  
  8200.000000   1612192   1612350   1612137   1611494   1610416  
  8190.000000   1608899   1606966   1604622   1601902   1598867  
  8180.000000   1595648   1592448   1589513   1587117   1585463  
  8170.000000   1584665   1584667   1585279   1586190   1587065  
  8160.000000   1587618   1587663   1587150   1586115   1584681  
  8150.000000   1582963   1581083   1579119   1577147   1575230  
  8140.000000   1573445   1571880   1570609   1569692   1569136  
  8130.000000   1568918   1568961   1569168   1569411   1569552  
  8120.000000   1569457   1569005   1568136   1566851   1565252  
  8110.000000   1563503   1561809   1560339   1559190   1558344  
  8100.000000   1557686   1557048   1556272   1555275   1554074  
  8090.000000   1552789   1551580   1550601   1549940   1549598  
  8080.000000   1549509   1549565   1549663   1549716   1549671  
  8070.000000   1549483   1549113   1548519   1547677   1546598  
  8060.000000   1545354   1544072   1542917   1542032   1541495  
  8050.000000   1541285   1541272   1541283   1541134   1540723  
  8040.000000   1540045   1539206   1538373   1537710   1537310  
  8030.000000   1537156   1537119   1536999   1536595   1535771  
  8020.000000   1534508   1532916   1531197   1529594   1528308  
  8010.000000   1527451   1527013   1526871   1526844   1526736  
  8000.000000   1526409   1525804   1524952   1523949   1522918  
  7990.000000   1521973   1521195   1520625   1520280   1520149  
  7980.000000   1520220   1520458   1520812   1521193   1521488  
  7970.000000   1521576   1521369   1520840   1520049   1519131  
  7960.000000   1518260   1517607   1517276   1517293   1517588  
  7950.000000   1518039   1518503   1518859   1519033   1518989  
  7940.000000   1518725   1518241   1517550   1516654   1515595  
  7930.000000   1514435   1513290   1512289   1511563   1511200  
  7920.000000   1511223   1511595   1512223   1513012   1513872  
  7910.000000   1514759   1515656   1516565   1517485   1518379  
  7900.000000   1519194   1519846   1520269   1520409   1520262  
  7890.000000   1519853   1519243   1518514   1517753   1517062  
  7880.000000   1516535   1516271   1516336   1516770   1517544  
  7870.000000   1518570   1519698   1520751   1521564   1522017  
  7860.000000   1522073   1521766   1521199   1520498   1519790  
  7850.000000   1519171   1518704   1518422   1518340   1518469  
  7840.000000   1518805   1519333   1520006   1520752   1521473  
  7830.000000   1522080   1522505   1522727   1522774   1522708  
  7820.000000   1522600   1522502   1522426   1522353   1522237  
  7810.000000   1522036   1521727   1521320   1520843   1520340  
  7800.000000   1519838   1519355   1518886   1518421   1517951  
  7790.000000   1517475   1517001   1516534   1516071   1515603  
  7780.000000   1515120   1514630   1514158   1513757   1513484  
  7770.000000   1513383   1513463   1513684   1513963   1514190  
  7760.000000   1514265   1514103   1513666   1512948   1511985  
  7750.000000   1510835   1509588   1508350   1507246   1506399  
  7740.000000   1505896   1505767   1505952   1506325   1506708  
  7730.000000   1506945   1506949   1506729   1506394   1506082  
  7720.000000   1505911   1505901   1505976   1505979   1505756  
  7710.000000   1505221   1504410   1503477   1502634   1502080  
  7700.000000   1501920   1502135   1502594   1503115   1503530  
  7690.000000   1503735   1503713   1503505   1503176   1502779  
  7680.000000   1502341   1501875   1501409   1500991   1500697  
  7670.000000   1500584   1500671   1500909   1501186   1501375  
  7660.000000   1501376   1501169   1500819   1500455   1500223  
  7650.000000   1500216   1500454   1500867   1501340   1501746  
  7640.000000   1501997   1502061   1501961   1501761   1501537  
  7630.000000   1501369   1501323   1501452   1501786   1502321  
  7620.000000   1503003   1503728   1504353   1504729   1504745  
  7610.000000   1504359   1503628   1502688   1501719   1500890  
  7600.000000   1500324   1500073   1500130   1500445   1500950  
  7590.000000   1501581   1502267   1502947   1503556   1504039  
  7580.000000   1504371   1504562   1504674   1504786   1504986  
  7570.000000   1505312   1505751   1506221   1506618   1506851  
  7560.000000   1506891   1506782   1506640   1506600   1506782  
  7550.000000   1507244   1507965   1508857   1509804   1510700  
  7540.000000   1511482   1512148   1512745   1513349   1514041  
  7530.000000   1514868   1515839   1516905   1517982   1518962  
  7520.000000   1519752   1520287   1520568   1520643   1520621  
  7510.000000   1520615   1520733   1521029   1521513   1522145  
  7500.000000   1522869   1523641   1524454   1525340   1526361  
  7490.000000   1527581   1529045   1530760   1532691   1534761  
  7480.000000   1536878   1538937   1540850   1542541   1543976  
  7470.000000   1545155   1546135   1547002   1547873   1548846  
  7460.000000   1549988   1551297   1552715   1554141   1555479  
  7450.000000   1556672   1557730   1558724   1559760   1560944  
  7440.000000   1562339   1563950   1565732   1567616   1569541  
  7430.000000   1571466   1573381   1575279   1577152   1578967  
  7420.000000   1580680   1582246   1583659   1584956   1586225  
  7410.000000   1587579   1589125   1590926   1592987   1595248  
  7400.000000   1597605   1599941   1602157   1604191   1606025  
  7390.000000   1607682   1609214   1610685   1612153   1613668  
  7380.000000   1615260   1616941   1618708   1620545   1622434  
  7370.000000   1624355   1626284   1628198   1630061   1631838  
  7360.000000   1633493   1635010   1636395   1637696   1638985  
  7350.000000   1640350   1641865   1643565   1645426   1647374  
  7340.000000   1649302   1651105   1652703   1654058   1655181  
  7330.000000   1656115   1656926   1657691   1658493   1659412  
  7320.000000   1660521   1661879   1663517   1665430   1667565  
  7310.000000   1669830   1672108   1674289   1676281   1678036  
  7300.000000   1679543   1680825   1681928   1682914   1683857  
  7290.000000   1684839   1685935   1687202   1688648   1690236  
  7280.000000   1691868   1693422   1694774   1695852   1696654  
  7270.000000   1697262   1697810   1698431   1699228   1700219  
  7260.000000   1701360   1702544   1703670   1704664   1705525  
  7250.000000   1706306   1707114   1708052   1709213   1710636  
  7240.000000   1712329   1714252   1716365   1718607   1720944  
  7230.000000   1723334   1725757   1728184   1730604   1732997  
  7220.000000   1735370   1737723   1740084   1742479   1744958  
  7210.000000   1747555   1750312   1753234   1756307   1759476  
  7200.000000   1762673   1765820   1768870   1771813   1774695  
  7190.000000   1777586   1780577   1783718   1787019   1790414  
  7180.000000   1793809   1797086   1800178   1803072   1805843  
  7170.000000   1808609   1811527   1814721   1818276   1822193  
  7160.000000   1826413   1830816   1835279   1839678   1843941  
  7150.000000   1848030   1851977   1855844   1859743   1863768  
  7140.000000   1868008   1872477   1877154   1881952   1886793  
  7130.000000   1891601   1896365   1901120   1905950   1910942  
  7120.000000   1916168   1921639   1927322   1933131   1938980  
  7110.000000   1944789   1950521   1956155   1961703   1967165  
  7100.000000   1972551   1977859   1983107   1988321   1993557  
  7090.000000   1998870   2004314   2009909   2015647   2021489  
  7080.000000   2027383   2033280   2039151   2044993   2050823  
  7070.000000   2056664   2062537   2068444   2074377   2080313  
  7060.000000   2086228   2092094   2097898   2103632   2109301  
  7050.000000   2114926   2120527   2126134   2131759   2137408  
  7040.000000   2143058   2148678   2154227   2159672   2164989  
  7030.000000   2170171   2175220   2180141   2184938   2189617  
  7020.000000   2194185   2198670   2203111   2207564   2212077  
  7010.000000   2216690   2221406   2226216   2231081   2235973  
  7000.000000   2240862   2245741   2250592   2255399   2260116  
  6990.000000   2264690   2269056   2273179   2277052   2280715  
  6980.000000   2284223   2287645   2291012   2294337   2297591  
  6970.000000   2300752   2303795   2306744   2309631   2312516  
  6960.000000   2315428   2318378   2321327   2324221   2326990  
  6950.000000   2329590   2331997   2334228   2336318   2338322  
  6940.000000   2340291   2342284   2344336   2346481   2348722  
  6930.000000   2351048   2353417   2355788   2358114   2360375  
  6920.000000   2362568   2364715   2366832   2368915   2370922  
  6910.000000   2372785   2374427   2375800   2376905   2377815  
  6900.000000   2378643   2379529   2380577   2381847   2383319  
  6890.000000   2384931   2386587   2388198   2389693   2391033  
  6880.000000   2392199   2393195   2394033   2394745   2395381  
  6870.000000   2396016   2396733   2397609   2398690   2399974  
  6860.000000   2401411   2402915   2404386   2405741   2406925  
  6850.000000   2407927   2408764   2409480   2410124   2410748  
  6840.000000   2411393   2412097   2412879   2413747   2414687  
  6830.000000   2415672   2416657   2417600   2418456   2419198  
  6820.000000   2419805   2420275   2420615   2420852   2421022  
  6810.000000   2421180   2421379   2421671   2422076   2422590  
  6800.000000   2423168   2423754   2424286   2424736   2425100  
  6790.000000   2425412   2425705   2426005   2426302   2426556  
  6780.000000   2426713   2426733   2426608   2426374   2426097  
  6770.000000   2425846   2425669   2425577   2425546   2425542  
  6760.000000   2425535   2425522   2425521   2425563   2425673  
  6750.000000   2425853   2426087   2426347   2426609   2426859  
  6740.000000   2427098   2427325   2427539   2427724   2427862  
  6730.000000   2427943   2427980   2428012   2428089   2428256  
  6720.000000   2428524   2428871   2429235   2429550   2429761  
  6710.000000   2429853   2429843   2429769   2429666   2429549  
  6700.000000   2429405   2429207   2428930   2428575   2428166  
  6690.000000   2427753   2427383   2427092   2426886   2426751  
  6680.000000   2426656   2426574   2426480   2426357   2426187  
  6670.000000   2425953   2425630   2425209   2424687   2424092  
  6660.000000   2423460   2422836   2422246   2421697   2421168  
  6650.000000   2420628   2420047   2419414   2418727   2417996  
  6640.000000   2417219   2416385   2415464   2414433   2413287  
  6630.000000   2412055   2410793   2409569   2408433   2407402  
  6620.000000   2406443   2405494   2404482   2403361   2402121  
  6610.000000   2400804   2399472   2398196   2397020   2395957  
  6600.000000   2394977   2394030   2393057   2392008   2390849  
  6590.000000   2389571   2388182   2386713   2385206   2383715  
  6580.000000   2382285   2380949   2379709   2378540   2377386  
  6570.000000   2376184   2374881   2373455   2371920   2370325  
  6560.000000   2368736   2367215   2365803   2364510   2363318  
  6550.000000   2362192   2361095   2360000   2358892   2357765  
  6540.000000   2356620   2355450   2354247   2352996   2351686  
  6530.000000   2350310   2348880   2347417   2345959   2344550  
  6520.000000   2343232   2342033   2340964   2340015   2339152  
  6510.000000   2338330   2337499   2336619   2335667   2334641  
  6500.000000   2333556   2332440   2331323   2330227   2329166  
  6490.000000   2328141   2327148   2326176   2325216   2324258  
  6480.000000   2323295   2322321   2321326   2320308   2319258  
  6470.000000   2318175   2317057   2315906   2314731   2313544  
  6460.000000   2312361   2311194   2310053   2308939   2307842  
  6450.000000   2306745   2305634   2304502   2303363   2302244  
  6440.000000   2301186   2300224   2299382   2298655   2298021  
  6430.000000   2297438   2296871   2296294   2295709   2295131  
  6420.000000   2294590   2294104   2293684   2293320   2292996  
  6410.000000   2292693   2292399   2292110   2291831   2291562  
  6400.000000   2291304   2291048   2290790   2290528   2290270  
  6390.000000   2290024   2289802   2289605   2289428   2289254  
  6380.000000   2289068   2288862   2288640   2288416   2288207  
  6370.000000   2288028   2287880   2287758   2287651   2287553  
  6360.000000   2287465   2287393   2287338   2287294   2287235  
  6350.000000   2287131   2286946   2286662   2286275   2285804  
  6340.000000   2285275   2284715   2284138   2283549   2282940  
  6330.000000   2282311   2281665   2281021   2280393   2279798  
  6320.000000   2279235   2278692   2278144   2277573   2276963  
  6310.000000   2276310   2275614   2274878   2274097   2273267  
  6300.000000   2272385   2271463   2270524   2269604   2268728  
  6290.000000   2267909   2267123   2266332   2265480   2264529  
  6280.000000   2263463   2262305   2261095   2259884   2258701  
  6270.000000   2257553   2256418   2255260   2254045   2252758  
  6260.000000   2251408   2250026   2248647   2247305   2246016  
  6250.000000   2244789   2243618   2242498   2241419   2240374  
  6240.000000   2239348   2238326   2237286   2236212   2235091  
  6230.000000   2233925   2232727   2231512   2230299   2229096  
  6220.000000   2227903   2226711   2225507   2224278   2223019  
  6210.000000   2221730   2220418   2219099   2217794   2216523  
  6200.000000   2215309   2214167   2213103   2212113   2211185  
  6190.000000   2210304   2209459   2208644   2207862   2207116  
  6180.000000   2206405   2205715   2205024   2204300   2203523  
  6170.000000   2202683   2201794   2200885   2199990   2199136  
  6160.000000   2198328   2197552   2196776   2195965   2195094  
  6150.000000   2194151   2193143   2192091   2191018   2189944  
  6140.000000   2188883   2187843   2186828   2185842   2184887  
  6130.000000   2183968   2183091   2182255   2181461   2180704  
  6120.000000   2179975   2179259   2178542   2177803   2177035  
  6110.000000   2176234   2175420   2174621   2173878   2173224  
  6100.000000   2172682   2172253   2171921   2171657   2171434  
  6090.000000   2171232   2171047   2170872   2170709   2170542  
  6080.000000   2170357   2170131   2169864   2169564   2169273  
  6070.000000   2169034   2168898   2168889   2169018   2169264  
  6060.000000   2169609   2170025   2170507   2171051   2171672  
  6050.000000   2172362   2173123   2173926   2174763   2175615  
  6040.000000   2176501   2177437   2178466   2179610   2180889  
  6030.000000   2182295   2183820   2185438   2187145   2188929  
  6020.000000   2190797   2192736   2194741   2196779   2198832  
  6010.000000   2200869   2202893   2204903   2206933   2208999  
  6000.000000   2211133   2213338   2215632   2218014   2220504  
  5990.000000   2223110   2225861   2228758   2231806   2234978  
  5980.000000   2238257   2241607   2245024   2248500   2252058  
  5970.000000   2255708   2259471   2263336   2267300   2271333  
  5960.000000   2275425   2279553   2283719   2287911   2292133  
  5950.000000   2296373   2300632   2304901   2309191   2313512  
  5940.000000   2317881   2322315   2326818   2331389   2336013  
  5930.000000   2340680   2345372   2350086   2354801   2359498  
  5920.000000   2364127   2368633   2372939   2376987   2380730  
  5910.000000   2384162   2387298   2390190   2392885   2395447  
  5900.000000   2397917   2400346   2402762   2405209   2407707  
  5890.000000   2410285   2412936   2415654   2418401   2421146  
  5880.000000   2423847   2426474   2429003   2431414   2433693  
  5870.000000   2435829   2437824   2439692   2441471   2443214  
  5860.000000   2444984   2446835   2448801   2450888   2453081  
  5850.000000   2455350   2457670   2460021   2462401   2464813  
  5840.000000   2467262   2469744   2472254   2474780   2477320  
  5830.000000   2479874   2482455   2485069   2487724   2490409  
  5820.000000   2493112   2495812   2498499   2501165   2503811  
  5810.000000   2506439   2509039   2511601   2514101   2516542  
  5800.000000   2518917   2521274   2523639   2526072   2528575  
  5790.000000   2531151   2533724   2536217   2538486   2540413  
  5780.000000   2541850   2542700   2542867   2542333   2541106  
  5770.000000   2539284   2536995   2534423   2531732   2529079  
  5760.000000   2526541   2524163   2521912   2519766   2517681  
  5750.000000   2515670   2513748   2511964   2510345   2508901  
  5740.000000   2507607   2506416   2505275   2504139   2502987  
  5730.000000   2501809   2500616   2499410   2498200   2496981  
  5720.000000   2495761   2494544   2493348   2492184   2491066  
  5710.000000   2489991   2488953   2487942   2486958   2486008  
  5700.000000   2485109   2484275   2483510   2482806   2482137  
  5690.000000   2481480   2480813   2480140   2479467   2478817  
  5680.000000   2478193   2477590   2476966   2476273   2475444  
  5670.000000   2474430   2473181   2471674   2469892   2467838  
  5660.000000   2465522   2462978   2460253   2457418   2454546  
  5650.000000   2451714   2448976   2446371   2443908   2441587  
  5640.000000   2439395   2437326   2435377   2433546   2431830  
  5630.000000   2430217   2428693   2427231   2425818   2424430  
  5620.000000   2423062   2421698   2420335   2418963   2417588  
  5610.000000   2416216   2414877   2413599   2412417   2411345  
  5600.000000   2410386   2409515   2408702   2407912   2407129  
  5590.000000   2406348   2405582   2404843   2404136   2403451  
  5580.000000   2402766   2402057   2401307   2400513   2399685  
  5570.000000   2398836   2397977   2397111   2396229   2395324  
  5560.000000   2394387   2393423   2392440   2391452   2390462  
  5550.000000   2389470   2388466   2387440   2386388   2385318  
  5540.000000   2384239   2383164   2382095   2381028   2379953  
  5530.000000   2378867   2377772   2376686   2375629   2374621  
  5520.000000   2373664   2372746   2371842   2370928   2369985  
  5510.000000   2369011   2368008   2366987   2365946   2364880  
  5500.000000   2363772   2362616   2361411   2360176   2358931  
  5490.000000   2357695   2356467   2355235   2353966   2352641  
  5480.000000   2351247   2349799   2348326   2346862   2345428  
  5470.000000   2344028   2342642   2341242   2339803   2338313  
  5460.000000   2336772   2335185   2333556   2331881   2330151  
  5450.000000   2328363   2326528   2324675   2322845   2321082  
  5440.000000   2319414   2317846   2316369   2314957   2313593  
  5430.000000   2312261   2310959   2309681   2308427   2307182  
  5420.000000   2305952   2304741   2303590   2302542   2301659  
  5410.000000   2300967   2300473   2300128   2299885   2299678  
  5400.000000   2299487   2299303   2299171   2299120   2299200  
  5390.000000   2299412   2299764   2300230   2300818   2301529  
  5380.000000   2302405   2303462   2304733   2306190   2307820  
  5370.000000   2309560   2311399   2313302   2315311   2317431  
  5360.000000   2319732   2322219   2324953   2327927   2331206  
  5350.000000   2334789   2338753   2343093   2347863   2353013  
  5340.000000   2358566   2364453   2370716   2377320   2384350  
  5330.000000   2391789   2399718   2408091   2416956   2426242  
  5320.000000   2436013   2446229   2457003   2468326   2480330  
  5310.000000   2492989   2506400   2520502   2535366   2550933  
  5300.000000   2567288   2584398   2602374   2621190   2640939  
  5290.000000   2661556   2683058   2705301   2728220   2751635  
  5280.000000   2775497   2799707   2824338   2849425   2875118  
  5270.000000   2901462   2928497   2956111   2984145   3012373  
  5260.000000   3040615   3068768   3096820   3124839   3152875  
  5250.000000   3180953   3208958   3236743   3264051   3290729  
  5240.000000   3316616   3341758   3366181   3390071   3413489  
  5230.000000   3436565   3459227   3481452   3503044   3523931  
  5220.000000   3543946   3563126   3581434   3599029   3615949  
  5210.000000   3632358   3648231   3663624   3678399   3692541  
  5200.000000   3705903   3718533   3730379   3741573   3752106  
  5190.000000   3762092   3771465   3780270   3788401   3795898  
  5180.000000   3802695   3808880   3814429   3819434   3823853  
  5170.000000   3827745   3831051   3833840   3836083   3837876  
  5160.000000   3839202   3840133   3840614   3840672   3840242  
  5150.000000   3839371   3838048   3836373   3834371   3832132  
  5140.000000   3829643   3826936   3823959   3820734   3817236  
  5130.000000   3813518   3809590   3805508   3801268   3796890  
  5120.000000   3792353   3787673   3782848   3777922   3772917  
  5110.000000   3767876   3762809   3757736   3752656   3747586  
  5100.000000   3742545   3737569   3732677   3727889   3723191  
  5090.000000   3718561   3713962   3709376   3704788   3700216  
  5080.000000   3695670   3691171   3686708   3682266   3677802  
  5070.000000   3673285   3668674   3663959   3659123   3654171  
  5060.000000   3649093   3643894   3638562   3633111   3627540  
  5050.000000   3621872   3616107   3610258   3604304   3598241  
  5040.000000   3592044   3585722   3579277   3572746   3566146  
  5030.000000   3559505   3552815   3546067   3539233   3532301  
  5020.000000   3525272   3518175   3511055   3503963   3496946  
  5010.000000   3490029   3483225   3476523   3469922   3463407  
  5000.000000   3456995   3450688   3444516   3438487   3432632  
  4990.000000   3426950   3421471   3416193   3411153   3406345  
  4980.000000   3401803   3397511   3393493   3389719   3386212  
  4970.000000   3382941   3379934   3377165   3374667   3372411  
  4960.000000   3370432   3368703   3367266   3366102   3365262  
  4950.000000   3364727   3364541   3364668   3365141   3365912  
  4940.000000   3367015   3368412   3370149   3372200   3374619  
  4930.000000   3377377   3380522   3384021   3387919   3392189  
  4920.000000   3396878   3401962   3407481   3413401   3419746  
  4910.000000   3426471   3433587   3441051   3448866   3456986  
  4900.000000   3465396   3474041   3482886   3491876   3500975  
  4890.000000   3510143   3519341   3528535   3537664   3546678  
  4880.000000   3555483   3564023   3572204   3579994   3587323  
  4870.000000   3594189   3600537   3606373   3611637   3616340  
  4860.000000   3620428   3623935   3626836   3629197   3631024  
  4850.000000   3632400   3633350   3633963   3634271   3634360  
  4840.000000   3634259   3634038   3633708   3633317   3632869  
  4830.000000   3632400   3631926   3631492   3631128   3630874  
  4820.000000   3630753   3630775   3630937   3631222   3631616  
  4810.000000   3632101   3632676   3633332   3634077   3634901  
  4800.000000   3635806   3636777   3637816   3638916   3640092  
  4790.000000   3641354   3642724   3644209   3645815   3647528  
  4780.000000   3649329   3651185   3653065   3654933   3656766  
  4770.000000   3658541   3660248   3661883   3663452   3664969  
  4760.000000   3666448   3667908   3669361   3670818   3672282  
  4750.000000   3673757   3675235   3676712   3678169   3679590  
  4740.000000   3680948   3682218   3683379   3684423   3685357  
  4730.000000   3686206   3687009   3687801   3688619   3689476  
  4720.000000   3690377   3691307   3692258   3693212   3694177  
  4710.000000   3695156   3696182   3697274   3698472   3699798  
  4700.000000   3701292   3702976   3704889   3707044   3709463  
  4690.000000   3712135   3715046   3718151   3721408   3724755  
  4680.000000   3728150   3731542   3734910   3738221   3741472  
  4670.000000   3744643   3747745   3750770   3753747   3756693  
  4660.000000   3759653   3762663   3765780   3769038   3772480  
  4650.000000   3776121   3779974   3784029   3788270   3792673  
  4640.000000   3797212   3801863   3806601   3811410   3816263  
  4630.000000   3821139   3825997   3830799   3835489   3840021  
  4620.000000   3844336   3848401   3852173   3855643   3858789  
  4610.000000   3861629   3864160   3866421   3868422   3870214  
  4600.000000   3871811   3873264   3874574   3875780   3876869  
  4590.000000   3877862   3878729   3879474   3880052   3880455  
  4580.000000   3880639   3880598   3880309   3879791   3879049  
  4570.000000   3878127   3877043   3875840   3874530   3873140  
  4560.000000   3871672   3870149   3868575   3866979   3865367  
  4550.000000   3863762   3862158   3860555   3858935   3857288  
  4540.000000   3855599   3853869   3852106   3850325   3848546  
  4530.000000   3846779   3845039   3843321   3841632   3839956  
  4520.000000   3838308   3836675   3835090   3833548   3832101  
  4510.000000   3830757   3829588   3828615   3827925   3827542  
  4500.000000   3827559   3827985   3828906   3830317   3832296  
  4490.000000   3834830   3837995   3841766   3846207   3851275  
  4480.000000   3857007   3863338   3870292   3877794   3885868  
  4470.000000   3894441   3903534   3913070   3923054   3933403  
  4460.000000   3944117   3955118   3966414   3977946   3989723  
  4450.000000   4001694   4013858   4026168   4038622   4051196  
  4440.000000   4063898   4076727   4089687   4102769   4115936  
  4430.000000   4129146   4142315   4155386   4168270   4180933  
  4420.000000   4193312   4205404   4217158   4228573   4239579  
  4410.000000   4250152   4260201   4269697   4278563   4286803  
  4400.000000   4294395   4301402   4307859   4313875   4319520  
  4390.000000   4324920   4330153   4335338   4340539   4345845  
  4380.000000   4351279   4356883   4362630   4368519   4374503  
  4370.000000   4380568   4386675   4392819   4398967   4405106  
  4360.000000   4411189   4417187   4423035   4428716   4434161  
  4350.000000   4439386   4444329   4449043   4453483   4457737  
  4340.000000   4461783   4465707   4469436   4472917   4475880  
  4330.000000   4478009   4478815   4477861   4474750   4469349  
  4320.000000   4461772   4452467   4442076   4431376   4421062  
  4310.000000   4411696   4403574   4396789   4391238   4386744  
  4300.000000   4383107   4380171   4377838   4376035   4374738  
  4290.000000   4373881   4373452   4373385   4373691   4374341  
  4280.000000   4375367   4376752   4378486   4380515   4382768  
  4270.000000   4385171   4387633   4390073   4392366   4394354  
  4260.000000   4395805   4396456   4396025   4394303   4391185  
  4250.000000   4386750   4381222   4374977   4368422   4361978  
  4240.000000   4355946   4350541   4345806   4341715   4338136  
  4230.000000   4334941   4331983   4329150   4326361   4323558  
  4220.000000   4320730   4317867   4315023   4312231   4309587  
  4210.000000   4307146   4305007   4303203   4301784   4300731  
  4200.000000   4300029   4299608   4299414   4299357   4299390  
  4190.000000   4299444   4299512   4299568   4299651   4299769  
  4180.000000   4299987   4300318   4300828   4301522   4302457  
  4170.000000   4303636   4305116   4306898   4309040   4311540  
  4160.000000   4314449   4317751   4321486   4325624   4330193  
  4150.000000   4335146   4340500   4346195   4352246   4358596  
  4140.000000   4365279   4372262   4379604   4387285   4395365  
  4130.000000   4403809   4412650   4421831   4431375   4441237  
  4120.000000   4451462   4462046   4473068   4484550   4496571  
  4110.000000   4509136   4522279   4535952   4550125   4564695  
  4100.000000   4579584   4594669   4609874   4625119   4640378  
  4090.000000   4655638   4670918   4686239   4701609   4717037  
  4080.000000   4732492   4747961   4763380   4778725   4793907  
  4070.000000   4808890   4823558   4837873   4851720   4865095  
  4060.000000   4877921   4890234   4901974   4913176   4923759  
  4050.000000   4933747   4943059   4951755   4959796   4967280  
  4040.000000   4974177   4980565   4986370   4991629   4996256  
  4030.000000   5000305   5003730   5006628   5008987   5010892  
  4020.000000   5012296   5013263   5013778   5013902   5013590  
  4010.000000   5012935   5011984   5010719   5008930   5006626  
  4000.000000   5004057  
##END= 
