##TITLE= Sample 021 By ssteindl date Dienstag, November 20 2018
##JCAMP-DX= 4.24
##DATA TYPE= INFRARED SPECTRUM
##ORIGIN= Exported PE Spectrum Data File
##OWNER= Sandra Steindl
##DATE= 18/11/20
##TIME= 10:18:29.00
##SPECTROMETER/DATA SYSTEM= PERKIN-ELMER Frontier FT-IR/NIR IR
##INSTRUMENT PARAMETERS=
  APODIZATION=stark
  DETECTOR=INGAAS
##RESOLUTION= 16.000000
##DELTAX= -2.000000
##XUNITS= 1/CM
##YUNITS= A
##XFACTOR= 1.00
##YFACTOR= 0.00000011920928955078
##FIRSTX= 10000.00
##LASTX= 4000.00
##NPOINTS= 3001
##FIRSTY= 0.191176
##MAXY= 0.562725
##MINY= 0.169618
##XYDATA= (X++(Y..Y))
 10000.000000   1603696   1601937   1600421   1599478   1599080  
  9990.000000   1598941   1598785   1598589   1598512   1598736  
  9980.000000   1599302   1599913   1600022   1598966   1596312  
  9970.000000   1592006   1586441   1580281   1574246   1568910  
  9960.000000   1564667   1561750   1560326   1560485   1562185  
  9950.000000   1565131   1568735   1572160   1574573   1575402  
  9940.000000   1574619   1572780   1570875   1569968   1570781  
  9930.000000   1573444   1577453   1581957   1586103   1589380  
  9920.000000   1591679   1593190   1594086   1594343   1593629  
  9910.000000   1591483   1587560   1581879   1574972   1567735  
  9900.000000   1561205   1556170   1552941   1551271   1550493  
  9890.000000   1549832   1548694   1546884   1544661   1542587  
  9880.000000   1541348   1541509   1543350   1546794   1551401  
  9870.000000   1556480   1561295   1565237   1568065   1569888  
  9860.000000   1571138   1572283   1573601   1574963   1575856  
  9850.000000   1575547   1573475   1569539   1564311   1558903  
  9840.000000   1554598   1552405   1552587   1554644   1557435  
  9830.000000   1559761   1560791   1560459   1559381   1558577  
  9820.000000   1558928   1560791   1563811   1567086   1569556  
  9810.000000   1570398   1569346   1566654   1562948   1558893  
  9800.000000   1554984   1551447   1548314   1545550   1543178  
  9790.000000   1541261   1539871   1538975   1538423   1538018  
  9780.000000   1537608   1537228   1537083   1537486   1538704  
  9770.000000   1540803   1543636   1546844   1550047   1552900  
  9760.000000   1555216   1556888   1557854   1558035   1557353  
  9750.000000   1555848   1553737   1551507   1549758   1549081  
  9740.000000   1549769   1551717   1554388   1557001   1558766  
  9730.000000   1559120   1557835   1555020   1550994   1546176  
  9720.000000   1540998   1535908   1531403   1528012   1526227  
  9710.000000   1526318   1528203   1531329   1534800   1537583  
  9700.000000   1538846   1538216   1535884   1532527   1529065  
  9690.000000   1526394   1525191   1525805   1528297   1532436  
  9680.000000   1537768   1543578   1548971   1552950   1554648  
  9670.000000   1553574   1549826   1544167   1537845   1532309  
  9660.000000   1528736   1527774   1529352   1532859   1537346  
  9650.000000   1541901   1545777   1548512   1549802   1549443  
  9640.000000   1547292   1543319   1537776   1531211   1524503  
  9630.000000   1518570   1514181   1511660   1510857   1511258  
  9620.000000   1512182   1513122   1513775   1514186   1514511  
  9610.000000   1514965   1515671   1516659   1517957   1519568  
  9600.000000   1521542   1523758   1525888   1527264   1527084  
  9590.000000   1524658   1519819   1513108   1505767   1499373  
  9580.000000   1495308   1494272   1496015   1499476   1503225  
  9570.000000   1506028   1507311   1507270   1506692   1506502  
  9560.000000   1507338   1509284   1511921   1514590   1516772  
  9550.000000   1518316   1519492   1520783   1522594   1525056  
  9540.000000   1527903   1530652   1532734   1533754   1533541  
  9530.000000   1532168   1529868   1526915   1523584   1520120  
  9520.000000   1516747   1513661   1510960   1508622   1506467  
  9510.000000   1504262   1501833   1499240   1496801   1495065  
  9500.000000   1494552   1495541   1497855   1500861   1503689  
  9490.000000   1505510   1505921   1505018   1503374   1501705  
  9480.000000   1500544   1500033   1499871   1499551   1498619  
  9470.000000   1496988   1495003   1493345   1492657   1493246  
  9460.000000   1494799   1496512   1497307   1496289   1493092  
  9450.000000   1487992   1481872   1475828   1470873   1467534  
  9440.000000   1465757   1464961   1464308   1463067   1460894  
  9430.000000   1457975   1454930   1452612   1451811   1453001  
  9420.000000   1456194   1460853   1466070   1470698   1473763  
  9410.000000   1474621   1473220   1470029   1465944   1462017  
  9400.000000   1459197   1458112   1458943   1461438   1465027  
  9390.000000   1469018   1472750   1475762   1477785   1478788  
  9380.000000   1478854   1478175   1476965   1475458   1473893  
  9370.000000   1472484   1471410   1470742   1470434   1470303  
  9360.000000   1470071   1469439   1468151   1466113   1463396  
  9350.000000   1460303   1457248   1454718   1453093   1452603  
  9340.000000   1453250   1454846   1457074   1459526   1461791  
  9330.000000   1463447   1464132   1463552   1461575   1458237  
  9320.000000   1453835   1448895   1444174   1440476   1438479  
  9310.000000   1438498   1440364   1443478   1446950   1449887  
  9300.000000   1451610   1451900   1451020   1449626   1448495  
  9290.000000   1448217   1449038   1450758   1452908   1454839  
  9280.000000   1455981   1455956   1454693   1452418   1449541  
  9270.000000   1446558   1443944   1442118   1441405   1441953  
  9260.000000   1443689   1446287   1449228   1451923   1453828  
  9250.000000   1454635   1454354   1453386   1452405   1452140  
  9240.000000   1453120   1455483   1458946   1462851   1466346  
  9230.000000   1468649   1469267   1468161   1465690   1462500  
  9220.000000   1459293   1456682   1455044   1454441   1454638  
  9210.000000   1455201   1455658   1455617   1454826   1453248  
  9200.000000   1451026   1448522   1446161   1444390   1443522  
  9190.000000   1443722   1444972   1447061   1449638   1452239  
  9180.000000   1454423   1455777   1455999   1454885   1452412  
  9170.000000   1448771   1444394   1439883   1435906   1433109  
  9160.000000   1431949   1432587   1434765   1437909   1441277  
  9150.000000   1444164   1446050   1446690   1446127   1444608  
  9140.000000   1442460   1439959   1437328   1434732   1432414  
  9130.000000   1430638   1429708   1429829   1431017   1432995  
  9120.000000   1435178   1436874   1437493   1436818   1435082  
  9110.000000   1432957   1431331   1431022   1432464   1435559  
  9100.000000   1439702   1443985   1447491   1449532   1449819  
  9090.000000   1448448   1445835   1442509   1438985   1435662  
  9080.000000   1432824   1430632   1429159   1428415   1428351  
  9070.000000   1428881   1429846   1431111   1432537   1434087  
  9060.000000   1435723   1437438   1439171   1440809   1442225  
  9050.000000   1443283   1443949   1444226   1444188   1443863  
  9040.000000   1443210   1442069   1440229   1437562   1434143  
  9030.000000   1430338   1426734   1424043   1422860   1423478  
  9020.000000   1425734   1429072   1432698   1435796   1437744  
  9010.000000   1438264   1437485   1435838   1433904   1432250  
  9000.000000   1431321   1431345   1432316   1434005   1436052  
  8990.000000   1438025   1439525   1440258   1440111   1439150  
  8980.000000   1437584   1435690   1433741   1431924   1430344  
  8970.000000   1429048   1428090   1427571   1427612   1428335  
  8960.000000   1429766   1431804   1434192   1436584   1438650  
  8950.000000   1440155   1441027   1441325   1441207   1440823  
  8940.000000   1440303   1439723   1439163   1438737   1438590  
  8930.000000   1438870   1439637   1440836   1442246   1443570  
  8920.000000   1444494   1444835   1444581   1443902   1443061  
  8910.000000   1442299   1441754   1441409   1441160   1440853  
  8900.000000   1440399   1439769   1439023   1438240   1437493  
  8890.000000   1436827   1436270   1435893   1435799   1436143  
  8880.000000   1437034   1438525   1440543   1442927   1445470  
  8870.000000   1447977   1450316   1452375   1454029   1455087  
  8860.000000   1455313   1454469   1452447   1449371   1445685  
  8850.000000   1442055   1439210   1437699   1437710   1439017  
  8840.000000   1441033   1443056   1444483   1445048   1444854  
  8830.000000   1444325   1444007   1444370   1445673   1447879  
  8820.000000   1450741   1453833   1456739   1459064   1460554  
  8810.000000   1461074   1460639   1459420   1457719   1455964  
  8800.000000   1454614   1454091   1454656   1456342   1458943  
  8790.000000   1462058   1465206   1467919   1469844   1470780  
  8780.000000   1470705   1469742   1468149   1466261   1464491  
  8770.000000   1463262   1462954   1463808   1465849   1468875  
  8760.000000   1472462   1476105   1479305   1481727   1483251  
  8750.000000   1483987   1484210   1484233   1484321   1484587  
  8740.000000   1485014   1485457   1485752   1485761   1485457  
  8730.000000   1484919   1484306   1483816   1483603   1483770  
  8720.000000   1484311   1485171   1486245   1487458   1488792  
  8710.000000   1490301   1492074   1494157   1496505   1498907  
  8700.000000   1501047   1502529   1503061   1502510   1501027  
  8690.000000   1498989   1496936   1495414   1494829   1495361  
  8680.000000   1496923   1499269   1502072   1505058   1508032  
  8670.000000   1510903   1513628   1516163   1518434   1520311  
  8660.000000   1521696   1522522   1522857   1522839   1522687  
  8650.000000   1522599   1522728   1523138   1523805   1524679  
  8640.000000   1525705   1526896   1528287   1529972   1532006  
  8630.000000   1534411   1537104   1539927   1542674   1545119  
  8620.000000   1547106   1548518   1549358   1549670   1549570  
  8610.000000   1549163   1548553   1547832   1547104   1546526  
  8600.000000   1546300   1546684   1547908   1550127   1553306  
  8590.000000   1557216   1561447   1565493   1568877   1571272  
  8580.000000   1572609   1573059   1572990   1572827   1572957  
  8570.000000   1573612   1574857   1576583   1578579   1580591  
  8560.000000   1582382   1583789   1584714   1585170   1585239  
  8550.000000   1585104   1584995   1585164   1585825   1587087  
  8540.000000   1588921   1591142   1593457   1595534   1597100  
  8530.000000   1598006   1598263   1598036   1597598   1597253  
  8520.000000   1597272   1597831   1598993   1600693   1602758  
  8510.000000   1604952   1607019   1608759   1610067   1610973  
  8500.000000   1611629   1612255   1613078   1614222   1615687  
  8490.000000   1617312   1618856   1620063   1620764   1620961  
  8480.000000   1620826   1620666   1620799   1621497   1622883  
  8470.000000   1624920   1627408   1630042   1632500   1634488  
  8460.000000   1635800   1636330   1636113   1635296   1634132  
  8450.000000   1632921   1631973   1631549   1631797   1632746  
  8440.000000   1634286   1636235   1638364   1640486   1642452  
  8430.000000   1644200   1645703   1646966   1647986   1648751  
  8420.000000   1649253   1649490   1649499   1649331   1649055  
  8410.000000   1648727   1648360   1647950   1647461   1646885  
  8400.000000   1646242   1645609   1645093   1644797   1644779  
  8390.000000   1645014   1645393   1645745   1645892   1645714  
  8380.000000   1645209   1644495   1643786   1643331   1643339  
  8370.000000   1643915   1645015   1646462   1648005   1649386  
  8360.000000   1650408   1650976   1651092   1650850   1650372  
  8350.000000   1649787   1649190   1648652   1648220   1647930  
  8340.000000   1647787   1647766   1647792   1647751   1647505  
  8330.000000   1646930   1645962   1644621   1643021   1641328  
  8320.000000   1639712   1638302   1637161   1636298   1635695  
  8310.000000   1635341   1635254   1635464   1635988   1636787  
  8300.000000   1637746   1638682   1639396   1639728   1639624  
  8290.000000   1639141   1638444   1637740   1637229   1637042  
  8280.000000   1637210   1637666   1638265   1638838   1639213  
  8270.000000   1639261   1638906   1638148   1637058   1635779  
  8260.000000   1634476   1633315   1632399   1631762   1631343  
  8250.000000   1631036   1630709   1630279   1629704   1629013  
  8240.000000   1628239   1627405   1626486   1625423   1624154  
  8230.000000   1622651   1620955   1619162   1617387   1615726  
  8220.000000   1614194   1612756   1611330   1609872   1608405  
  8210.000000   1607041   1605921   1605147   1604694   1604395  
  8200.000000   1603971   1603122   1601647   1599519   1596915  
  8190.000000   1594148   1591563   1589410   1587770   1586555  
  8180.000000   1585568   1584607   1583541   1582358   1581145  
  8170.000000   1580029   1579106   1578389   1577803   1577206  
  8160.000000   1576462   1575476   1574243   1572829   1571358  
  8150.000000   1569970   1568792   1567906   1567338   1567042  
  8140.000000   1566917   1566799   1566519   1565916   1564904  
  8130.000000   1563485   1561771   1559954   1558257   1556884  
  8120.000000   1555965   1555548   1555592   1556008   1556678  
  8110.000000   1557485   1558310   1559038   1559537   1559688  
  8100.000000   1559391   1558610   1557390   1555862   1554216  
  8090.000000   1552644   1551281   1550167   1549233   1548343  
  8080.000000   1547335   1546103   1544614   1542935   1541192  
  8070.000000   1539529   1538059   1536833   1535842   1535026  
  8060.000000   1534314   1533652   1533018   1532428   1531917  
  8050.000000   1531524   1531267   1531134   1531078   1531027  
  8040.000000   1530904   1530630   1530161   1529475   1528590  
  8030.000000   1527548   1526406   1525223   1524056   1522951  
  8020.000000   1521948   1521086   1520397   1519902   1519593  
  8010.000000   1519433   1519343   1519224   1518978   1518536  
  8000.000000   1517888   1517076   1516192   1515330   1514563  
  7990.000000   1513906   1513323   1512740   1512089   1511340  
  7980.000000   1510523   1509713   1509008   1508479   1508147  
  7970.000000   1507960   1507826   1507637   1507325   1506868  
  7960.000000   1506313   1505735   1505223   1504831   1504583  
  7950.000000   1504466   1504461   1504558   1504770   1505125  
  7940.000000   1505645   1506327   1507125   1507954   1508706  
  7930.000000   1509279   1509601   1509640   1509413   1508955  
  7920.000000   1508326   1507579   1506772   1505955   1505180  
  7910.000000   1504495   1503935   1503521   1503244   1503092  
  7900.000000   1503043   1503099   1503286   1503647   1504228  
  7890.000000   1505041   1506049   1507145   1508187   1509016  
  7880.000000   1509517   1509642   1509441   1509038   1508604  
  7870.000000   1508312   1508289   1508600   1509227   1510107  
  7860.000000   1511124   1512165   1513109   1513863   1514345  
  7850.000000   1514509   1514335   1513838   1513074   1512124  
  7840.000000   1511092   1510071   1509135   1508319   1507614  
  7830.000000   1506996   1506428   1505907   1505459   1505158  
  7820.000000   1505089   1505330   1505906   1506769   1507793  
  7810.000000   1508793   1509571   1509955   1509861   1509294  
  7800.000000   1508358   1507211   1506028   1504954   1504076  
  7790.000000   1503430   1503004   1502774   1502705   1502770  
  7780.000000   1502925   1503109   1503235   1503206   1502946  
  7770.000000   1502426   1501691   1500842   1500024   1499364  
  7760.000000   1498940   1498752   1498736   1498793   1498832  
  7750.000000   1498805   1498715   1498595   1498474   1498349  
  7740.000000   1498175   1497885   1497427   1496804   1496092  
  7730.000000   1495420   1494930   1494719   1494794   1495071  
  7720.000000   1495397   1495619   1495628   1495406   1495019  
  7710.000000   1494576   1494179   1493873   1493633   1493378  
  7700.000000   1493010   1492463   1491737   1490898   1490056  
  7690.000000   1489325   1488782   1488449   1488287   1488224  
  7680.000000   1488182   1488101   1487960   1487764   1487545  
  7670.000000   1487335   1487165   1487053   1487004   1487014  
  7660.000000   1487074   1487173   1487308   1487481   1487704  
  7650.000000   1487982   1488313   1488659   1488949   1489080  
  7640.000000   1488947   1488468   1487638   1486542   1485358  
  7630.000000   1484321   1483653   1483503   1483889   1484699  
  7620.000000   1485725   1486725   1487507   1487965   1488102  
  7610.000000   1488002   1487785   1487553   1487372   1487256  
  7600.000000   1487210   1487240   1487378   1487671   1488155  
  7590.000000   1488824   1489612   1490403   1491061   1491478  
  7580.000000   1491616   1491506   1491247   1490955   1490733  
  7570.000000   1490642   1490696   1490881   1491179   1491583  
  7560.000000   1492100   1492733   1493464   1494244   1494998  
  7550.000000   1495651   1496161   1496530   1496825   1497131  
  7540.000000   1497538   1498090   1498781   1499554   1500327  
  7530.000000   1501031   1501636   1502165   1502684   1503270  
  7520.000000   1503991   1504869   1505883   1506958   1508007  
  7510.000000   1508937   1509697   1510275   1510724   1511134  
  7500.000000   1511625   1512307   1513252   1514465   1515892  
  7490.000000   1517431   1518969   1520412   1521724   1522920  
  7480.000000   1524065   1525231   1526472   1527800   1529188  
  7470.000000   1530587   1531958   1533284   1534587   1535897  
  7460.000000   1537242   1538613   1539969   1541242   1542377  
  7450.000000   1543346   1544178   1544942   1545736   1546645  
  7440.000000   1547731   1549007   1550457   1552048   1553749  
  7430.000000   1555545   1557433   1559414   1561485   1563633  
  7420.000000   1565836   1568061   1570276   1572441   1574516  
  7410.000000   1576453   1578213   1579766   1581120   1582313  
  7400.000000   1583422   1584540   1585743   1587085   1588572  
  7390.000000   1590181   1591868   1593601   1595366   1597166  
  7380.000000   1599007   1600878   1602742   1604539   1606212  
  7370.000000   1607724   1609084   1610342   1611578   1612873  
  7360.000000   1614282   1615825   1617487   1619235   1621037  
  7350.000000   1622869   1624713   1626544   1628320   1629983  
  7340.000000   1631477   1632763   1633848   1634783   1635661  
  7330.000000   1636582   1637630   1638842   1640209   1641684  
  7320.000000   1643207   1644732   1646234   1647720   1649206  
  7310.000000   1650713   1652246   1653800   1655352   1656880  
  7300.000000   1658369   1659808   1661199   1662541   1663838  
  7290.000000   1665083   1666265   1667366   1668363   1669234  
  7280.000000   1669968   1670577   1671105   1671627   1672240  
  7270.000000   1673044   1674109   1675452   1677033   1678754  
  7260.000000   1680504   1682178   1683721   1685126   1686440  
  7250.000000   1687721   1689032   1690396   1691821   1693283  
  7240.000000   1694775   1696291   1697860   1699499   1701224  
  7230.000000   1703004   1704799   1706543   1708202   1709774  
  7220.000000   1711321   1712932   1714722   1716772   1719136  
  7210.000000   1721809   1724755   1727911   1731220   1734634  
  7200.000000   1738125   1741663   1745227   1748769   1752253  
  7190.000000   1755621   1758849   1761911   1764822   1767600  
  7180.000000   1770288   1772919   1775540   1778195   1780940  
  7170.000000   1783833   1786933   1790279   1793889   1797730  
  7160.000000   1801745   1805836   1809916   1813904   1817773  
  7150.000000   1821525   1825222   1828935   1832757   1836744  
  7140.000000   1840934   1845300   1849803   1854371   1858960  
  7130.000000   1863534   1868105   1872689   1877329   1882040  
  7120.000000   1886833   1891683   1896567   1901456   1906353  
  7110.000000   1911276   1916279   1921415   1926739   1932268  
  7100.000000   1937994   1943858   1949785   1955676   1961451  
  7090.000000   1967048   1972454   1977692   1982830   1987949  
  7080.000000   1993135   1998442   2003890   2009446   2015048  
  7070.000000   2020619   2026096   2031451   2036694   2041865  
  7060.000000   2047013   2052177   2057370   2062586   2067804  
  7050.000000   2073005   2078177   2083319   2088431   2093508  
  7040.000000   2098531   2103484   2108350   2113138   2117870  
  7030.000000   2122586   2127317   2132078   2136853   2141613  
  7020.000000   2146320   2150961   2155540   2160087   2164622  
  7010.000000   2169153   2173646   2178050   2182302   2186374  
  7000.000000   2190270   2194048   2197775   2201522   2205307  
  6990.000000   2209118   2212892   2216573   2220110   2223501  
  6980.000000   2226762   2229936   2233043   2236096   2239071  
  6970.000000   2241954   2244730   2247419   2250047   2252656  
  6960.000000   2255260   2257863   2260427   2262925   2265318  
  6950.000000   2267607   2269799   2271921   2273982   2275984  
  6940.000000   2277899   2279702   2281366   2282890   2284291  
  6930.000000   2285605   2286869   2288127   2289404   2290733  
  6920.000000   2292132   2293626   2295219   2296907   2298657  
  6910.000000   2300424   2302153   2303802   2305345   2306776  
  6900.000000   2308103   2309334   2310472   2311520   2312484  
  6890.000000   2313395   2314303   2315273   2316353   2317559  
  6880.000000   2318849   2320140   2321326   2322326   2323104  
  6870.000000   2323689   2324157   2324599   2325081   2325624  
  6860.000000   2326203   2326771   2327286   2327739   2328158  
  6850.000000   2328601   2329124   2329764   2330522   2331374  
  6840.000000   2332276   2333191   2334089   2334951   2335762  
  6830.000000   2336507   2337168   2337735   2338208   2338604  
  6820.000000   2338949   2339261   2339544   2339784   2339953  
  6810.000000   2340039   2340050   2340033   2340052   2340179  
  6800.000000   2340448   2340854   2341335   2341804   2342169  
  6790.000000   2342368   2342381   2342233   2341977   2341673  
  6780.000000   2341371   2341108   2340903   2340768   2340710  
  6770.000000   2340730   2340820   2340957   2341109   2341240  
  6760.000000   2341322   2341344   2341317   2341266   2341223  
  6750.000000   2341211   2341243   2341317   2341419   2341534  
  6740.000000   2341644   2341736   2341802   2341840   2341853  
  6730.000000   2341856   2341869   2341913   2342001   2342130  
  6720.000000   2342276   2342400   2342459   2342427   2342299  
  6710.000000   2342097   2341858   2341621   2341406   2341211  
  6700.000000   2341015   2340789   2340510   2340173   2339786  
  6690.000000   2339375   2338960   2338565   2338203   2337890  
  6680.000000   2337632   2337437   2337295   2337179   2337038  
  6670.000000   2336808   2336428   2335861   2335112   2334228  
  6660.000000   2333281   2332353   2331500   2330752   2330096  
  6650.000000   2329503   2328934   2328367   2327785   2327188  
  6640.000000   2326567   2325917   2325217   2324457   2323631  
  6630.000000   2322753   2321841   2320919   2319995   2319065  
  6620.000000   2318103   2317089   2316005   2314855   2313657  
  6610.000000   2312439   2311221   2310012   2308799   2307566  
  6600.000000   2306292   2304967   2303590   2302170   2300717  
  6590.000000   2299242   2297754   2296268   2294798   2293367  
  6580.000000   2291991   2290677   2289413   2288170   2286912  
  6570.000000   2285609   2284245   2282825   2281374   2279918  
  6560.000000   2278482   2277078   2275709   2274368   2273051  
  6550.000000   2271756   2270480   2269217   2267956   2266679  
  6540.000000   2265377   2264050   2262714   2261396   2260118  
  6530.000000   2258886   2257682   2256470   2255211   2253886  
  6520.000000   2252505   2251108   2249749   2248470   2247284  
  6510.000000   2246165   2245060   2243913   2242690   2241397  
  6500.000000   2240074   2238781   2237570   2236465   2235454  
  6490.000000   2234495   2233535   2232529   2231453   2230303  
  6480.000000   2229096   2227851   2226586   2225317   2224053  
  6470.000000   2222805   2221580   2220384   2219218   2218072  
  6460.000000   2216936   2215801   2214664   2213531   2212413  
  6450.000000   2211319   2210251   2209202   2208162   2207120  
  6440.000000   2206083   2205064   2204089   2203179   2202351  
  6430.000000   2201600   2200915   2200277   2199672   2199092  
  6420.000000   2198538   2198005   2197486   2196959   2196409  
  6410.000000   2195819   2195194   2194555   2193937   2193375  
  6400.000000   2192898   2192516   2192225   2192009   2191853  
  6390.000000   2191737   2191650   2191571   2191479   2191344  
  6380.000000   2191147   2190878   2190553   2190208   2189889  
  6370.000000   2189640   2189483   2189417   2189415   2189441  
  6360.000000   2189455   2189428   2189339   2189172   2188907  
  6350.000000   2188528   2188016   2187373   2186620   2185804  
  6340.000000   2184980   2184204   2183503   2182876   2182291  
  6330.000000   2181706   2181079   2180390   2179640   2178847  
  6320.000000   2178031   2177207   2176375   2175523   2174639  
  6310.000000   2173717   2172759   2171780   2170797   2169826  
  6300.000000   2168874   2167952   2167059   2166203   2165379  
  6290.000000   2164580   2163781   2162952   2162057   2161068  
  6280.000000   2159971   2158771   2157486   2156146   2154772  
  6270.000000   2153387   2152004   2150643   2149322   2148070  
  6260.000000   2146903   2145826   2144812   2143811   2142758  
  6250.000000   2141595   2140289   2138846   2137311   2135749  
  6240.000000   2134226   2132789   2131455   2130212   2129031  
  6230.000000   2127880   2126730   2125565   2124377   2123158  
  6220.000000   2121905   2120617   2119297   2117960   2116631  
  6210.000000   2115338   2114105   2112944   2111853   2110811  
  6200.000000   2109794   2108773   2107732   2106662   2105568  
  6190.000000   2104466   2103379   2102328   2101335   2100416  
  6180.000000   2099574   2098804   2098089   2097403   2096723  
  6170.000000   2096026   2095297   2094528   2093715   2092852  
  6160.000000   2091937   2090968   2089950   2088894   2087817  
  6150.000000   2086738   2085666   2084600   2083526   2082427  
  6140.000000   2081295   2080143   2079005   2077933   2076973  
  6130.000000   2076149   2075453   2074842   2074256   2073633  
  6120.000000   2072935   2072152   2071307   2070431   2069565  
  6110.000000   2068726   2067927   2067165   2066444   2065772  
  6100.000000   2065172   2064659   2064248   2063930   2063686  
  6090.000000   2063484   2063302   2063127   2062965   2062826  
  6080.000000   2062731   2062676   2062654   2062636   2062601  
  6070.000000   2062527   2062419   2062289   2062173   2062102  
  6060.000000   2062116   2062232   2062470   2062826   2063297  
  6050.000000   2063860   2064501   2065193   2065932   2066711  
  6040.000000   2067554   2068481   2069534   2070730   2072091  
  6030.000000   2073601   2075245   2076983   2078795   2080653  
  6020.000000   2082559   2084507   2086510   2088559   2090657  
  6010.000000   2092781   2094932   2097091   2099271   2101473  
  6000.000000   2103719   2106015   2108382   2110822   2113355  
  5990.000000   2115981   2118718   2121559   2124512   2127558  
  5980.000000   2130694   2133904   2137194   2140571   2144065  
  5970.000000   2147697   2151495   2155456   2159573   2163804  
  5960.000000   2168107   2172421   2176703   2180911   2185033  
  5950.000000   2189065   2193038   2196989   2200975   2205048  
  5940.000000   2209255   2213617   2218135   2222784   2227520  
  5930.000000   2232300   2237079   2241831   2246532   2251168  
  5920.000000   2255712   2260135   2264393   2268449   2272276  
  5910.000000   2275873   2279256   2282466   2285542   2288534  
  5900.000000   2291468   2294378   2297279   2300198   2303147  
  5890.000000   2306148   2309195   2312283   2315376   2318441  
  5880.000000   2321431   2324312   2327056   2329647   2332074  
  5870.000000   2334331   2336418   2338346   2340142   2341854  
  5860.000000   2343539   2345266   2347090   2349048   2351144  
  5850.000000   2353366   2355676   2358039   2360420   2362794  
  5840.000000   2365148   2367470   2369758   2372006   2374221  
  5830.000000   2376405   2378575   2380743   2382923   2385125  
  5820.000000   2387354   2389609   2391890   2394198   2396531  
  5810.000000   2398890   2401262   2403644   2406013   2408368  
  5800.000000   2410692   2413006   2415303   2417607   2419896  
  5790.000000   2422164   2424344   2426386   2428189   2429671  
  5780.000000   2430718   2431253   2431184   2430484   2429142  
  5770.000000   2427231   2424853   2422177   2419360   2416569  
  5760.000000   2413905   2411439   2409168   2407083   2405144  
  5750.000000   2403340   2401658   2400108   2398687   2397387  
  5740.000000   2396181   2395029   2393901   2392770   2391635  
  5730.000000   2390499   2389384   2388296   2387240   2386205  
  5720.000000   2385181   2384152   2383115   2382066   2381013  
  5710.000000   2379960   2378920   2377905   2376931   2376010  
  5700.000000   2375149   2374349   2373594   2372867   2372146  
  5690.000000   2371427   2370712   2370028   2369395   2368834  
  5680.000000   2368331   2367858   2367350   2366747   2365976  
  5670.000000   2364995   2363764   2362272   2360504   2358467  
  5660.000000   2356169   2353645   2350946   2348153   2345346  
  5650.000000   2342609   2339989   2337508   2335147   2332879  
  5640.000000   2330665   2328487   2326343   2324246   2322216  
  5630.000000   2320266   2318402   2316617   2314909   2313267  
  5620.000000   2311699   2310204   2308791   2307454   2306195  
  5610.000000   2305004   2303882   2302824   2301839   2300921  
  5600.000000   2300066   2299256   2298475   2297703   2296935  
  5590.000000   2296175   2295436   2294725   2294044   2293381  
  5580.000000   2292712   2292015   2291275   2290495   2289687  
  5570.000000   2288872   2288062   2287260   2286453   2285624  
  5560.000000   2284755   2283843   2282890   2281911   2280919  
  5550.000000   2279923   2278924   2277923   2276918   2275913  
  5540.000000   2274912   2273922   2272939   2271955   2270957  
  5530.000000   2269938   2268899   2267857   2266833   2265850  
  5520.000000   2264919   2264033   2263171   2262306   2261410  
  5510.000000   2260473   2259489   2258466   2257406   2256315  
  5500.000000   2255184   2254012   2252797   2251551   2250288  
  5490.000000   2249025   2247766   2246509   2245234   2243927  
  5480.000000   2242572   2241174   2239739   2238285   2236819  
  5470.000000   2235342   2233844   2232316   2230749   2229150  
  5460.000000   2227530   2225907   2224290   2222680   2221072  
  5450.000000   2219455   2217825   2216184   2214543   2212910  
  5440.000000   2211291   2209686   2208097   2206529   2205003  
  5430.000000   2203541   2202172   2200904   2199734   2198633  
  5420.000000   2197573   2196526   2195496   2194501   2193588  
  5410.000000   2192787   2192124   2191584   2191146   2190770  
  5400.000000   2190447   2190168   2189968   2189870   2189913  
  5390.000000   2190096   2190423   2190863   2191414   2192063  
  5380.000000   2192836   2193743   2194817   2196050   2197455  
  5370.000000   2198995   2200676   2202464   2204383   2206413  
  5360.000000   2208593   2210911   2213417   2216114   2219079  
  5350.000000   2222329   2225949   2229936   2234341   2239110  
  5340.000000   2244263   2249737   2255580   2261764   2268372  
  5330.000000   2275382   2282864   2290759   2299109   2307845  
  5320.000000   2317033   2326645   2336800   2347496   2358860  
  5310.000000   2370865   2383597   2396990   2411104   2425876  
  5300.000000   2441384   2457590   2474595   2492373   2511013  
  5290.000000   2530458   2550737   2571724   2593368   2615500  
  5280.000000   2638069   2660970   2684256   2707950   2732184  
  5270.000000   2757008   2782469   2808472   2834873   2861459  
  5260.000000   2888041   2914490   2940762   2966889   2992906  
  5250.000000   3018848   3044641   3070199   3095334   3119943  
  5240.000000   3143890   3167204   3189873   3212024   3233669  
  5230.000000   3254905   3275663   3295947   3315613   3334639  
  5220.000000   3352901   3370450   3387248   3403426   3418993  
  5210.000000   3434076   3448628   3462690   3476122   3488910  
  5200.000000   3500921   3512206   3522728   3532621   3541890  
  5190.000000   3550651   3558849   3566526   3573580   3580047  
  5180.000000   3585862   3591110   3595765   3599919   3603522  
  5170.000000   3606621   3609144   3611142   3612582   3613560  
  5160.000000   3614078   3614232   3613993   3613399   3612383  
  5150.000000   3610967   3609108   3606866   3604241   3601312  
  5140.000000   3598077   3594590   3590836   3586859   3582658  
  5130.000000   3578292   3573775   3569154   3564421   3559587  
  5120.000000   3554623   3549534   3544309   3538982   3533573  
  5110.000000   3528124   3522649   3517171   3511688   3506215  
  5100.000000   3500760   3495351   3490008   3484756   3479596  
  5090.000000   3474526   3469523   3464568   3459642   3454740  
  5080.000000   3449855   3444991   3440139   3435291   3430427  
  5070.000000   3425532   3420584   3415575   3410485   3405310  
  5060.000000   3400031   3394643   3389133   3383511   3377779  
  5050.000000   3371962   3366071   3360125   3354121   3348064  
  5040.000000   3341943   3335767   3329538   3323280   3317005  
  5030.000000   3310734   3304466   3298201   3291927   3285640  
  5020.000000   3279342   3273048   3266782   3260570   3254440  
  5010.000000   3248400   3242459   3236608   3230847   3225164  
  5000.000000   3219570   3214063   3208670   3203395   3198268  
  4990.000000   3193291   3188489   3183853   3179404   3175125  
  4980.000000   3171038   3167126   3163420   3159913   3156646  
  4970.000000   3153612   3150852   3148344   3146113   3144124  
  4960.000000   3142400   3140912   3139705   3138767   3138161  
  4950.000000   3137877   3137965   3138392   3139185   3140291  
  4940.000000   3141735   3143473   3145547   3147934   3150688  
  4930.000000   3153789   3157284   3161142   3165398   3170012  
  4920.000000   3175011   3180350   3186049   3192064   3198417  
  4910.000000   3205074   3212058   3219351   3226972   3234897  
  4900.000000   3243123   3251607   3260314   3269191   3278189  
  4890.000000   3287260   3296345   3305397   3314336   3323102  
  4880.000000   3331596   3339765   3347518   3354831   3361638  
  4870.000000   3367941   3373678   3378858   3383415   3387366  
  4860.000000   3390661   3393346   3395406   3396917   3397885  
  4850.000000   3398393   3398452   3398140   3397470   3396521  
  4840.000000   3395317   3393941   3392427   3390850   3389245  
  4830.000000   3387672   3386157   3384739   3383427   3382232  
  4820.000000   3381150   3380173   3379300   3378526   3377869  
  4810.000000   3377336   3376950   3376710   3376619   3376650  
  4800.000000   3376787   3376997   3377279   3377625   3378061  
  4790.000000   3378597   3379259   3380043   3380942   3381926  
  4780.000000   3382969   3384039   3385120   3386198   3387275  
  4770.000000   3388346   3389412   3390467   3391508   3392531  
  4760.000000   3393541   3394544   3395549   3396564   3397593  
  4750.000000   3398634   3399679   3400721   3401747   3402748  
  4740.000000   3403712   3404632   3405497   3406303   3407047  
  4730.000000   3407730   3408358   3408938   3409479   3409986  
  4720.000000   3410470   3410933   3411399   3411878   3412409  
  4710.000000   3413013   3413734   3414590   3415617   3416823  
  4700.000000   3418235   3419859   3421727   3423846   3426246  
  4690.000000   3428928   3431906   3435159   3438675   3442403  
  4680.000000   3446304   3450300   3454334   3458315   3462191  
  4670.000000   3465895   3469421   3472768   3475996   3479168  
  4660.000000   3482380   3485711   3489239   3493005   3497034  
  4650.000000   3501318   3505837   3510554   3515428   3520415  
  4640.000000   3525475   3530574   3535682   3540786   3545873  
  4630.000000   3550938   3555969   3560954   3565860   3570654  
  4620.000000   3575277   3579687   3583820   3587644   3591113  
  4610.000000   3594227   3596974   3599395   3601507   3603384  
  4600.000000   3605056   3606598   3608021   3609370   3610618  
  4590.000000   3611768   3612760   3613575   3614148   3614464  
  4580.000000   3614480   3614205   3613628   3612785   3611697  
  4570.000000   3610421   3608994   3607475   3605894   3604291  
  4560.000000   3602668   3601035   3599371   3597670   3595915  
  4550.000000   3594112   3592269   3590412   3588563   3586750  
  4540.000000   3584986   3583274   3581607   3579967   3578341  
  4530.000000   3576709   3575074   3573432   3571806   3570203  
  4520.000000   3568661   3567188   3565826   3564577   3563489  
  4510.000000   3562558   3561837   3561322   3561073   3561088  
  4500.000000   3561438   3562121   3563216   3564725   3566733  
  4490.000000   3569241   3572337   3576011   3580343   3585305  
  4480.000000   3590954   3597239   3604193   3611748   3619925  
  4470.000000   3628648   3637931   3647697   3657953   3668620  
  4460.000000   3679699   3691107   3702840   3714820   3727037  
  4450.000000   3739427   3751985   3764670   3777489   3790427  
  4440.000000   3803490   3816667   3829940   3843278   3856623  
  4430.000000   3869928   3883113   3896141   3908937   3921489  
  4420.000000   3933738   3945685   3957270   3968491   3979276  
  4410.000000   3989607   3999405   4008654   4017289   4025326  
  4400.000000   4032746   4039613   4045956   4051879   4057437  
  4390.000000   4062745   4067860   4072886   4077872   4082903  
  4380.000000   4088009   4093246   4098622   4104161   4109846  
  4370.000000   4115681   4121635   4127693   4133814   4139972  
  4360.000000   4146119   4152231   4158262   4164215   4170038  
  4350.000000   4175754   4181288   4186665   4191798   4196734  
  4340.000000   4201410   4205888   4210086   4213954   4217225  
  4330.000000   4219584   4220533   4219612   4216401   4210748  
  4320.000000   4202766   4192928   4181921   4170585   4159680  
  4310.000000   4149820   4141331   4134313   4128645   4124117  
  4300.000000   4120493   4117580   4115261   4113448   4112124  
  4290.000000   4111231   4110776   4110710   4111070   4111844  
  4280.000000   4113084   4114784   4116939   4119492   4122354  
  4270.000000   4125427   4128588   4131721   4134662   4137220  
  4260.000000   4139131   4140110   4139859   4138170   4134953  
  4250.000000   4130317   4124523   4117995   4111177   4104524  
  4240.000000   4098343   4092844   4088038   4083866   4080157  
  4230.000000   4076755   4073501   4070294   4067072   4063814  
  4220.000000   4060541   4057271   4054068   4050964   4048041  
  4210.000000   4045332   4042915   4040806   4039044   4037613  
  4200.000000   4036506   4035671   4035078   4034659   4034393  
  4190.000000   4034228   4034170   4034190   4034322   4034546  
  4180.000000   4034899   4035357   4035950   4036656   4037515  
  4170.000000   4038526   4039759   4041237   4043046   4045209  
  4160.000000   4047794   4050798   4054258   4058136   4062450  
  4150.000000   4067144   4072230   4077647   4083414   4089482  
  4140.000000   4095886   4102593   4109658   4117058   4124848  
  4130.000000   4132997   4141547   4150455   4159758   4169421  
  4120.000000   4179487   4189940   4200829   4212144   4223930  
  4110.000000   4236167   4248878   4262021   4275585   4289496  
  4100.000000   4303704   4318114   4332667   4347289   4361951  
  4090.000000   4376634   4391341   4406087   4420871   4435701  
  4080.000000   4450548   4465401   4480207   4494948   4509548  
  4070.000000   4523975   4538121   4551942   4565322   4578241  
  4060.000000   4590613   4602462   4613730   4624463   4634601  
  4050.000000   4644193   4653184   4661642   4669523   4676901  
  4040.000000   4683714   4690003   4695671   4700744   4705140  
  4030.000000   4708929   4712087   4714719   4716820   4718464  
  4020.000000   4719599   4720275   4720481   4720288   4719676  
  4010.000000   4718759   4717591   4716169   4714302   4711993  
  4000.000000   4709451  
##END= 
