##TITLE= Sample 010 By ssteindl date Dienstag, November 20 2018
##JCAMP-DX= 4.24
##DATA TYPE= INFRARED SPECTRUM
##ORIGIN= Exported PE Spectrum Data File
##OWNER= Sandra Steindl
##DATE= 18/11/20
##TIME= 10:02:28.00
##SPECTROMETER/DATA SYSTEM= PERKIN-ELMER Frontier FT-IR/NIR IR
##INSTRUMENT PARAMETERS=
  APODIZATION=stark
  DETECTOR=INGAAS
##RESOLUTION= 16.000000
##DELTAX= -2.000000
##XUNITS= 1/CM
##YUNITS= A
##XFACTOR= 1.00
##YFACTOR= 0.00000011920928955078
##FIRSTX= 10000.00
##LASTX= 4000.00
##NPOINTS= 3001
##FIRSTY= 0.190666
##MAXY= 0.570384
##MINY= 0.167266
##XYDATA= (X++(Y..Y))
 10000.000000   1599419   1599051   1598796   1598644   1598256  
  9990.000000   1596980   1594282   1589891   1584024   1577231  
  9980.000000   1570338   1564120   1559154   1555744   1553957  
  9970.000000   1553828   1555323   1558507   1563301   1569539  
  9960.000000   1576788   1584459   1591902   1598469   1603701  
  9950.000000   1607145   1608504   1607387   1603540   1596855  
  9940.000000   1587622   1576687   1565351   1555312   1548119  
  9930.000000   1544962   1546194   1551382   1559315   1568316  
  9920.000000   1576573   1582412   1584655   1582697   1576707  
  9910.000000   1567500   1556542   1545639   1536737   1531468  
  9900.000000   1530850   1534999   1543061   1553474   1564232  
  9890.000000   1573491   1579802   1582528   1581792   1578437  
  9880.000000   1573757   1569124   1565731   1564188   1564489  
  9870.000000   1565899   1567257   1567266   1564925   1559880  
  9860.000000   1552524   1543979   1535704   1529154   1525290  
  9850.000000   1524407   1526072   1529409   1533408   1537286  
  9840.000000   1540626   1543369   1545641   1547545   1549066  
  9830.000000   1549982   1550033   1548919   1546558   1543001  
  9820.000000   1538568   1533698   1528927   1524810   1521788  
  9810.000000   1520210   1520159   1521520   1523942   1526965  
  9800.000000   1530154   1533168   1535821   1537986   1539542  
  9790.000000   1540285   1539998   1538539   1536048   1533021  
  9780.000000   1530293   1528811   1529290   1531907   1536135  
  9770.000000   1540881   1544818   1546859   1546491   1543937  
  9760.000000   1539952   1535542   1531549   1528472   1526460  
  9750.000000   1525438   1525353   1526174   1527874   1530210  
  9740.000000   1532583   1534116   1533849   1531226   1526375  
  9730.000000   1520325   1514736   1511401   1511601   1515571  
  9720.000000   1522408   1530286   1537101   1541056   1541203  
  9710.000000   1537572   1531066   1523075   1515105   1508434  
  9700.000000   1503981   1502212   1503196   1506581   1511651  
  9690.000000   1517422   1522767   1526741   1528734   1528744  
  9680.000000   1527304   1525359   1523959   1523889   1525480  
  9670.000000   1528449   1532058   1535319   1537275   1537282  
  9660.000000   1535115   1531055   1525772   1520208   1515328  
  9650.000000   1511891   1510219   1510095   1510814   1511422  
  9640.000000   1511060   1509310   1506335   1502875   1499912  
  9630.000000   1498343   1498603   1500519   1503440   1506451  
  9620.000000   1508794   1510014   1510082   1509216   1507710  
  9610.000000   1505758   1503446   1500840   1498158   1495812  
  9600.000000   1494377   1494331   1495836   1498564   1501743  
  9590.000000   1504443   1505898   1505856   1504622   1502959  
  9580.000000   1501727   1501584   1502734   1504928   1507612  
  9570.000000   1510163   1512094   1513124   1513153   1512165  
  9560.000000   1510169   1507205   1503386   1498996   1494466  
  9550.000000   1490328   1487043   1484879   1483824   1483649  
  9540.000000   1484001   1484573   1485140   1485596   1485858  
  9530.000000   1485816   1485324   1484259   1482647   1480720  
  9520.000000   1478906   1477666   1477327   1477901   1479088  
  9510.000000   1480354   1481166   1481147   1480226   1478558  
  9500.000000   1476455   1474174   1471876   1469592   1467360  
  9490.000000   1465328   1463806   1463228   1463937   1466087  
  9480.000000   1469469   1473644   1478001   1482023   1485360  
  9470.000000   1487884   1489610   1490532   1490575   1489533  
  9460.000000   1487244   1483662   1479014   1473752   1468446  
  9450.000000   1463643   1459659   1456626   1454446   1453034  
  9440.000000   1452347   1452501   1453629   1455744   1458574  
  9430.000000   1461518   1463789   1464615   1463560   1460643  
  9420.000000   1456433   1451840   1447891   1445369   1444627  
  9410.000000   1445481   1447349   1449447   1451068   1451757  
  9400.000000   1451388   1450126   1448271   1446173   1444136  
  9390.000000   1442433   1441356   1441173   1442124   1444277  
  9380.000000   1447454   1451195   1454762   1457361   1458316  
  9370.000000   1457405   1454952   1451799   1449035   1447606  
  9360.000000   1448002   1450031   1452873   1455300   1456124  
  9350.000000   1454580   1450617   1444889   1438519   1432738  
  9340.000000   1428506   1426323   1426147   1427553   1429928  
  9330.000000   1432716   1435532   1438190   1440599   1442695  
  9320.000000   1444381   1445535   1446069   1445940   1445224  
  9310.000000   1444039   1442575   1441000   1439473   1438114  
  9300.000000   1437002   1436195   1435696   1435469   1435408  
  9290.000000   1435378   1435234   1434887   1434313   1433588  
  9280.000000   1432844   1432242   1431917   1431942   1432320  
  9270.000000   1432993   1433878   1434855   1435768   1436407  
  9260.000000   1436544   1436000   1434714   1432797   1430523  
  9250.000000   1428284   1426491   1425447   1425256   1425791  
  9240.000000   1426748   1427753   1428470   1428678   1428306  
  9230.000000   1427424   1426201   1424854   1423590   1422599  
  9220.000000   1422008   1421903   1422284   1423089   1424178  
  9210.000000   1425387   1426553   1427539   1428243   1428528  
  9200.000000   1428258   1427241   1425368   1422608   1419128  
  9190.000000   1415274   1411552   1408539   1406710   1406362  
  9180.000000   1407504   1409954   1413373   1417408   1421688  
  9170.000000   1425876   1429614   1432544   1434332   1434743  
  9160.000000   1433774   1431666   1428912   1426056   1423551  
  9150.000000   1421589   1420088   1418745   1417187   1415189  
  9140.000000   1412761   1410193   1407861   1406134   1405212  
  9130.000000   1405106   1405668   1406678   1407958   1409359  
  9120.000000   1410776   1412042   1412975   1413368   1413125  
  9110.000000   1412305   1411175   1410141   1409625   1409896  
  9100.000000   1410973   1412641   1414560   1416408   1417965  
  9090.000000   1419169   1420042   1420618   1420844   1420627  
  9080.000000   1419899   1418721   1417306   1416001   1415164  
  9070.000000   1414986   1415390   1416035   1416472   1416295  
  9060.000000   1415306   1413559   1411333   1408988   1406829  
  9050.000000   1405056   1403783   1403128   1403237   1404296  
  9040.000000   1406415   1409526   1413283   1417094   1420280  
  9030.000000   1422270   1422816   1422014   1420272   1418087  
  9020.000000   1415913   1413990   1412362   1410984   1409833  
  9010.000000   1409012   1408672   1408980   1409955   1411446  
  9000.000000   1413102   1414536   1415449   1415721   1415411  
  8990.000000   1414657   1413632   1412404   1411004   1409433  
  8980.000000   1407796   1406291   1405165   1404614   1404667  
  8970.000000   1405191   1405904   1406558   1407046   1407492  
  8960.000000   1408177   1409376   1411174   1413353   1415446  
  8950.000000   1416866   1417177   1416232   1414300   1411910  
  8940.000000   1409694   1408125   1407387   1407372   1407757  
  8930.000000   1408205   1408473   1408537   1408550   1408771  
  8920.000000   1409453   1410726   1412568   1414765   1416985  
  8910.000000   1418809   1419873   1419922   1418938   1417187  
  8900.000000   1415191   1413632   1413121   1414054   1416434  
  8890.000000   1419877   1423685   1427077   1429435   1430459  
  8880.000000   1430209   1429001   1427260   1425356   1423541  
  8870.000000   1421929   1420585   1419602   1419119   1419298  
  8860.000000   1420182   1421698   1423575   1425500   1427158  
  8850.000000   1428387   1429196   1429706   1430063   1430285  
  8840.000000   1430254   1429707   1428400   1426208   1423266  
  8830.000000   1419928   1416704   1414085   1412415   1411823  
  8820.000000   1412210   1413334   1414891   1416621   1418355  
  8810.000000   1420014   1421588   1423099   1424598   1426127  
  8800.000000   1427730   1429402   1431117   1432773   1434257  
  8790.000000   1435431   1436217   1436609   1436689   1436608  
  8780.000000   1436521   1436571   1436822   1437303   1437989  
  8770.000000   1438882   1439979   1441307   1442840   1444507  
  8760.000000   1446145   1447552   1448510   1448861   1448541  
  8750.000000   1447605   1446214   1444585   1442956   1441510  
  8740.000000   1440376   1439584   1439090   1438769   1438474  
  8730.000000   1438053   1437431   1436624   1435785   1435161  
  8720.000000   1435054   1435707   1437258   1439660   1442733  
  8710.000000   1446180   1449695   1453020   1456019   1458661  
  8700.000000   1461016   1463173   1465232   1467242   1469215  
  8690.000000   1471105   1472844   1474334   1475492   1476268  
  8680.000000   1476678   1476831   1476891   1477082   1477576  
  8670.000000   1478491   1479796   1481382   1483057   1484669  
  8660.000000   1486130   1487459   1488724   1489978   1491193  
  8650.000000   1492228   1492877   1492927   1492287   1491024  
  8640.000000   1489393   1487750   1486455   1485775   1485827  
  8630.000000   1486576   1487881   1489568   1491489   1493535  
  8620.000000   1495624   1497672   1499591   1501301   1502763  
  8610.000000   1504008   1505151   1506349   1507752   1509433  
  8600.000000   1511369   1513430   1515426   1517164   1518493  
  8590.000000   1519344   1519712   1519662   1519299   1518772  
  8580.000000   1518251   1517932   1518000   1518580   1519693  
  8570.000000   1521220   1522930   1524534   1525775   1526516  
  8560.000000   1526776   1526746   1526712   1526975   1527751  
  8550.000000   1529118   1531013   1533246   1535576   1537750  
  8540.000000   1539586   1540952   1541797   1542125   1542016  
  8530.000000   1541587   1540988   1540390   1539975   1539925  
  8520.000000   1540371   1541426   1543135   1545496   1548383  
  8510.000000   1551588   1554801   1557670   1559856   1561105  
  8500.000000   1561343   1560663   1559344   1557731   1556194  
  8490.000000   1554998   1554276   1554025   1554153   1554577  
  8480.000000   1555242   1556186   1557461   1559147   1561254  
  8470.000000   1563727   1566419   1569138   1571706   1573958  
  8460.000000   1575793   1577120   1577896   1578083   1577687  
  8450.000000   1576761   1575442   1573959   1572601   1571669  
  8440.000000   1571382   1571852   1573013   1574680   1576552  
  8430.000000   1578340   1579815   1580874   1581532   1581893  
  8420.000000   1582100   1582266   1582450   1582632   1582760  
  8410.000000   1582777   1582676   1582509   1582374   1582398  
  8400.000000   1582671   1583238   1584058   1585030   1586014  
  8390.000000   1586874   1587502   1587832   1587847   1587582  
  8380.000000   1587116   1586567   1586075   1585786   1585822  
  8370.000000   1586248   1587038   1588073   1589164   1590105  
  8360.000000   1590727   1590946   1590788   1590369   1589851  
  8350.000000   1589383   1589062   1588916   1588929   1589068  
  8340.000000   1589316   1589673   1590149   1590736   1591382  
  8330.000000   1591999   1592471   1592717   1592716   1592533  
  8320.000000   1592292   1592139   1592192   1592501   1593034  
  8310.000000   1593681   1594299   1594744   1594904   1594709  
  8300.000000   1594133   1593205   1592011   1590704   1589487  
  8290.000000   1588586   1588195   1588431   1589275   1590567  
  8280.000000   1592018   1593294   1594104   1594281   1593824  
  8270.000000   1592890   1591744   1590682   1589947   1589677  
  8260.000000   1589865   1590407   1591117   1591811   1592319  
  8250.000000   1592546   1592452   1592060   1591418   1590574  
  8240.000000   1589555   1588361   1586984   1585415   1583684  
  8230.000000   1581862   1580066   1578440   1577109   1576154  
  8220.000000   1575575   1575310   1575245   1575269   1575302  
  8210.000000   1575323   1575358   1575458   1575653   1575936  
  8200.000000   1576247   1576495   1576594   1576483   1576157  
  8190.000000   1575643   1574992   1574231   1573353   1572322  
  8180.000000   1571088   1569643   1568025   1566356   1564797  
  8170.000000   1563533   1562694   1562324   1562332   1562522  
  8160.000000   1562632   1562409   1561690   1560439   1558770  
  8150.000000   1556900   1555087   1553551   1552402   1551639  
  8140.000000   1551163   1550860   1550638   1550475   1550389  
  8130.000000   1550405   1550482   1550498   1550251   1549523  
  8120.000000   1548169   1546183   1543738   1541127   1538684  
  8110.000000   1536667   1535172   1534134   1533356   1532625  
  8100.000000   1531780   1530787   1529712   1528683   1527804  
  8090.000000   1527104   1526530   1525976   1525360   1524644  
  8080.000000   1523868   1523090   1522362   1521670   1520945  
  8070.000000   1520092   1519052   1517853   1516611   1515505  
  8060.000000   1514699   1514282   1514217   1514362   1514513  
  8050.000000   1514484   1514163   1513530   1512642   1511574  
  8040.000000   1510384   1509080   1507652   1506086   1504420  
  8030.000000   1502742   1501180   1499861   1498859   1498178  
  8020.000000   1497754   1497490   1497304   1497154   1497057  
  8010.000000   1497047   1497154   1497357   1497585   1497726  
  8000.000000   1497681   1497394   1496894   1496276   1495682  
  7990.000000   1495242   1495034   1495045   1495178   1495280  
  7980.000000   1495190   1494791   1494048   1493018   1491839  
  7970.000000   1490681   1489705   1489015   1488635   1488517  
  7960.000000   1488562   1488674   1488786   1488892   1489035  
  7950.000000   1489285   1489693   1490258   1490913   1491527  
  7940.000000   1491958   1492076   1491823   1491212   1490330  
  7930.000000   1489300   1488251   1487286   1486466   1485815  
  7920.000000   1485329   1484991   1484778   1484660   1484598  
  7910.000000   1484544   1484442   1484248   1483938   1483520  
  7900.000000   1483043   1482571   1482186   1481943   1481871  
  7890.000000   1481943   1482102   1482255   1482308   1482195  
  7880.000000   1481898   1481467   1481010   1480685   1480648  
  7870.000000   1481023   1481842   1483037   1484428   1485766  
  7860.000000   1486790   1487296   1487187   1486500   1485381  
  7850.000000   1484048   1482716   1481553   1480640   1479975  
  7840.000000   1479496   1479126   1478793   1478459   1478103  
  7830.000000   1477729   1477331   1476908   1476453   1475978  
  7820.000000   1475509   1475084   1474741   1474491   1474309  
  7810.000000   1474132   1473880   1473484   1472916   1472201  
  7800.000000   1471411   1470636   1469947   1469367   1468866  
  7790.000000   1468374   1467814   1467140   1466356   1465519  
  7780.000000   1464711   1464013   1463462   1463042   1462688  
  7770.000000   1462313   1461840   1461231   1460501   1459713  
  7760.000000   1458946   1458276   1457751   1457369   1457096  
  7750.000000   1456863   1456596   1456222   1455695   1454987  
  7740.000000   1454109   1453103   1452043   1451032   1450185  
  7730.000000   1449616   1449406   1449591   1450133   1450933  
  7720.000000   1451842   1452693   1453343   1453694   1453718  
  7710.000000   1453438   1452922   1452236   1451442   1450571  
  7700.000000   1449644   1448682   1447725   1446842   1446114  
  7690.000000   1445621   1445396   1445425   1445622   1445874  
  7680.000000   1446063   1446117   1446028   1445843   1445648  
  7670.000000   1445509   1445449   1445425   1445348   1445113  
  7660.000000   1444650   1443949   1443074   1442141   1441277  
  7650.000000   1440586   1440114   1439854   1439754   1439749  
  7640.000000   1439780   1439811   1439827   1439825   1439812  
  7630.000000   1439787   1439756   1439721   1439688   1439652  
  7620.000000   1439605   1439523   1439383   1439170   1438902  
  7610.000000   1438631   1438443   1438422   1438623   1439030  
  7600.000000   1439563   1440084   1440454   1440573   1440428  
  7590.000000   1440087   1439697   1439420   1439391   1439676  
  7580.000000   1440263   1441081   1442036   1443045   1444053  
  7570.000000   1445031   1445965   1446830   1447593   1448207  
  7560.000000   1448643   1448889   1448983   1448976   1448951  
  7550.000000   1448969   1449075   1449287   1449604   1450030  
  7540.000000   1450574   1451266   1452138   1453218   1454511  
  7530.000000   1455990   1457597   1459246   1460848   1462305  
  7520.000000   1463546   1464509   1465181   1465577   1465782  
  7510.000000   1465909   1466115   1466545   1467319   1468487  
  7500.000000   1470020   1471813   1473717   1475589   1477332  
  7490.000000   1478928   1480434   1481957   1483615   1485481  
  7480.000000   1487564   1489787   1492027   1494137   1496008  
  7470.000000   1497579   1498873   1499964   1500960   1501969  
  7460.000000   1503073   1504322   1505735   1507311   1509040  
  7450.000000   1510902   1512875   1514916   1516971   1518968  
  7440.000000   1520850   1522579   1524169   1525668   1527162  
  7430.000000   1528744   1530495   1532457   1534636   1537004  
  7420.000000   1539513   1542110   1544738   1547335   1549832  
  7410.000000   1552153   1554233   1556030   1557558   1558891  
  7400.000000   1560154   1561491   1563025   1564814   1566838  
  7390.000000   1569010   1571201   1573304   1575253   1577059  
  7380.000000   1578779   1580498   1582280   1584142   1586054  
  7370.000000   1587948   1589758   1591442   1593005   1594491  
  7360.000000   1595970   1597514   1599174   1600981   1602935  
  7350.000000   1605020   1607205   1609451   1611709   1613920  
  7340.000000   1616023   1617962   1619700   1621222   1622548  
  7330.000000   1623723   1624808   1625872   1626974   1628162  
  7320.000000   1629463   1630888   1632426   1634059   1635744  
  7310.000000   1637437   1639080   1640630   1642054   1643345  
  7300.000000   1644519   1645613   1646664   1647705   1648750  
  7290.000000   1649793   1650806   1651757   1652613   1653360  
  7280.000000   1654002   1654575   1655129   1655733   1656444  
  7270.000000   1657308   1658336   1659507   1660764   1662028  
  7260.000000   1663223   1664282   1665177   1665904   1666500  
  7250.000000   1667014   1667511   1668041   1668656   1669382  
  7240.000000   1670253   1671280   1672484   1673863   1675417  
  7230.000000   1677114   1678923   1680784   1682657   1684497  
  7220.000000   1686306   1688097   1689939   1691900   1694079  
  7210.000000   1696534   1699309   1702374   1705670   1709081  
  7200.000000   1712504   1715837   1719051   1722150   1725207  
  7190.000000   1728300   1731517   1734897   1738450   1742127  
  7180.000000   1745879   1749644   1753406   1757161   1760948  
  7170.000000   1764790   1768719   1772723   1776794   1780894  
  7160.000000   1785023   1789173   1793381   1797676   1802108  
  7150.000000   1806704   1811498   1816500   1821728   1827178  
  7140.000000   1832853   1838712   1844717   1850779   1856828  
  7130.000000   1862774   1868580   1874216   1879727   1885163  
  7120.000000   1890625   1896193   1901961   1907978   1914283  
  7110.000000   1920867   1927711   1934757   1941949   1949215  
  7100.000000   1956507   1963779   1971022   1978234   1985435  
  7090.000000   1992635   1999849   2007070   2014302   2021540  
  7080.000000   2028790   2036054   2043331   2050606   2057856  
  7070.000000   2065047   2072164   2079207   2086205   2093201  
  7060.000000   2100235   2107326   2114456   2121584   2128661  
  7050.000000   2135661   2142591   2149505   2156472   2163555  
  7040.000000   2170772   2178094   2185437   2192701   2199790  
  7030.000000   2206649   2213264   2219671   2225918   2232066  
  7020.000000   2238153   2244213   2250247   2256261   2262233  
  7010.000000   2268149   2273969   2279671   2285222   2290622  
  7000.000000   2295874   2301012   2306057   2311039   2315950  
  6990.000000   2320795   2325551   2330231   2334841   2339420  
  6980.000000   2343973   2348501   2352947   2357246   2361311  
  6970.000000   2365101   2368605   2371874   2374971   2377971  
  6960.000000   2380904   2383776   2386549   2389206   2391736  
  6950.000000   2394184   2396600   2399051   2401554   2404100  
  6940.000000   2406629   2409085   2411415   2413612   2415690  
  6930.000000   2417688   2419620   2421489   2423264   2424922  
  6920.000000   2426452   2427881   2429255   2430629   2432024  
  6910.000000   2433433   2434807   2436098   2437268   2438336  
  6900.000000   2439348   2440381   2441487   2442682   2443930  
  6890.000000   2445167   2446326   2447373   2448318   2449207  
  6880.000000   2450097   2451032   2452019   2453041   2454061  
  6870.000000   2455056   2456022   2456980   2457955   2458959  
  6860.000000   2459980   2460979   2461900   2462698   2463352  
  6850.000000   2463876   2464315   2464729   2465176   2465707  
  6840.000000   2466344   2467093   2467937   2468846   2469776  
  6830.000000   2470685   2471530   2472288   2472946   2473513  
  6820.000000   2474006   2474443   2474836   2475185   2475480  
  6810.000000   2475717   2475891   2476015   2476100   2476166  
  6800.000000   2476215   2476249   2476256   2476232   2476173  
  6790.000000   2476091   2475991   2475887   2475771   2475639  
  6780.000000   2475476   2475283   2475066   2474844   2474625  
  6770.000000   2474406   2474153   2473821   2473360   2472745  
  6760.000000   2471987   2471138   2470267   2469444   2468706  
  6750.000000   2468053   2467445   2466834   2466170   2465439  
  6740.000000   2464639   2463799   2462938   2462071   2461194  
  6730.000000   2460299   2459371   2458403   2457389   2456325  
  6720.000000   2455198   2454001   2452726   2451389   2450025  
  6710.000000   2448688   2447426   2446266   2445194   2444158  
  6700.000000   2443086   2441918   2440627   2439238   2437809  
  6690.000000   2436421   2435131   2433970   2432921   2431946  
  6680.000000   2430996   2430035   2429040   2428003   2426911  
  6670.000000   2425749   2424488   2423110   2421605   2419995  
  6660.000000   2418311   2416598   2414884   2413181   2411471  
  6650.000000   2409735   2407952   2406121   2404252   2402369  
  6640.000000   2400483   2398595   2396688   2394747   2392763  
  6630.000000   2390752   2388745   2386783   2384898   2383104  
  6620.000000   2381390   2379726   2378075   2376403   2374683  
  6610.000000   2372893   2371018   2369043   2366964   2364798  
  6600.000000   2362582   2360378   2358253   2356265   2354441  
  6590.000000   2352767   2351194   2349653   2348073   2346401  
  6580.000000   2344608   2342688   2340655   2338532   2336356  
  6570.000000   2334171   2332037   2330014   2328157   2326496  
  6560.000000   2325028   2323716   2322503   2321330   2320153  
  6550.000000   2318951   2317726   2316483   2315222   2313925  
  6540.000000   2312571   2311144   2309660   2308158   2306705  
  6530.000000   2305360   2304163   2303105   2302141   2301201  
  6520.000000   2300219   2299157   2298011   2296809   2295594  
  6510.000000   2294405   2293264   2292175   2291132   2290119  
  6500.000000   2289130   2288157   2287194   2286231   2285264  
  6490.000000   2284296   2283341   2282430   2281597   2280865  
  6480.000000   2280234   2279670   2279119   2278519   2277822  
  6470.000000   2277016   2276118   2275172   2274221   2273294  
  6460.000000   2272392   2271499   2270583   2269625   2268618  
  6450.000000   2267574   2266513   2265459   2264421   2263398  
  6440.000000   2262381   2261354   2260307   2259228   2258118  
  6430.000000   2256977   2255818   2254660   2253532   2252467  
  6420.000000   2251495   2250636   2249888   2249232   2248634  
  6410.000000   2248058   2247477   2246873   2246243   2245580  
  6400.000000   2244880   2244128   2243312   2242427   2241488  
  6390.000000   2240529   2239598   2238744   2238000   2237375  
  6380.000000   2236854   2236404   2235983   2235553   2235081  
  6370.000000   2234542   2233914   2233184   2232349   2231425  
  6360.000000   2230447   2229466   2228533   2227685   2226930  
  6350.000000   2226253   2225616   2224986   2224342   2223689  
  6340.000000   2223046   2222434   2221856   2221291   2220697  
  6330.000000   2220033   2219268   2218403   2217463   2216491  
  6320.000000   2215519   2214563   2213605   2212619   2211571  
  6310.000000   2210449   2209255   2208016   2206751   2205476  
  6300.000000   2204176   2202835   2201418   2199915   2198320  
  6290.000000   2196654   2194933   2193177   2191384   2189549  
  6280.000000   2187653   2185689   2183655   2181565   2179431  
  6270.000000   2177272   2175090   2172891   2170670   2168436  
  6260.000000   2166193   2163960   2161746   2159563   2157399  
  6250.000000   2155243   2153070   2150860   2148591   2146252  
  6240.000000   2143830   2141322   2138725   2136050   2133316  
  6230.000000   2130558   2127818   2125138   2122550   2120065  
  6220.000000   2117674   2115347   2113045   2110731   2108375  
  6210.000000   2105969   2103520   2101050   2098592   2096174  
  6200.000000   2093821   2091540   2089323   2087141   2084959  
  6190.000000   2082740   2080461   2078123   2075747   2073373  
  6180.000000   2071047   2068804   2066662   2064617   2062652  
  6170.000000   2060738   2058853   2056980   2055105   2053217  
  6160.000000   2051303   2049346   2047341   2045292   2043224  
  6150.000000   2041177   2039198   2037319   2035554   2033882  
  6140.000000   2032265   2030650   2029001   2027299   2025555  
  6130.000000   2023799   2022070   2020395   2018794   2017266  
  6120.000000   2015805   2014395   2013032   2011704   2010413  
  6110.000000   2009149   2007911   2006690   2005489   2004311  
  6100.000000   2003172   2002084   2001066   2000120   1999250  
  6090.000000   1998445   1997701   1997011   1996379   1995807  
  6080.000000   1995305   1994866   1994488   1994145   1993823  
  6070.000000   1993496   1993159   1992809   1992468   1992155  
  6060.000000   1991908   1991749   1991704   1991776   1991965  
  6050.000000   1992248   1992608   1993017   1993465   1993940  
  6040.000000   1994455   1995013   1995637   1996333   1997117  
  6030.000000   1997986   1998949   2000006   2001166   2002426  
  6020.000000   2003786   2005228   2006730   2008253   2009765  
  6010.000000   2011231   2012634   2013961   2015221   2016422  
  6000.000000   2017585   2018725   2019869   2021035   2022246  
  5990.000000   2023517   2024855   2026251   2027689   2029142  
  5980.000000   2030591   2032022   2033442   2034865   2036317  
  5970.000000   2037814   2039369   2040974   2042620   2044289  
  5960.000000   2045976   2047678   2049408   2051170   2052971  
  5950.000000   2054800   2056645   2058482   2060298   2062082  
  5940.000000   2063843   2065595   2067362   2069165   2071024  
  5930.000000   2072951   2074952   2077024   2079160   2081345  
  5920.000000   2083561   2085786   2087999   2090179   2092313  
  5910.000000   2094389   2096404   2098356   2100248   2102089  
  5900.000000   2103898   2105701   2107526   2109402   2111349  
  5890.000000   2113373   2115457   2117578   2119700   2121792  
  5880.000000   2123834   2125814   2127736   2129603   2131428  
  5870.000000   2133215   2134978   2136725   2138477   2140246  
  5860.000000   2142053   2143905   2145809   2147758   2149754  
  5850.000000   2151793   2153888   2156047   2158287   2160613  
  5840.000000   2163027   2165521   2168085   2170710   2173391  
  5830.000000   2176126   2178904   2181710   2184514   2187282  
  5820.000000   2189976   2192578   2195073   2197470   2199768  
  5810.000000   2201972   2204054   2205990   2207731   2209262  
  5800.000000   2210565   2211679   2212635   2213500   2214302  
  5790.000000   2215074   2215792   2216440   2216956   2217302  
  5780.000000   2217418   2217274   2216830   2216084   2215041  
  5770.000000   2213748   2212271   2210707   2209148   2207685  
  5760.000000   2206369   2205226   2204246   2203410   2202692  
  5750.000000   2202082   2201576   2201176   2200882   2200678  
  5740.000000   2200545   2200446   2200362   2200270   2200177  
  5730.000000   2200083   2200011   2199969   2199973   2200027  
  5720.000000   2200141   2200314   2200552   2200846   2201193  
  5710.000000   2201575   2201988   2202427   2202905   2203439  
  5700.000000   2204050   2204749   2205530   2206373   2207246  
  5690.000000   2208119   2208973   2209807   2210628   2211453  
  5680.000000   2212284   2213114   2213917   2214662   2215309  
  5670.000000   2215834   2216213   2216439   2216506   2216418  
  5660.000000   2216184   2215828   2215379   2214886   2214387  
  5650.000000   2213923   2213508   2213146   2212817   2212504  
  5640.000000   2212189   2211868   2211541   2211215   2210893  
  5630.000000   2210577   2210264   2209955   2209657   2209384  
  5620.000000   2209147   2208946   2208768   2208582   2208354  
  5610.000000   2208057   2207679   2207233   2206748   2206258  
  5600.000000   2205783   2205332   2204890   2204440   2203960  
  5590.000000   2203443   2202887   2202299   2201680   2201030  
  5580.000000   2200335   2199588   2198781   2197921   2197014  
  5570.000000   2196072   2195097   2194085   2193029   2191926  
  5560.000000   2190783   2189622   2188469   2187350   2186274  
  5550.000000   2185239   2184231   2183235   2182242   2181261  
  5540.000000   2180306   2179393   2178524   2177690   2176867  
  5530.000000   2176030   2175166   2174274   2173368   2172464  
  5520.000000   2171571   2170690   2169807   2168911   2167994  
  5510.000000   2167062   2166128   2165203   2164288   2163370  
  5500.000000   2162423   2161427   2160371   2159270   2158152  
  5490.000000   2157052   2155984   2154947   2153906   2152822  
  5480.000000   2151649   2150366   2148964   2147461   2145875  
  5470.000000   2144231   2142535   2140795   2139012   2137196  
  5460.000000   2135354   2133502   2131642   2129777   2127895  
  5450.000000   2125989   2124053   2122095   2120132   2118181  
  5440.000000   2116258   2114368   2112514   2110696   2108923  
  5430.000000   2107201   2105545   2103950   2102410   2100901  
  5420.000000   2099415   2097947   2096533   2095213   2094056  
  5410.000000   2093090   2092334   2091750   2091299   2090925  
  5400.000000   2090615   2090364   2090216   2090201   2090361  
  5390.000000   2090685   2091169   2091767   2092473   2093268  
  5380.000000   2094185   2095235   2096456   2097832   2099368  
  5370.000000   2101015   2102775   2104614   2106573   2108650  
  5360.000000   2110912   2113363   2116067   2119019   2122286  
  5350.000000   2125863   2129818   2134135   2138871   2143982  
  5340.000000   2149512   2155413   2161751   2168499   2175741  
  5330.000000   2183441   2191661   2200335   2209509   2219120  
  5320.000000   2229252   2239886   2251152   2263040   2275673  
  5310.000000   2289001   2303101   2317890   2333441   2349692  
  5300.000000   2366751   2384592   2403348   2423003   2443669  
  5290.000000   2465289   2487904   2511382   2535676   2560609  
  5280.000000   2586130   2612133   2638676   2665783   2693587  
  5270.000000   2722122   2751405   2781296   2811588   2842015  
  5260.000000   2872338   2902416   2932190   2961713   2991006  
  5250.000000   3020100   3048869   3077193   3104814   3131616  
  5240.000000   3157435   3182342   3206336   3229609   3252175  
  5230.000000   3274165   3295473   3316102   3335851   3354694  
  5220.000000   3372471   3389257   3405009   3419910   3433980  
  5210.000000   3447405   3460146   3472281   3483655   3494265  
  5200.000000   3503942   3512738   3520589   3527647   3533915  
  5190.000000   3539547   3544504   3548869   3552549   3555600  
  5180.000000   3557949   3559687   3560778   3561316   3561252  
  5170.000000   3560645   3559429   3557662   3555315   3552490  
  5160.000000   3549197   3545547   3541537   3537237   3532615  
  5150.000000   3527723   3522536   3517116   3511454   3505602  
  5140.000000   3499533   3493271   3486780   3480087   3473186  
  5130.000000   3466131   3458943   3451675   3444332   3436938  
  5120.000000   3429477   3421963   3414394   3406800   3399193  
  5110.000000   3391599   3384016   3376446   3368871   3361292  
  5100.000000   3353709   3346146   3338620   3331155   3323749  
  5090.000000   3316397   3309070   3301745   3294399   3287027  
  5080.000000   3279625   3272203   3264759   3257295   3249796  
  5070.000000   3242260   3234678   3227059   3219407   3211735  
  5060.000000   3204042   3196331   3188586   3180804   3172976  
  5050.000000   3165108   3157208   3149294   3141375   3133461  
  5040.000000   3125553   3117651   3109757   3101877   3094025  
  5030.000000   3086218   3078478   3070819   3063258   3055794  
  5020.000000   3048436   3041171   3034006   3026924   3019933  
  5010.000000   3013025   3006222   2999531   2992999   2986648  
  5000.000000   2980533   2974668   2969090   2963776   2958732  
  4990.000000   2953910   2949309   2944890   2940681   2936670  
  4980.000000   2932909   2929398   2926191   2923274   2920693  
  4970.000000   2918423   2916506   2914913   2913684   2912782  
  4960.000000   2912238   2912006   2912112   2912514   2913247  
  4950.000000   2914281   2915661   2917357   2919412   2921790  
  4940.000000   2924524   2927576   2930980   2934697   2938754  
  4930.000000   2943105   2947762   2952667   2957823   2963179  
  4920.000000   2968752   2974512   2980497   2986697   2993157  
  4910.000000   2999870   3006868   3014133   3021675   3029456  
  4900.000000   3037463   3045643   3053970   3062398   3070911  
  4890.000000   3079489   3088132   3096830   3105578   3114353  
  4880.000000   3123123   3131849   3140491   3149020   3157408  
  4870.000000   3165648   3173725   3181642   3189386   3196963  
  4860.000000   3204361   3211596   3218665   3225590   3232364  
  4850.000000   3239005   3245498   3251855   3258062   3264140  
  4840.000000   3270083   3275922   3281649   3287283   3292803  
  4830.000000   3298215   3303493   3308646   3313655   3318533  
  4820.000000   3323261   3327845   3332256   3336491   3340523  
  4810.000000   3344362   3347998   3351459   3354752   3357910  
  4800.000000   3360936   3363859   3366681   3369431   3372110  
  4790.000000   3374749   3377343   3379906   3382411   3384851  
  4780.000000   3387187   3389406   3391474   3393397   3395157  
  4770.000000   3396774   3398243   3399585   3400792   3401887  
  4760.000000   3402854   3403710   3404434   3405032   3405474  
  4750.000000   3405763   3405867   3405793   3405519   3405062  
  4740.000000   3404411   3403591   3402595   3401445   3400133  
  4730.000000   3398680   3397075   3395339   3393465   3391474  
  4720.000000   3389362   3387149   3384836   3382443   3379973  
  4710.000000   3377447   3374870   3372266   3369644   3367023  
  4700.000000   3364413   3361830   3359276   3356759   3354273  
  4690.000000   3351815   3349374   3346938   3344494   3342031  
  4680.000000   3339535   3336992   3334394   3331728   3328995  
  4670.000000   3326196   3323353   3320489   3317645   3314855  
  4660.000000   3312162   3309589   3307162   3304885   3302768  
  4650.000000   3300803   3298998   3297347   3295854   3294509  
  4640.000000   3293307   3292225   3291251   3290359   3289541  
  4630.000000   3288778   3288073   3287413   3286802   3286225  
  4620.000000   3285681   3285151   3284630   3284102   3283562  
  4610.000000   3283002   3282427   3281841   3281263   3280714  
  4600.000000   3280223   3279811   3279493   3279266   3279110  
  4590.000000   3278994   3278884   3278750   3278574   3278353  
  4580.000000   3278096   3277815   3277519   3277211   3276889  
  4570.000000   3276547   3276181   3275792   3275383   3274959  
  4560.000000   3274519   3274058   3273563   3273022   3272428  
  4550.000000   3271782   3271093   3270374   3269645   3268913  
  4540.000000   3268195   3267492   3266821   3266185   3265613  
  4530.000000   3265111   3264716   3264426   3264277   3264263  
  4520.000000   3264430   3264776   3265361   3266187   3267322  
  4510.000000   3268756   3270558   3272712   3275292   3278291  
  4500.000000   3281801   3285824   3290459   3295702   3301640  
  4490.000000   3308254   3315607   3323658   3332438   3341874  
  4480.000000   3351959   3362586   3373719   3385240   3397114  
  4470.000000   3409245   3421615   3434156   3446860   3459674  
  4460.000000   3472591   3485564   3498582   3511607   3524619  
  4450.000000   3537587   3550484   3563288   3575976   3588550  
  4440.000000   3601001   3613358   3625618   3637815   3649929  
  4430.000000   3661983   3673926   3685772   3697448   3708963  
  4420.000000   3720223   3731225   3741848   3752067   3761739  
  4410.000000   3770822   3779170   3786750   3793435   3799224  
  4400.000000   3804031   3807896   3810792   3812805   3813964  
  4390.000000   3814394   3814159   3813399   3812196   3810681  
  4380.000000   3808937   3807089   3805229   3803484   3801967  
  4370.000000   3800800   3800096   3799946   3800423   3801551  
  4360.000000   3803343   3805754   3808743   3812224   3816132  
  4350.000000   3820373   3824888   3829614   3834526   3839607  
  4340.000000   3844865   3850298   3855885   3861554   3867178  
  4330.000000   3872564   3877485   3881714   3885068   3887468  
  4320.000000   3888943   3889660   3889855   3889832   3889841  
  4310.000000   3890109   3890723   3891725   3893037   3894583  
  4300.000000   3896231   3897901   3899489   3900946   3902206  
  4290.000000   3903237   3904002   3904494   3904718   3904714  
  4280.000000   3904528   3904230   3903869   3903507   3903161  
  4270.000000   3902860   3902582   3902321   3902019   3901628  
  4260.000000   3901057   3900228   3899049   3897464   3895445  
  4250.000000   3893021   3890263   3887290   3884233   3881230  
  4240.000000   3878385   3875780   3873440   3871369   3869524  
  4230.000000   3867856   3866296   3864778   3863231   3861595  
  4220.000000   3859823   3857882   3855775   3853519   3851168  
  4210.000000   3848781   3846431   3844169   3842043   3840061  
  4200.000000   3838226   3836511   3834899   3833353   3831869  
  4190.000000   3830418   3829023   3827668   3826398   3825209  
  4180.000000   3824166   3823278   3822627   3822234   3822199  
  4170.000000   3822560   3823429   3824847   3826921   3829660  
  4160.000000   3833127   3837264   3842073   3847438   3853333  
  4150.000000   3859639   3866355   3873403   3880836   3888621  
  4140.000000   3896849   3905512   3914706   3924414   3934706  
  4130.000000   3945538   3956940   3968842   3981253   3994101  
  4120.000000   4007402   4021102   4035230   4049748   4064685  
  4110.000000   4079997   4095702   4111749   4128138   4144814  
  4100.000000   4161767   4178938   4196314   4213850   4231537  
  4090.000000   4249356   4267307   4285387   4303595   4321932  
  4080.000000   4340389   4358969   4377654   4396444   4415297  
  4070.000000   4434193   4453051   4471836   4490453   4508885  
  4060.000000   4527055   4544981   4562590   4579900   4596807  
  4050.000000   4613315   4629301   4644786   4659658   4673962  
  4040.000000   4687582   4700546   4712705   4724077   4734516  
  4030.000000   4744074   4752643   4760303   4766955   4772648  
  4020.000000   4777232   4780752   4783136   4784479   4784728  
  4010.000000   4784075   4782625   4780470   4777423   4773619  
  4000.000000   4769435  
##END= 
