##TITLE= Sample 053 By ssteindl date Dienstag, November 20 2018
##JCAMP-DX= 4.24
##DATA TYPE= INFRARED SPECTRUM
##ORIGIN= Exported PE Spectrum Data File
##OWNER= Sandra Steindl
##DATE= 18/11/20
##TIME= 13:01:22.00
##SPECTROMETER/DATA SYSTEM= PERKIN-ELMER Frontier FT-IR/NIR IR
##INSTRUMENT PARAMETERS=
  APODIZATION=stark
  DETECTOR=INGAAS
##RESOLUTION= 16.000000
##DELTAX= -2.000000
##XUNITS= 1/CM
##YUNITS= A
##XFACTOR= 1.00
##YFACTOR= 0.00000011920928955078
##FIRSTX= 10000.00
##LASTX= 4000.00
##NPOINTS= 3001
##FIRSTY= 0.202120
##MAXY= 0.609172
##MINY= 0.176839
##XYDATA= (X++(Y..Y))
 10000.000000   1695503   1688817   1684123   1683956   1688415  
  9990.000000   1695691   1704118   1712580   1719892   1724912  
  9980.000000   1727241   1727137   1725200   1722118   1718819  
  9970.000000   1716117   1714555   1714175   1714555   1714884  
  9960.000000   1714227   1711962   1707956   1702836   1697688  
  9950.000000   1693845   1692324   1693527   1697047   1701795  
  9940.000000   1706334   1709284   1709714   1707339   1702573  
  9930.000000   1696352   1689894   1684388   1680741   1679377  
  9920.000000   1680179   1682510   1685420   1687880   1689085  
  9910.000000   1688659   1686722   1683819   1680680   1677972  
  9900.000000   1676118   1675200   1675103   1675619   1676637  
  9890.000000   1678145   1680133   1682491   1684872   1686818  
  9880.000000   1687864   1687806   1686793   1685313   1684018  
  9870.000000   1683403   1683608   1684297   1684827   1684512  
  9860.000000   1682908   1679998   1676148   1671958   1668036  
  9850.000000   1664827   1662596   1661441   1661386   1662359  
  9840.000000   1664133   1666275   1668145   1669091   1668683  
  9830.000000   1667015   1664793   1663176   1663381   1666099  
  9820.000000   1671171   1677440   1683192   1686699   1686902  
  9810.000000   1683770   1678233   1671851   1666176   1662367  
  9800.000000   1660904   1661717   1664388   1668398   1673215  
  9790.000000   1678234   1682645   1685467   1685706   1682762  
  9780.000000   1676779   1668803   1660602   1654108   1650766  
  9770.000000   1651006   1654110   1658544   1662543   1664785  
  9760.000000   1664762   1662851   1659962   1657078   1654804  
  9750.000000   1653223   1652020   1650790   1649349   1647845  
  9740.000000   1646682   1646270   1646777   1648032   1649558  
  9730.000000   1650777   1651209   1650586   1648910   1646315  
  9720.000000   1643042   1639313   1635397   1631611   1628353  
  9710.000000   1626042   1625015   1625396   1627041   1629559  
  9700.000000   1632436   1635203   1637531   1639303   1640530  
  9690.000000   1641307   1641722   1641879   1641910   1641999  
  9680.000000   1642366   1643168   1644417   1645887   1647123  
  9670.000000   1647549   1646612   1644006   1639757   1634290  
  9660.000000   1628318   1622692   1618202   1615414   1614517  
  9650.000000   1615311   1617175   1619256   1620643   1620664  
  9640.000000   1619113   1616342   1613181   1610634   1609499  
  9630.000000   1610015   1611735   1613665   1614698   1614065  
  9620.000000   1611694   1608231   1604748   1602281   1601348  
  9610.000000   1601738   1602621   1602909   1601796   1599054  
  9600.000000   1595162   1591014   1587527   1585234   1584124  
  9590.000000   1583768   1583650   1583481   1583352   1583621  
  9580.000000   1584629   1586452   1588760   1590984   1592564  
  9570.000000   1593259   1593262   1593094   1593329   1594239  
  9560.000000   1595626   1596825   1597030   1595614   1592491  
  9550.000000   1588116   1583343   1579026   1575701   1573451  
  9540.000000   1571970   1570881   1569956   1569331   1569412  
  9530.000000   1570720   1573560   1577868   1583084   1588344  
  9520.000000   1592700   1595438   1596291   1595441   1593445  
  9510.000000   1590950   1588502   1586367   1584514   1582685  
  9500.000000   1580527   1577768   1574323   1570385   1566359  
  9490.000000   1562773   1560068   1558479   1557936   1558114  
  9480.000000   1558542   1558784   1558572   1557892   1556962  
  9470.000000   1556136   1555794   1556190   1557422   1559346  
  9460.000000   1561659   1563883   1565497   1565990   1565011  
  9450.000000   1562473   1558658   1554229   1550110   1547275  
  9440.000000   1546396   1547619   1550436   1553853   1556737  
  9430.000000   1558207   1557956   1556283   1553930   1551709  
  9420.000000   1550143   1549269   1548696   1547900   1546619  
  9410.000000   1545049   1543843   1543779   1545388   1548628  
  9400.000000   1552810   1556797   1559399   1559804   1557912  
  9390.000000   1554348   1550260   1546874   1545110   1545364  
  9380.000000   1547479   1550939   1555006   1558979   1562240  
  9370.000000   1564412   1565303   1564989   1563716   1561901  
  9360.000000   1560006   1558404   1557259   1556387   1555333  
  9350.000000   1553493   1550407   1545957   1540463   1534615  
  9340.000000   1529248   1525103   1522596   1521751   1522220  
  9330.000000   1523500   1525099   1526700   1528199   1529619  
  9320.000000   1531084   1532671   1534431   1536245   1537902  
  9310.000000   1539045   1539345   1538536   1536583   1533737  
  9300.000000   1530576   1527953   1526747   1527619   1530682  
  9290.000000   1535470   1540984   1546048   1549594   1551033  
  9280.000000   1550344   1548096   1545150   1542353   1540234  
  9270.000000   1538925   1538237   1537812   1537263   1536277  
  9260.000000   1534615   1532168   1528876   1524807   1520152  
  9250.000000   1515301   1510819   1507274   1505068   1504187  
  9240.000000   1504219   1504429   1504047   1502532   1499801  
  9230.000000   1496316   1492940   1490633   1490090   1491541  
  9220.000000   1494719   1498972   1503482   1507456   1510337  
  9210.000000   1511811   1511839   1510516   1508090   1504855  
  9200.000000   1501236   1497648   1494529   1492178   1490749  
  9190.000000   1490197   1490308   1490859   1491674   1492792  
  9180.000000   1494383   1496726   1500026   1504309   1509328  
  9170.000000   1514564   1519348   1523001   1525058   1525345  
  9160.000000   1524074   1521751   1519083   1516749   1515220  
  9150.000000   1514649   1514839   1515359   1515656   1515339  
  9140.000000   1514274   1512707   1511091   1509997   1509841  
  9130.000000   1510763   1512526   1514615   1516433   1517468  
  9120.000000   1517463   1516434   1514641   1512443   1510158  
  9110.000000   1508014   1506139   1504614   1503510   1502884  
  9100.000000   1502764   1503089   1503680   1504249   1504469  
  9090.000000   1504092   1503059   1501521   1499800   1498289  
  9080.000000   1497331   1497113   1497624   1498715   1500180  
  9070.000000   1501817   1503457   1504956   1506192   1507013  
  9060.000000   1507255   1506758   1505468   1503458   1500968  
  9050.000000   1498341   1495967   1494197   1493250   1493206  
  9040.000000   1493962   1495326   1497035   1498833   1500487  
  9030.000000   1501823   1502741   1503175   1503118   1502576  
  9020.000000   1501633   1500362   1498877   1497304   1495820  
  9010.000000   1494637   1493922   1493839   1494449   1495772  
  9000.000000   1497700   1500084   1502731   1505426   1507936  
  8990.000000   1509982   1511302   1511604   1510682   1508429  
  8980.000000   1504977   1500681   1496124   1492001   1488964  
  8970.000000   1487484   1487683   1489379   1492079   1495214  
  8960.000000   1498211   1500703   1502523   1503719   1504448  
  8950.000000   1504849   1505002   1504840   1504270   1503142  
  8940.000000   1501418   1499129   1496437   1493563   1490719  
  8930.000000   1488121   1485927   1484316   1483429   1483435  
  8920.000000   1484448   1486498   1489436   1492909   1496394  
  8910.000000   1499277   1501028   1501301   1500098   1497718  
  8900.000000   1494736   1491772   1489373   1487842   1487221  
  8890.000000   1487317   1487812   1488401   1488880   1489203  
  8880.000000   1489399   1489566   1489767   1490054   1490441  
  8870.000000   1490956   1491659   1492608   1493843   1495287  
  8860.000000   1496772   1497991   1498635   1498452   1497400  
  8850.000000   1495633   1493479   1491340   1489583   1488473  
  8840.000000   1488110   1488501   1489598   1491375   1493804  
  8830.000000   1496819   1500257   1503806   1507055   1509541  
  8820.000000   1510931   1511080   1510155   1508532   1506734  
  8810.000000   1505242   1504388   1504311   1504959   1506210  
  8800.000000   1507911   1509988   1512384   1515062   1517908  
  8790.000000   1520731   1523277   1525279   1526564   1527063  
  8780.000000   1526877   1526185   1525214   1524151   1523133  
  8770.000000   1522268   1521652   1521431   1521745   1522734  
  8760.000000   1524411   1526659   1529172   1531553   1533397  
  8750.000000   1534433   1534615   1534104   1533238   1532348  
  8740.000000   1531686   1531290   1531041   1530710   1530130  
  8730.000000   1529272   1528307   1527553   1527363   1528013  
  8720.000000   1529587   1531978   1534906   1538046   1541130  
  8710.000000   1544011   1546670   1549151   1551506   1553715  
  8700.000000   1555703   1557327   1558477   1559075   1559144  
  8690.000000   1558762   1558052   1557139   1556138   1555175  
  8680.000000   1554384   1553948   1554036   1554791   1556239  
  8670.000000   1558284   1560698   1563180   1565434   1567255  
  8660.000000   1568584   1569498   1570171   1570787   1571500  
  8650.000000   1572388   1573471   1574717   1576094   1577547  
  8640.000000   1579018   1580414   1581625   1582535   1583075  
  8630.000000   1583252   1583182   1583063   1583121   1583541  
  8620.000000   1584420   1585748   1587438   1589372   1591443  
  8610.000000   1593583   1595748   1597897   1599971   1601898  
  8600.000000   1603621   1605132   1606499   1607847   1609321  
  8590.000000   1611005   1612886   1614823   1616607   1618023  
  8580.000000   1618953   1619404   1619514   1619494   1619566  
  8570.000000   1619888   1620544   1621540   1622862   1624490  
  8560.000000   1626407   1628590   1630968   1633433   1635832  
  8550.000000   1638054   1640065   1641967   1643949   1646224  
  8540.000000   1648907   1651950   1655098   1657962   1660128  
  8530.000000   1661297   1661388   1660560   1659156   1657580  
  8520.000000   1656164   1655095   1654380   1653917   1653567  
  8510.000000   1653254   1652995   1652904   1653123   1653760  
  8500.000000   1654831   1656253   1657872   1659515   1661057  
  8490.000000   1662438   1663694   1664909   1666196   1667634  
  8480.000000   1669250   1670998   1672782   1674466   1675918  
  8470.000000   1677029   1677744   1678078   1678087   1677893  
  8460.000000   1677630   1677453   1677489   1677834   1678526  
  8450.000000   1679530   1680744   1681985   1683033   1683665  
  8440.000000   1683728   1683171   1682096   1680747   1679493  
  8430.000000   1678735   1678796   1679860   1681898   1684710  
  8420.000000   1687939   1691209   1694197   1696724   1698759  
  8410.000000   1700365   1701642   1702628   1703287   1703488  
  8400.000000   1703094   1702032   1700386   1698422   1696532  
  8390.000000   1695163   1694651   1695168   1696607   1698658  
  8380.000000   1700851   1702725   1703933   1704327   1703967  
  8370.000000   1703072   1701943   1700858   1700008   1699474  
  8360.000000   1699252   1699289   1699520   1699884   1700322  
  8350.000000   1700777   1701159   1701375   1701325   1700962  
  8340.000000   1700304   1699454   1698564   1697802   1697296  
  8330.000000   1697105   1697198   1697472   1697781   1697990  
  8320.000000   1698003   1697777   1697314   1696635   1695766  
  8310.000000   1694729   1693549   1692269   1690968   1689768  
  8300.000000   1688812   1688241   1688136   1688501   1689234  
  8290.000000   1690170   1691107   1691878   1692386   1692622  
  8280.000000   1692647   1692551   1692393   1692180   1691862  
  8270.000000   1691366   1690650   1689744   1688760   1687858  
  8260.000000   1687168   1686732   1686458   1686148   1685551  
  8250.000000   1684477   1682865   1680848   1678695   1676751  
  8240.000000   1675288   1674446   1674175   1674282   1674502  
  8230.000000   1674586   1674376   1673805   1672886   1671650  
  8220.000000   1670126   1668315   1666230   1663928   1661539  
  8210.000000   1659258   1657295   1655823   1654908   1654515  
  8200.000000   1654493   1654663   1654835   1654876   1654696  
  8190.000000   1654237   1653455   1652295   1650730   1648767  
  8180.000000   1646503   1644097   1641756   1639666   1637939  
  8170.000000   1636582   1635495   1634540   1633580   1632555  
  8160.000000   1631470   1630384   1629351   1628379   1627414  
  8150.000000   1626362   1625145   1623742   1622224   1620728  
  8140.000000   1619407   1618366   1617614   1617071   1616593  
  8130.000000   1616032   1615288   1614324   1613159   1611830  
  8120.000000   1610364   1608761   1607023   1605171   1603285  
  8110.000000   1601488   1599924   1598699   1597833   1597255  
  8100.000000   1596818   1596365   1595792   1595092   1594362  
  8090.000000   1593740   1593344   1593193   1593190   1593143  
  8080.000000   1592847   1592156   1591051   1589642   1588129  
  8070.000000   1586730   1585595   1584774   1584203   1583753  
  8060.000000   1583282   1582692   1581959   1581113   1580222  
  8050.000000   1579338   1578475   1577611   1576706   1575735  
  8040.000000   1574724   1573746   1572919   1572354   1572126  
  8030.000000   1572233   1572589   1573044   1573421   1573573  
  8020.000000   1573425   1572994   1572385   1571748   1571226  
  8010.000000   1570903   1570778   1570767   1570731   1570542  
  8000.000000   1570122   1569476   1568678   1567844   1567067  
  7990.000000   1566388   1565768   1565119   1564339   1563367  
  7980.000000   1562215   1560964   1559737   1558644   1557739  
  7970.000000   1557001   1556348   1555681   1554930   1554084  
  7960.000000   1553198   1552364   1551679   1551199   1550934  
  7950.000000   1550842   1550861   1550921   1550968   1550960  
  7940.000000   1550869   1550667   1550344   1549906   1549399  
  7930.000000   1548897   1548501   1548289   1548298   1548489  
  7920.000000   1548758   1548972   1549014   1548834   1548465  
  7910.000000   1548017   1547629   1547419   1547444   1547682  
  7900.000000   1548050   1548432   1548726   1548863   1548819  
  7890.000000   1548608   1548268   1547850   1547415   1547028  
  7880.000000   1546758   1546655   1546738   1546975   1547287  
  7870.000000   1547566   1547706   1547656   1547431   1547123  
  7860.000000   1546867   1546794   1546985   1547437   1548069  
  7850.000000   1548743   1549311   1549653   1549704   1549461  
  7840.000000   1548981   1548349   1547672   1547050   1546568  
  7830.000000   1546281   1546198   1546292   1546490   1546711  
  7820.000000   1546875   1546953   1546945   1546908   1546893  
  7810.000000   1546944   1547053   1547166   1547202   1547087  
  7800.000000   1546780   1546285   1545641   1544892   1544059  
  7790.000000   1543134   1542088   1540912   1539637   1538358  
  7780.000000   1537215   1536347   1535840   1535692   1535803  
  7770.000000   1536007   1536134   1536058   1535751   1535269  
  7760.000000   1534736   1534287   1534029   1534005   1534197  
  7750.000000   1534543   1534955   1535352   1535664   1535839  
  7740.000000   1535847   1535675   1535333   1534852   1534278  
  7730.000000   1533661   1533038   1532423   1531805   1531156  
  7720.000000   1530458   1529715   1528961   1528251   1527635  
  7710.000000   1527135   1526736   1526388   1526037   1525649  
  7700.000000   1525238   1524863   1524612   1524561   1524742  
  7690.000000   1525124   1525613   1526090   1526446   1526623  
  7680.000000   1526628   1526520   1526381   1526273   1526214  
  7670.000000   1526167   1526063   1525831   1525430   1524872  
  7660.000000   1524222   1523579   1523039   1522669   1522481  
  7650.000000   1522436   1522455   1522458   1522381   1522205  
  7640.000000   1521952   1521676   1521443   1521309   1521307  
  7630.000000   1521436   1521673   1521973   1522292   1522584  
  7620.000000   1522816   1522952   1522971   1522849   1522577  
  7610.000000   1522154   1521605   1520975   1520333   1519761  
  7600.000000   1519345   1519165   1519273   1519694   1520402  
  7590.000000   1521329   1522363   1523367   1524208   1524783  
  7580.000000   1525056   1525058   1524893   1524693   1524599  
  7570.000000   1524700   1525027   1525524   1526096   1526628  
  7560.000000   1527042   1527318   1527500   1527684   1527978  
  7550.000000   1528475   1529224   1530214   1531394   1532674  
  7540.000000   1533967   1535185   1536266   1537163   1537856  
  7530.000000   1538348   1538678   1538910   1539143   1539478  
  7520.000000   1540013   1540805   1541864   1543134   1544511  
  7510.000000   1545867   1547094   1548121   1548943   1549618  
  7500.000000   1550252   1550965   1551866   1553011   1554410  
  7490.000000   1556011   1557735   1559484   1561171   1562728  
  7480.000000   1564125   1565357   1566454   1567457   1568432  
  7470.000000   1569442   1570562   1571848   1573337   1575033  
  7460.000000   1576908   1578903   1580947   1582974   1584941  
  7450.000000   1586833   1588671   1590481   1592298   1594131  
  7440.000000   1595975   1597803   1599588   1601311   1602974  
  7430.000000   1604591   1606195   1607809   1609451   1611115  
  7420.000000   1612788   1614445   1616072   1617667   1619246  
  7410.000000   1620838   1622485   1624235   1626131   1628208  
  7400.000000   1630477   1632922   1635496   1638122   1640700  
  7390.000000   1643122   1645304   1647190   1648775   1650093  
  7380.000000   1651227   1652284   1653376   1654604   1656037  
  7370.000000   1657715   1659635   1661769   1664054   1666422  
  7360.000000   1668799   1671133   1673386   1675544   1677610  
  7350.000000   1679586   1681467   1683231   1684853   1686309  
  7340.000000   1687597   1688737   1689778   1690786   1691819  
  7330.000000   1692931   1694144   1695470   1696899   1698422  
  7320.000000   1700021   1701677   1703360   1705024   1706616  
  7310.000000   1708079   1709379   1710514   1711528   1712497  
  7300.000000   1713515   1714671   1716018   1717572   1719303  
  7290.000000   1721144   1723019   1724847   1726561   1728113  
  7280.000000   1729479   1730656   1731666   1732556   1733395  
  7270.000000   1734264   1735248   1736416   1737811   1739433  
  7260.000000   1741247   1743179   1745133   1747008   1748724  
  7250.000000   1750230   1751536   1752689   1753797   1754967  
  7240.000000   1756311   1757885   1759705   1761716   1763855  
  7230.000000   1766045   1768258   1770498   1772818   1775271  
  7220.000000   1777911   1780743   1783751   1786878   1790078  
  7210.000000   1793302   1796542   1799787   1803049   1806317  
  7200.000000   1809585   1812836   1816079   1819332   1822642  
  7190.000000   1826041   1829550   1833137   1836742   1840278  
  7180.000000   1843685   1846943   1850099   1853243   1856483  
  7170.000000   1859890   1863495   1867253   1871105   1874971  
  7160.000000   1878822   1882655   1886518   1890447   1894482  
  7150.000000   1898620   1902863   1907191   1911631   1916211  
  7140.000000   1920993   1926001   1931240   1936647   1942147  
  7130.000000   1947638   1953077   1958445   1963802   1969215  
  7120.000000   1974777   1980528   1986488   1992620   1998883  
  7110.000000   2005221   2011607   2018013   2024436   2030854  
  7100.000000   2037255   2043611   2049915   2056162   2062379  
  7090.000000   2068594   2074854   2081188   2087620   2094155  
  7080.000000   2100787   2107495   2114252   2121025   2127786  
  7070.000000   2134513   2141203   2147866   2154522   2161182  
  7060.000000   2167836   2174441   2180935   2187248   2193348  
  7050.000000   2199250   2205036   2210824   2216733   2222845  
  7040.000000   2229166   2235646   2242192   2248719   2255176  
  7030.000000   2261565   2267917   2274269   2280622   2286942  
  7020.000000   2293158   2299210   2305067   2310753   2316323  
  7010.000000   2321843   2327339   2332798   2338147   2343320  
  7000.000000   2348264   2353002   2357596   2362158   2366768  
  6990.000000   2371476   2376243   2380999   2385635   2390080  
  6980.000000   2394288   2398274   2402070   2405730   2409278  
  6970.000000   2412738   2416106   2419400   2422628   2425829  
  6960.000000   2429023   2432235   2435454   2438665   2441824  
  6950.000000   2444900   2447852   2450661   2453309   2455801  
  6940.000000   2458148   2460389   2462563   2464726   2466906  
  6930.000000   2469116   2471322   2473472   2475497   2477361  
  6920.000000   2479054   2480620   2482119   2483617   2485143  
  6910.000000   2486691   2488217   2489676   2491036   2492310  
  6900.000000   2493532   2494763   2496035   2497358   2498699  
  6890.000000   2500016   2501264   2502432   2503532   2504596  
  6880.000000   2505651   2506700   2507720   2508676   2509537  
  6870.000000   2510301   2510994   2511669   2512380   2513168  
  6860.000000   2514040   2514987   2515978   2516991   2518003  
  6850.000000   2519005   2519983   2520924   2521803   2522598  
  6840.000000   2523294   2523888   2524387   2524805   2525147  
  6830.000000   2525414   2525604   2525728   2525814   2525922  
  6820.000000   2526114   2526453   2526958   2527612   2528346  
  6810.000000   2529079   2529727   2530245   2530622   2530885  
  6800.000000   2531071   2531212   2531315   2531370   2531349  
  6790.000000   2531234   2531017   2530709   2530328   2529902  
  6780.000000   2529450   2528995   2528552   2528148   2527802  
  6770.000000   2527537   2527356   2527253   2527199   2527158  
  6760.000000   2527093   2526975   2526789   2526531   2526206  
  6750.000000   2525824   2525400   2524953   2524510   2524096  
  6740.000000   2523732   2523427   2523169   2522934   2522691  
  6730.000000   2522419   2522110   2521781   2521455   2521155  
  6720.000000   2520888   2520643   2520393   2520114   2519793  
  6710.000000   2519439   2519073   2518722   2518396   2518091  
  6700.000000   2517775   2517416   2516982   2516460   2515854  
  6690.000000   2515179   2514450   2513681   2512874   2512033  
  6680.000000   2511163   2510280   2509402   2508549   2507729  
  6670.000000   2506942   2506170   2505400   2504610   2503792  
  6660.000000   2502939   2502047   2501107   2500114   2499064  
  6650.000000   2497966   2496835   2495697   2494567   2493448  
  6640.000000   2492317   2491138   2489874   2488506   2487041  
  6630.000000   2485520   2483993   2482512   2481102   2479766  
  6620.000000   2478481   2477219   2475956   2474681   2473390  
  6610.000000   2472083   2470746   2469361   2467902   2466359  
  6600.000000   2464739   2463071   2461388   2459718   2458064  
  6590.000000   2456413   2454738   2453025   2451281   2449538  
  6580.000000   2447839   2446221   2444689   2443219   2441766  
  6570.000000   2440286   2438756   2437189   2435620   2434092  
  6560.000000   2432630   2431230   2429862   2428490   2427091  
  6550.000000   2425671   2424262   2422899   2421602   2420352  
  6540.000000   2419097   2417764   2416294   2414664   2412906  
  6530.000000   2411091   2409316   2407670   2406208   2404948  
  6520.000000   2403868   2402923   2402055   2401208   2400335  
  6510.000000   2399394   2398362   2397226   2396001   2394716  
  6500.000000   2393419   2392157   2390970   2389874   2388861  
  6490.000000   2387903   2386962   2386007   2385018   2383997  
  6480.000000   2382954   2381910   2380884   2379890   2378934  
  6470.000000   2378013   2377113   2376211   2375284   2374303  
  6460.000000   2373250   2372116   2370909   2369646   2368351  
  6450.000000   2367047   2365754   2364485   2363257   2362084  
  6440.000000   2360989   2359987   2359089   2358281   2357538  
  6430.000000   2356817   2356084   2355314   2354516   2353716  
  6420.000000   2352960   2352280   2351702   2351220   2350820  
  6410.000000   2350477   2350180   2349920   2349702   2349518  
  6400.000000   2349354   2349176   2348951   2348652   2348275  
  6390.000000   2347842   2347396   2346986   2346646   2346396  
  6380.000000   2346228   2346120   2346045   2345976   2345890  
  6370.000000   2345767   2345582   2345312   2344937   2344453  
  6360.000000   2343874   2343240   2342595   2341986   2341437  
  6350.000000   2340955   2340520   2340108   2339691   2339258  
  6340.000000   2338797   2338307   2337773   2337183   2336517  
  6330.000000   2335767   2334941   2334069   2333188   2332337  
  6320.000000   2331533   2330771   2330018   2329236   2328389  
  6310.000000   2327467   2326476   2325449   2324412   2323392  
  6300.000000   2322393   2321410   2320423   2319416   2318369  
  6290.000000   2317275   2316124   2314917   2313650   2312336  
  6280.000000   2310987   2309630   2308283   2306963   2305667  
  6270.000000   2304381   2303075   2301724   2300305   2298815  
  6260.000000   2297261   2295668   2294055   2292444   2290848  
  6250.000000   2289276   2287731   2286218   2284729   2283259  
  6240.000000   2281790   2280304   2278784   2277223   2275622  
  6230.000000   2273994   2272352   2270703   2269049   2267380  
  6220.000000   2265688   2263972   2262244   2260529   2258857  
  6210.000000   2257254   2255737   2254309   2252966   2251699  
  6200.000000   2250505   2249377   2248312   2247290   2246286  
  6190.000000   2245261   2244182   2243029   2241802   2240522  
  6180.000000   2239223   2237937   2236685   2235472   2234291  
  6170.000000   2233127   2231972   2230821   2229670   2228518  
  6160.000000   2227353   2226164   2224939   2223682   2222408  
  6150.000000   2221147   2219927   2218768   2217669   2216607  
  6140.000000   2215549   2214462   2213330   2212153   2210948  
  6130.000000   2209732   2208520   2207312   2206104   2204890  
  6120.000000   2203678   2202484   2201340   2200266   2199279  
  6110.000000   2198372   2197531   2196733   2195969   2195236  
  6100.000000   2194553   2193935   2193403   2192960   2192605  
  6090.000000   2192320   2192093   2191904   2191748   2191606  
  6080.000000   2191474   2191335   2191187   2191026   2190873  
  6070.000000   2190742   2190661   2190637   2190675   2190756  
  6060.000000   2190869   2190998   2191154   2191354   2191640  
  6050.000000   2192035   2192568   2193233   2194025   2194919  
  6040.000000   2195911   2196991   2198179   2199479   2200908  
  6030.000000   2202451   2204102   2205827   2207612   2209432  
  6020.000000   2211286   2213162   2215070   2217003   2218975  
  6010.000000   2220989   2223073   2225240   2227516   2229898  
  6000.000000   2232380   2234922   2237495   2240065   2242632  
  5990.000000   2245207   2247837   2250555   2253402   2256381  
  5980.000000   2259492   2262705   2266010   2269391   2272861  
  5970.000000   2276423   2280092   2283855   2287702   2291599  
  5960.000000   2295533   2299487   2303469   2307479   2311528  
  5950.000000   2315603   2319691   2323771   2327838   2331900  
  5940.000000   2335991   2340154   2344428   2348834   2353357  
  5930.000000   2357959   2362578   2367153   2371628   2375972  
  5920.000000   2380165   2384206   2388093   2391832   2395424  
  5910.000000   2398877   2402194   2405388   2408468   2411453  
  5900.000000   2414355   2417205   2420027   2422868   2425755  
  5890.000000   2428723   2431768   2434875   2437990   2441060  
  5880.000000   2444020   2446830   2449467   2451936   2454263  
  5870.000000   2456482   2458633   2460754   2462878   2465033  
  5860.000000   2467239   2469501   2471816   2474167   2476538  
  5850.000000   2478918   2481311   2483740   2486240   2488845  
  5840.000000   2491578   2494433   2497382   2500375   2503361  
  5830.000000   2506291   2509145   2511916   2514622   2517282  
  5820.000000   2519922   2522560   2525208   2527872   2530551  
  5810.000000   2533240   2535918   2538572   2541167   2543700  
  5800.000000   2546150   2548549   2550902   2553264   2555636  
  5790.000000   2558042   2560426   2562742   2564867   2566687  
  5780.000000   2568039   2568800   2568839   2568100   2566569  
  5770.000000   2564327   2561500   2558285   2554871   2551455  
  5760.000000   2548163   2545096   2542278   2539727   2537424  
  5750.000000   2535372   2533551   2531957   2530559   2529316  
  5740.000000   2528176   2527081   2525997   2524897   2523790  
  5730.000000   2522679   2521589   2520522   2519490   2518488  
  5720.000000   2517529   2516620   2515779   2515009   2514310  
  5710.000000   2513659   2513028   2512391   2511735   2511066  
  5700.000000   2510405   2509779   2509203   2508685   2508208  
  5690.000000   2507762   2507325   2506899   2506479   2506077  
  5680.000000   2505676   2505259   2504776   2504178   2503402  
  5670.000000   2502404   2501140   2499588   2497732   2495579  
  5660.000000   2493151   2490499   2487695   2484833   2482001  
  5650.000000   2479279   2476706   2474295   2472024   2469869  
  5640.000000   2467805   2465824   2463930   2462128   2460418  
  5630.000000   2458784   2457205   2455653   2454121   2452605  
  5620.000000   2451127   2449700   2448337   2447032   2445776  
  5610.000000   2444549   2443349   2442180   2441057   2439988  
  5600.000000   2438974   2437991   2437013   2436010   2434977  
  5590.000000   2433926   2432894   2431916   2431018   2430198  
  5580.000000   2429425   2428659   2427858   2427002   2426091  
  5570.000000   2425150   2424205   2423276   2422368   2421471  
  5560.000000   2420564   2419630   2418652   2417625   2416544  
  5550.000000   2415412   2414228   2413003   2411749   2410491  
  5540.000000   2409255   2408061   2406916   2405811   2404726  
  5530.000000   2403640   2402539   2401426   2400312   2399215  
  5520.000000   2398145   2397099   2396060   2395009   2393927  
  5510.000000   2392806   2391646   2390455   2389236   2387989  
  5500.000000   2386707   2385391   2384046   2382691   2381343  
  5490.000000   2380019   2378711   2377401   2376050   2374631  
  5480.000000   2373125   2371542   2369906   2368256   2366619  
  5470.000000   2365010   2363419   2361829   2360216   2358568  
  5460.000000   2356878   2355150   2353381   2351570   2349710  
  5450.000000   2347801   2345854   2343889   2341934   2340010  
  5440.000000   2338126   2336274   2334444   2332627   2330837  
  5430.000000   2329095   2327439   2325887   2324448   2323095  
  5420.000000   2321806   2320549   2319327   2318157   2317088  
  5410.000000   2316149   2315363   2314704   2314146   2313637  
  5400.000000   2313170   2312740   2312395   2312170   2312117  
  5390.000000   2312238   2312537   2312978   2313561   2314270  
  5380.000000   2315142   2316184   2317433   2318866   2320479  
  5370.000000   2322216   2324071   2326009   2328067   2330243  
  5360.000000   2332600   2335136   2337909   2340907   2344199  
  5350.000000   2347787   2351757   2356110   2360917   2366135  
  5340.000000   2371799   2377842   2384310   2391160   2398472  
  5330.000000   2406219   2414479   2423198   2432431   2442109  
  5320.000000   2452306   2462988   2474278   2486169   2498796  
  5310.000000   2512131   2526267   2541131   2556787   2573157  
  5300.000000   2590319   2608228   2626996   2646601   2667155  
  5290.000000   2688608   2711003   2734206   2758163   2782685  
  5280.000000   2807711   2833128   2858994   2885340   2912320  
  5270.000000   2939986   2968391   2997423   3026921   3056646  
  5260.000000   3086397   3116048   3145568   3175011   3204419  
  5250.000000   3233817   3263095   3292116   3320626   3348479  
  5240.000000   3375510   3401761   3427239   3452122   3476451  
  5230.000000   3500357   3523763   3546667   3568883   3590367  
  5220.000000   3610960   3630718   3649603   3667781   3685280  
  5210.000000   3702263   3718684   3734583   3749782   3764237  
  5200.000000   3777768   3790410   3802110   3813026   3823184  
  5190.000000   3832746   3841687   3850087   3857854   3865035  
  5180.000000   3871545   3877462   3882730   3887428   3891485  
  5170.000000   3894949   3897745   3899942   3901519   3902593  
  5160.000000   3903176   3903371   3903144   3902532   3901458  
  5150.000000   3899947   3897958   3895571   3892795   3889728  
  5140.000000   3886371   3882783   3878934   3874860   3870541  
  5130.000000   3866026   3861313   3856449   3851419   3846239  
  5120.000000   3840881   3835361   3829675   3823870   3817973  
  5110.000000   3812036   3806073   3800107   3794124   3788128  
  5100.000000   3782108   3776079   3770047   3764032   3758038  
  5090.000000   3752075   3746136   3740228   3734345   3728497  
  5080.000000   3722681   3716895   3711119   3705336   3699513  
  5070.000000   3693637   3687686   3681665   3675568   3669402  
  5060.000000   3663159   3656843   3650445   3643976   3637436  
  5050.000000   3630848   3624212   3617537   3610806   3604009  
  5040.000000   3597121   3590137   3583051   3575880   3568638  
  5030.000000   3561347   3554020   3546667   3539294   3531909  
  5020.000000   3524527   3517167   3509854   3502607   3495448  
  5010.000000   3488385   3481430   3474582   3467859   3461262  
  5000.000000   3454814   3448514   3442381   3436400   3430584  
  4990.000000   3424912   3419405   3414050   3408883   3403899  
  4980.000000   3399141   3394605   3390335   3386320   3382600  
  4970.000000   3379158   3376025   3373171   3370614   3368312  
  4960.000000   3366284   3364494   3362980   3361727   3360795  
  4950.000000   3360175   3359926   3360025   3360514   3361351  
  4940.000000   3362568   3364125   3366060   3368340   3371009  
  4930.000000   3374032   3377449   3381219   3385375   3389877  
  4920.000000   3394758   3399978   3405567   3411486   3417758  
  4910.000000   3424342   3431258   3438469   3445988   3453778  
  4900.000000   3461835   3470118   3478606   3487263   3496065  
  4890.000000   3504984   3513989   3523047   3532096   3541081  
  4880.000000   3549907   3558509   3566790   3574707   3582188  
  4870.000000   3589223   3595763   3601820   3607355   3612395  
  4860.000000   3616913   3620952   3624500   3627612   3630289  
  4850.000000   3632595   3634541   3636202   3637598   3638807  
  4840.000000   3639848   3640778   3641601   3642347   3643007  
  4830.000000   3643605   3644142   3644652   3645152   3645676  
  4820.000000   3646240   3646861   3647543   3648289   3649102  
  4810.000000   3649985   3650943   3651977   3653086   3654261  
  4800.000000   3655493   3656769   3658089   3659452   3660869  
  4790.000000   3662341   3663872   3665449   3667058   3668677  
  4780.000000   3670292   3671899   3673504   3675118   3676752  
  4770.000000   3678410   3680080   3681742   3683364   3684924  
  4760.000000   3686396   3687775   3689057   3690254   3691369  
  4750.000000   3692412   3693382   3694280   3695096   3695831  
  4740.000000   3696476   3697037   3697511   3697909   3698237  
  4730.000000   3698509   3698736   3698931   3699105   3699266  
  4720.000000   3699421   3699572   3699725   3699881   3700053  
  4710.000000   3700253   3700509   3700844   3701296   3701889  
  4700.000000   3702657   3703614   3704772   3706127   3707673  
  4690.000000   3709391   3711270   3713284   3715419   3717645  
  4680.000000   3719941   3722265   3724589   3726867   3729079  
  4670.000000   3731191   3733205   3735119   3736960   3738749  
  4660.000000   3740531   3742341   3744231   3746243   3748425  
  4650.000000   3750809   3753421   3756265   3759329   3762580  
  4640.000000   3765979   3769483   3773050   3776653   3780270  
  4630.000000   3783889   3787494   3791071   3794593   3798031  
  4620.000000   3801338   3804477   3807396   3810062   3812435  
  4610.000000   3814505   3816259   3817725   3818923   3819916  
  4600.000000   3820743   3821476   3822141   3822790   3823414  
  4590.000000   3824024   3824575   3825046   3825369   3825515  
  4580.000000   3825429   3825104   3824524   3823717   3822704  
  4570.000000   3821537   3820245   3818866   3817409   3815889  
  4560.000000   3814297   3812640   3810915   3809140   3807323  
  4550.000000   3805487   3803637   3801783   3799924   3798056  
  4540.000000   3796178   3794292   3792411   3790548   3788730  
  4530.000000   3786972   3785304   3783731   3782279   3780936  
  4520.000000   3779720   3778608   3777618   3776725   3775967  
  4510.000000   3775333   3774894   3774665   3774742   3775142  
  4500.000000   3775965   3777210   3778961   3781203   3784018  
  4490.000000   3787394   3791425   3796105   3801524   3807653  
  4480.000000   3814549   3822145   3830462   3839413   3849006  
  4470.000000   3859152   3869861   3881048   3892714   3904772  
  4460.000000   3917216   3929958   3942986   3956221   3969642  
  4450.000000   3983178   3996805   4010469   4024156   4037847  
  4440.000000   4051550   4065274   4079027   4092817   4106616  
  4430.000000   4120410   4134135   4147767   4161229   4174509  
  4420.000000   4187530   4200283   4212679   4224689   4236202  
  4410.000000   4247169   4257475   4267083   4275920   4284008  
  4400.000000   4291344   4298028   4304124   4309777   4315077  
  4390.000000   4320166   4325119   4330043   4334976   4339984  
  4380.000000   4345074   4350283   4355608   4361081   4366708  
  4370.000000   4372522   4378535   4384762   4391191   4397799  
  4360.000000   4404536   4411361   4418207   4425048   4431809  
  4350.000000   4438483   4444974   4451283   4457311   4463101  
  4340.000000   4468602   4473903   4478950   4483721   4487958  
  4330.000000   4491331   4493296   4493333   4490946   4485927  
  4320.000000   4478354   4468709   4457719   4446294   4435264  
  4310.000000   4425315   4416812   4409878   4404376   4400076  
  4300.000000   4396700   4394025   4391907   4390248   4389029  
  4290.000000   4388201   4387782   4387730   4388081   4388816  
  4280.000000   4389976   4391546   4393519   4395856   4398503  
  4270.000000   4401410   4404506   4407719   4410906   4413868  
  4260.000000   4416302   4417856   4418162   4416944   4414064  
  4250.000000   4409608   4403847   4397233   4390255   4383414  
  4240.000000   4377068   4371466   4366656   4362595   4359115  
  4230.000000   4356045   4353191   4350400   4347560   4344600  
  4220.000000   4341516   4338325   4335126   4332004   4329108  
  4210.000000   4326533   4324396   4322727   4321551   4320805  
  4200.000000   4320434   4320322   4320394   4320547   4320745  
  4190.000000   4320934   4321139   4321352   4321638   4322009  
  4180.000000   4322537   4323230   4324155   4325318   4326784  
  4170.000000   4328565   4330731   4333288   4336290   4339716  
  4160.000000   4343588   4347853   4352517   4357520   4362879  
  4150.000000   4368545   4374557   4380879   4387558   4394565  
  4140.000000   4401954   4409698   4417855   4426395   4435365  
  4130.000000   4444717   4454475   4464581   4475059   4485871  
  4120.000000   4497068   4508650   4520695   4533221   4546297  
  4110.000000   4559916   4574096   4588776   4603908   4619376  
  4100.000000   4635087   4650914   4666778   4682604   4698376  
  4090.000000   4714100   4729815   4745561   4761368   4777261  
  4080.000000   4793224   4809254   4825296   4841333   4857282  
  4070.000000   4873104   4888684   4903974   4918854   4933309  
  4060.000000   4947257   4960728   4973666   4986111   4997992  
  4050.000000   5009342   5020087   5030286   5039884   5048958  
  4040.000000   5057444   5065385   5072671   5079323   5085237  
  4030.000000   5090477   5095003   5098925   5102226   5104987  
  4020.000000   5107135   5108713   5109682   5110101   5109928  
  4010.000000   5109283   5108233   5106799   5104800   5102275  
  4000.000000   5099480  
##END= 
