##TITLE= Sample 047 By ssteindl date Dienstag, November 20 2018
##JCAMP-DX= 4.24
##DATA TYPE= INFRARED SPECTRUM
##ORIGIN= Exported PE Spectrum Data File
##OWNER= Sandra Steindl
##DATE= 18/11/20
##TIME= 12:11:51.00
##SPECTROMETER/DATA SYSTEM= PERKIN-ELMER Frontier FT-IR/NIR IR
##INSTRUMENT PARAMETERS=
  APODIZATION=stark
  DETECTOR=INGAAS
##RESOLUTION= 16.000000
##DELTAX= -2.000000
##XUNITS= 1/CM
##YUNITS= A
##XFACTOR= 1.00
##YFACTOR= 0.00000011920928955078
##FIRSTX= 10000.00
##LASTX= 4000.00
##NPOINTS= 3001
##FIRSTY= 0.207612
##MAXY= 0.610005
##MINY= 0.181526
##XYDATA= (X++(Y..Y))
 10000.000000   1741572   1741728   1741298   1739825   1737927  
  9990.000000   1736574   1736162   1736287   1736334   1735588  
  9980.000000   1733222   1728630   1721854   1713813   1706017  
  9970.000000   1700348   1698425   1701166   1708282   1718355  
  9960.000000   1729185   1738393   1744160   1745537   1742656  
  9950.000000   1736338   1727823   1718274   1708698   1699848  
  9940.000000   1692402   1686982   1684130   1684187   1687034  
  9930.000000   1692136   1698459   1704896   1710410   1714436  
  9920.000000   1716876   1718026   1718383   1718321   1718079  
  9910.000000   1717636   1716923   1715834   1714334   1712404  
  9900.000000   1709992   1707024   1703413   1699256   1694836  
  9890.000000   1690724   1687524   1685732   1685437   1686291  
  9880.000000   1687623   1688675   1688952   1688300   1686976  
  9870.000000   1685328   1683659   1681969   1680080   1677775  
  9860.000000   1675066   1672347   1670310   1669777   1671306  
  9850.000000   1675030   1680512   1686948   1693357   1698876  
  9840.000000   1702884   1705005   1705068   1702995   1698875  
  9830.000000   1692995   1685972   1678704   1672217   1667371  
  9820.000000   1664559   1663592   1663772   1664237   1664275  
  9810.000000   1663622   1662447   1661173   1660220   1659725  
  9800.000000   1659598   1659546   1659414   1659245   1659363  
  9790.000000   1660170   1661917   1664560   1667731   1670985  
  9780.000000   1674018   1676873   1679882   1683413   1687544  
  9770.000000   1691806   1695278   1696845   1695730   1691817  
  9760.000000   1685811   1679022   1672889   1668554   1666425  
  9750.000000   1666285   1667415   1669117   1670954   1672901  
  9740.000000   1675168   1677863   1680764   1683176   1684197  
  9730.000000   1682990   1679247   1673312   1666223   1659374  
  9720.000000   1654164   1651637   1652224   1655773   1661563  
  9710.000000   1668600   1675745   1681997   1686566   1689015  
  9700.000000   1689271   1687609   1684617   1680985   1677429  
  9690.000000   1674403   1672110   1670411   1668965   1667378  
  9680.000000   1665327   1662757   1659839   1657036   1654889  
  9670.000000   1653947   1654516   1656609   1659860   1663620  
  9660.000000   1667116   1669649   1670828   1670639   1669449  
  9650.000000   1667827   1666308   1665185   1664389   1663580  
  9640.000000   1662337   1660421   1657908   1655191   1652768  
  9630.000000   1651015   1649952   1649237   1648290   1646561  
  9620.000000   1643790   1640127   1636086   1632327   1629411  
  9610.000000   1627607   1626882   1626968   1627571   1628442  
  9600.000000   1629466   1630541   1631534   1632207   1632301  
  9590.000000   1631657   1630374   1628852   1627718   1627585  
  9580.000000   1628835   1631412   1634848   1638395   1641287  
  9570.000000   1642982   1643284   1642356   1640584   1638445  
  9560.000000   1636354   1634656   1633573   1633272   1633785  
  9550.000000   1635027   1636689   1638332   1639420   1639545  
  9540.000000   1638497   1636379   1633498   1630244   1626941  
  9530.000000   1623713   1620544   1617306   1613949   1610523  
  9520.000000   1607208   1604199   1601611   1599431   1597546  
  9510.000000   1595873   1594456   1593523   1593392   1594317  
  9500.000000   1596354   1599264   1602620   1605885   1608646  
  9490.000000   1610633   1611804   1612188   1611887   1610941  
  9480.000000   1609434   1607505   1605455   1603726   1602772  
  9470.000000   1602936   1604233   1606411   1608970   1611478  
  9460.000000   1613649   1615505   1617197   1618868   1620447  
  9450.000000   1621568   1621732   1620452   1617592   1613390  
  9440.000000   1608465   1603522   1599092   1595369   1592219  
  9430.000000   1589442   1586989   1585163   1584520   1585665  
  9420.000000   1588877   1593864   1599698   1605075   1608777  
  9410.000000   1610102   1609153   1606697   1603904   1601833  
  9400.000000   1601114   1601751   1603217   1604733   1605582  
  9390.000000   1605400   1604214   1602395   1600402   1598665  
  9380.000000   1597414   1596714   1596459   1596431   1596372  
  9370.000000   1595996   1595108   1593596   1591527   1589116  
  9360.000000   1586705   1584670   1583293   1582693   1582785  
  9350.000000   1583381   1584272   1585357   1586638   1588208  
  9340.000000   1590113   1592294   1594505   1596373   1597489  
  9330.000000   1597557   1596506   1594486   1591820   1588858  
  9320.000000   1585906   1583139   1580601   1578231   1575909  
  9310.000000   1573530   1571030   1568445   1565878   1563542  
  9300.000000   1561694   1560628   1560562   1561537   1563378  
  9290.000000   1565653   1567848   1569430   1570055   1569578  
  9280.000000   1568109   1565917   1563381   1560882   1558777  
  9270.000000   1557381   1556978   1557798   1559897   1563095  
  9260.000000   1566873   1570517   1573243   1574467   1573968  
  9250.000000   1571989   1569191   1566371   1564208   1562950  
  9240.000000   1562415   1562070   1561321   1559743   1557250  
  9230.000000   1554163   1551062   1548621   1547312   1547355  
  9220.000000   1548661   1550970   1553907   1557074   1560082  
  9210.000000   1562572   1564258   1564926   1564520   1563112  
  9200.000000   1560958   1558362   1555657   1553047   1550644  
  9190.000000   1548438   1546388   1544518   1542929   1541854  
  9180.000000   1541500   1542044   1543478   1545697   1548474  
  9170.000000   1551563   1554707   1557662   1560207   1562082  
  9160.000000   1563047   1562855   1561396   1558695   1554995  
  9150.000000   1550668   1546168   1541937   1538330   1535607  
  9140.000000   1533870   1533165   1533434   1534577   1536380  
  9130.000000   1538547   1540728   1542575   1543843   1544381  
  9120.000000   1544224   1543475   1542354   1541032   1539677  
  9110.000000   1538394   1537313   1536591   1536401   1536912  
  9100.000000   1538181   1540175   1542697   1545490   1548234  
  9090.000000   1550680   1552657   1554100   1555004   1555366  
  9080.000000   1555176   1554391   1553001   1551030   1548583  
  9070.000000   1545811   1542888   1539984   1537235   1534777  
  9060.000000   1532737   1531269   1530501   1530520   1531286  
  9050.000000   1532641   1534292   1535918   1537235   1538109  
  9040.000000   1538579   1538828   1539107   1539587   1540312  
  9030.000000   1541131   1541796   1541980   1541422   1539967  
  9020.000000   1537657   1534681   1531371   1528127   1525383  
  9010.000000   1523513   1522751   1523169   1524642   1526914  
  9000.000000   1529616   1532421   1535101   1537618   1540066  
  8990.000000   1542595   1545304   1548121   1550817   1552995  
  8980.000000   1554264   1554333   1553150   1550916   1548031  
  8970.000000   1545018   1542365   1540458   1539473   1539417  
  8960.000000   1540123   1541326   1542684   1543857   1544538  
  8950.000000   1544526   1543758   1542345   1540570   1538824  
  8940.000000   1537535   1537024   1537434   1538677   1540476  
  8930.000000   1542442   1544184   1545430   1546084   1546231  
  8920.000000   1546054   1545762   1545502   1545316   1545166  
  8910.000000   1544959   1544641   1544203   1543702   1543206  
  8900.000000   1542747   1542293   1541742   1540992   1539999  
  8890.000000   1538855   1537785   1537096   1537052   1537766  
  8880.000000   1539115   1540792   1542394   1543570   1544152  
  8870.000000   1544189   1543933   1543656   1543553   1543591  
  8860.000000   1543587   1543232   1542306   1540760   1538803  
  8850.000000   1536833   1535283   1534517   1534699   1535832  
  8840.000000   1537788   1540422   1543612   1547249   1551170  
  8830.000000   1555066   1558485   1560895   1561876   1561255  
  8820.000000   1559255   1556434   1553593   1551478   1550581  
  8810.000000   1550977   1552348   1554140   1555768   1556848  
  8800.000000   1557275   1557242   1557092   1557209   1557882  
  8790.000000   1559247   1561284   1563836   1566679   1569539  
  8780.000000   1572154   1574288   1575782   1576608   1576877  
  8770.000000   1576840   1576794   1577011   1577624   1578594  
  8760.000000   1579724   1580739   1581406   1581604   1581370  
  8750.000000   1580837   1580176   1579504   1578859   1578211  
  8740.000000   1577526   1576852   1576339   1576247   1576849  
  8730.000000   1578365   1580852   1584179   1588029   1591955  
  8720.000000   1595497   1598244   1599947   1600508   1600043  
  8710.000000   1598806   1597190   1595595   1594397   1593840  
  8700.000000   1594023   1594891   1596268   1597943   1599714  
  8690.000000   1601484   1603230   1605020   1606926   1609006  
  8680.000000   1611266   1613650   1616072   1618415   1620569  
  8670.000000   1622415   1623859   1624818   1625262   1625211  
  8660.000000   1624763   1624084   1623390   1622885   1622721  
  8650.000000   1622961   1623587   1624524   1625672   1626946  
  8640.000000   1628286   1629670   1631095   1632577   1634141  
  8630.000000   1635818   1637654   1639685   1641932   1644350  
  8620.000000   1646834   1649214   1651311   1652991   1654215  
  8610.000000   1655058   1655680   1656283   1657032   1658020  
  8600.000000   1659231   1660586   1661960   1663253   1664402  
  8590.000000   1665392   1666228   1666916   1667440   1667774  
  8580.000000   1667901   1667843   1667676   1667525   1667531  
  8570.000000   1667833   1668517   1669615   1671080   1672821  
  8560.000000   1674723   1676666   1678557   1680307   1681872  
  8550.000000   1683192   1684216   1684872   1685114   1684932  
  8540.000000   1684404   1683726   1683215   1683261   1684211  
  8530.000000   1686279   1689428   1693360   1697538   1701350  
  8520.000000   1704270   1706019   1706626   1706401   1705816  
  8510.000000   1705333   1705261   1705685   1706498   1707482  
  8500.000000   1708426   1709193   1709749   1710127   1710357  
  8490.000000   1710445   1710374   1710145   1709836   1709599  
  8480.000000   1709666   1710235   1711424   1713176   1715306  
  8470.000000   1717542   1719647   1721494   1723109   1724644  
  8460.000000   1726290   1728210   1730460   1732995   1735686  
  8450.000000   1738386   1740968   1743333   1745400   1747079  
  8440.000000   1748280   1748919   1748955   1748436   1747500  
  8430.000000   1746372   1745279   1744427   1743936   1743854  
  8420.000000   1744151   1744767   1745632   1746678   1747819  
  8410.000000   1748941   1749912   1750618   1751005   1751126  
  8400.000000   1751131   1751267   1751787   1752889   1754613  
  8390.000000   1756855   1759375   1761872   1764022   1765551  
  8380.000000   1766265   1766078   1764994   1763113   1760616  
  8370.000000   1757767   1754872   1752244   1750117   1748631  
  8360.000000   1747776   1747443   1747417   1747493   1747491  
  8350.000000   1747318   1746940   1746356   1745589   1744636  
  8340.000000   1743518   1742245   1740887   1739529   1738291  
  8330.000000   1737263   1736488   1735962   1735631   1735458  
  8320.000000   1735421   1735568   1735970   1736709   1737802  
  8310.000000   1739158   1740580   1741779   1742467   1742397  
  8300.000000   1741458   1739669   1737216   1734388   1731530  
  8290.000000   1728977   1726989   1725735   1725248   1725468  
  8280.000000   1726229   1727324   1728529   1729653   1730553  
  8270.000000   1731151   1731421   1731377   1731062   1730527  
  8260.000000   1729843   1729081   1728340   1727712   1727284  
  8250.000000   1727099   1727130   1727282   1727389   1727282  
  8240.000000   1726810   1725925   1724674   1723225   1721795  
  8230.000000   1720623   1719865   1719573   1719641   1719858  
  8220.000000   1719939   1719626   1718726   1717182   1715056  
  8210.000000   1712524   1709813   1707148   1704701   1702560  
  8200.000000   1700733   1699157   1697730   1696333   1694853  
  8190.000000   1693204   1691339   1689270   1687075   1684890  
  8180.000000   1682898   1681267   1680126   1679502   1679321  
  8170.000000   1679397   1679498   1679398   1678957   1678152  
  8160.000000   1677089   1675952   1674942   1674205   1673789  
  8150.000000   1673627   1673571   1673433   1673049   1672322  
  8140.000000   1671234   1669852   1668276   1666634   1665028  
  8130.000000   1663540   1662211   1661054   1660055   1659181  
  8120.000000   1658387   1657615   1656800   1655867   1654743  
  8110.000000   1653372   1651736   1649878   1647910   1646008  
  8100.000000   1644381   1643223   1642659   1642699   1643207  
  8090.000000   1643936   1644574   1644834   1644530   1643628  
  8080.000000   1642242   1640585   1638895   1637356   1636053  
  8070.000000   1634961   1633986   1633013   1631963   1630813  
  8060.000000   1629590   1628348   1627128   1625942   1624776  
  8050.000000   1623609   1622446   1621326   1620334   1619555  
  8040.000000   1619059   1618857   1618896   1619073   1619262  
  8030.000000   1619352   1619278   1619028   1618646   1618192  
  8020.000000   1617736   1617308   1616913   1616505   1616018  
  8010.000000   1615374   1614517   1613444   1612204   1610935  
  8000.000000   1609808   1609023   1608727   1608991   1609756  
  7990.000000   1610842   1611979   1612855   1613204   1612843  
  7980.000000   1611739   1609980   1607778   1605391   1603097  
  7970.000000   1601126   1599643   1598735   1598402   1598590  
  7960.000000   1599183   1600048   1601031   1602001   1602841  
  7950.000000   1603478   1603868   1603993   1603863   1603480  
  7940.000000   1602875   1602063   1601090   1599987   1598803  
  7930.000000   1597566   1596296   1594997   1593674   1592357  
  7920.000000   1591113   1590062   1589354   1589134   1589492  
  7910.000000   1590422   1591804   1593423   1595026   1596379  
  7900.000000   1597347   1597907   1598150   1598224   1598282  
  7890.000000   1598416   1598642   1598902   1599107   1599179  
  7880.000000   1599094   1598878   1598591   1598296   1598019  
  7870.000000   1597741   1597406   1596959   1596377   1595703  
  7860.000000   1595045   1594549   1594356   1594557   1595162  
  7850.000000   1596098   1597222   1598365   1599377   1600151  
  7840.000000   1600651   1600894   1600946   1600878   1600766  
  7830.000000   1600654   1600566   1600503   1600450   1600401  
  7820.000000   1600347   1600308   1600300   1600362   1600511  
  7810.000000   1600756   1601070   1601397   1601659   1601768  
  7800.000000   1601651   1601270   1600637   1599814   1598900  
  7790.000000   1598012   1597244   1596667   1596296   1596111  
  7780.000000   1596060   1596078   1596101   1596074   1595949  
  7770.000000   1595688   1595261   1594659   1593895   1593018  
  7760.000000   1592107   1591261   1590573   1590106   1589872  
  7750.000000   1589828   1589883   1589931   1589872   1589642  
  7740.000000   1589223   1588638   1587943   1587199   1586467  
  7730.000000   1585787   1585187   1584669   1584220   1583808  
  7720.000000   1583390   1582929   1582406   1581842   1581297  
  7710.000000   1580866   1580643   1580694   1581016   1581534  
  7700.000000   1582111   1582588   1582838   1582796   1582483  
  7690.000000   1581974   1581372   1580748   1580125   1579468  
  7680.000000   1578729   1577882   1576961   1576063   1575320  
  7670.000000   1574854   1574723   1574911   1575326   1575844  
  7660.000000   1576351   1576776   1577103   1577350   1577548  
  7650.000000   1577704   1577809   1577838   1577787   1577673  
  7640.000000   1577551   1577475   1577482   1577555   1577630  
  7630.000000   1577621   1577458   1577137   1576728   1576367  
  7620.000000   1576199   1576339   1576813   1577563   1578453  
  7610.000000   1579325   1580041   1580517   1580745   1580759  
  7600.000000   1580629   1580411   1580151   1579864   1579555  
  7590.000000   1579223   1578875   1578532   1578230   1578021  
  7580.000000   1577965   1578130   1578566   1579304   1580326  
  7570.000000   1581565   1582907   1584207   1585331   1586180  
  7560.000000   1586725   1586995   1587077   1587065   1587055  
  7550.000000   1587099   1587217   1587395   1587611   1587846  
  7540.000000   1588101   1588389   1588732   1589152   1589664  
  7530.000000   1590273   1590979   1591772   1592645   1593575  
  7520.000000   1594548   1595535   1596523   1597495   1598457  
  7510.000000   1599416   1600389   1601385   1602413   1603472  
  7500.000000   1604566   1605702   1606900   1608177   1609544  
  7490.000000   1610990   1612477   1613945   1615325   1616564  
  7480.000000   1617645   1618591   1619467   1620350   1621318  
  7470.000000   1622410   1623628   1624926   1626241   1627498  
  7460.000000   1628653   1629686   1630629   1631536   1632489  
  7450.000000   1633563   1634817   1636279   1637954   1639818  
  7440.000000   1641838   1643976   1646202   1648486   1650800  
  7430.000000   1653099   1655329   1657422   1659327   1661014  
  7420.000000   1662501   1663848   1665151   1666510   1667994  
  7410.000000   1669630   1671387   1673202   1674999   1676728  
  7400.000000   1678377   1679977   1681580   1683232   1684953  
  7390.000000   1686725   1688500   1690217   1691832   1693331  
  7380.000000   1694742   1696122   1697545   1699076   1700758  
  7370.000000   1702595   1704558   1706592   1708622   1710580  
  7360.000000   1712417   1714125   1715733   1717307   1718924  
  7350.000000   1720648   1722503   1724460   1726441   1728344  
  7340.000000   1730086   1731625   1732974   1734197   1735374  
  7330.000000   1736587   1737886   1739296   1740812   1742426  
  7320.000000   1744128   1745910   1747756   1749628   1751456  
  7310.000000   1753158   1754656   1755911   1756945   1757837  
  7300.000000   1758704   1759664   1760804   1762152   1763680  
  7290.000000   1765323   1767000   1768645   1770213   1771680  
  7280.000000   1773039   1774287   1775436   1776509   1777556  
  7270.000000   1778644   1779851   1781236   1782823   1784584  
  7260.000000   1786450   1788325   1790125   1791784   1793291  
  7250.000000   1794656   1795921   1797115   1798270   1799396  
  7240.000000   1800521   1801673   1802913   1804307   1805930  
  7230.000000   1807832   1810035   1812525   1815274   1818230  
  7220.000000   1821352   1824578   1827862   1831123   1834294  
  7210.000000   1837289   1840070   1842628   1845028   1847375  
  7200.000000   1849810   1852458   1855409   1858683   1862242  
  7190.000000   1865992   1869820   1873608   1877271   1880747  
  7180.000000   1884023   1887103   1890031   1892854   1895647  
  7170.000000   1898473   1901410   1904506   1907801   1911286  
  7160.000000   1914938   1918707   1922557   1926467   1930461  
  7150.000000   1934577   1938881   1943398   1948131   1953000  
  7140.000000   1957903   1962698   1967301   1971670   1975880  
  7130.000000   1980054   1984372   1988977   1993969   1999340  
  7120.000000   2005015   2010858   2016748   2022606   2028437  
  7110.000000   2034300   2040287   2046451   2052797   2059241  
  7100.000000   2065666   2071927   2077942   2083684   2089219  
  7090.000000   2094654   2100117   2105699   2111441   2117328  
  7080.000000   2123307   2129317   2135312   2141274   2147217  
  7070.000000   2153166   2159145   2165165   2171215   2177274  
  7060.000000   2183315   2189317   2195273   2201188   2207074  
  7050.000000   2212939   2218783   2224589   2230326   2235962  
  7040.000000   2241469   2246847   2252114   2257320   2262522  
  7030.000000   2267777   2273111   2278527   2283988   2289449  
  7020.000000   2294851   2300156   2305334   2310381   2315293  
  7010.000000   2320074   2324723   2329249   2333662   2337995  
  7000.000000   2342274   2346534   2350780   2355006   2359177  
  6990.000000   2363270   2367261   2371166   2375011   2378843  
  6980.000000   2382680   2386526   2390340   2394077   2397690  
  6970.000000   2401172   2404535   2407824   2411067   2414282  
  6960.000000   2417441   2420511   2423451   2426269   2428992  
  6950.000000   2431687   2434396   2437138   2439859   2442474  
  6940.000000   2444875   2447003   2448854   2450500   2452047  
  6930.000000   2453606   2455234   2456935   2458653   2460320  
  6920.000000   2461881   2463330   2464695   2466036   2467393  
  6910.000000   2468788   2470195   2471585   2472923   2474204  
  6900.000000   2475447   2476680   2477927   2479180   2480406  
  6890.000000   2481552   2482576   2483461   2484233   2484961  
  6880.000000   2485732   2486641   2487760   2489135   2490766  
  6870.000000   2492618   2494610   2496632   2498560   2500275  
  6860.000000   2501690   2502765   2503519   2504022   2504366  
  6850.000000   2504649   2504939   2505279   2505677   2506140  
  6840.000000   2506665   2507274   2507980   2508799   2509713  
  6830.000000   2510685   2511646   2512526   2513268   2513844  
  6820.000000   2514255   2514535   2514730   2514894   2515075  
  6810.000000   2515313   2515630   2516038   2516517   2517035  
  6800.000000   2517537   2517976   2518317   2518560   2518730  
  6790.000000   2518874   2519033   2519225   2519435   2519624  
  6780.000000   2519748   2519786   2519748   2519679   2519633  
  6770.000000   2519647   2519724   2519832   2519915   2519928  
  6760.000000   2519852   2519703   2519526   2519363   2519242  
  6750.000000   2519162   2519109   2519064   2519034   2519043  
  6740.000000   2519128   2519317   2519607   2519958   2520308  
  6730.000000   2520596   2520791   2520905   2520988   2521108  
  6720.000000   2521318   2521640   2522054   2522519   2522983  
  6710.000000   2523415   2523798   2524135   2524426   2524664  
  6700.000000   2524826   2524887   2524826   2524649   2524375  
  6690.000000   2524050   2523711   2523394   2523104   2522837  
  6680.000000   2522564   2522260   2521887   2521423   2520842  
  6670.000000   2520137   2519312   2518398   2517435   2516481  
  6660.000000   2515579   2514762   2514026   2513354   2512708  
  6650.000000   2512065   2511412   2510759   2510117   2509498  
  6640.000000   2508884   2508246   2507541   2506737   2505820  
  6630.000000   2504807   2503727   2502616   2501489   2500350  
  6620.000000   2499183   2497978   2496729   2495454   2494172  
  6610.000000   2492906   2491651   2490391   2489086   2487704  
  6600.000000   2486227   2484667   2483054   2481435   2479846  
  6590.000000   2478317   2476852   2475451   2474100   2472785  
  6580.000000   2471485   2470176   2468825   2467406   2465907  
  6570.000000   2464338   2462735   2461148   2459623   2458174  
  6560.000000   2456781   2455389   2453932   2452362   2450674  
  6550.000000   2448914   2447167   2445528   2444075   2442842  
  6540.000000   2441817   2440949   2440166   2439398   2438589  
  6530.000000   2437699   2436709   2435611   2434416   2433139  
  6520.000000   2431809   2430453   2429093   2427737   2426383  
  6510.000000   2425025   2423665   2422327   2421049   2419879  
  6500.000000   2418847   2417946   2417118   2416273   2415305  
  6490.000000   2414136   2412739   2411148   2409446   2407741  
  6480.000000   2406126   2404663   2403369   2402231   2401208  
  6470.000000   2400257   2399329   2398376   2397353   2396221  
  6460.000000   2394962   2393584   2392134   2390671   2389264  
  6450.000000   2387948   2386722   2385541   2384343   2383077  
  6440.000000   2381729   2380339   2378984   2377752   2376713  
  6430.000000   2375884   2375240   2374711   2374227   2373724  
  6420.000000   2373180   2372590   2371982   2371377   2370805  
  6410.000000   2370282   2369830   2369457   2369179   2368991  
  6400.000000   2368877   2368804   2368738   2368649   2368532  
  6390.000000   2368404   2368296   2368238   2368241   2368290  
  6380.000000   2368351   2368380   2368346   2368241   2368079  
  6370.000000   2367888   2367687   2367485   2367268   2367017  
  6360.000000   2366713   2366357   2365959   2365547   2365140  
  6350.000000   2364751   2364373   2363998   2363610   2363205  
  6340.000000   2362779   2362335   2361864   2361355   2360791  
  6330.000000   2360163   2359475   2358748   2358010   2357288  
  6320.000000   2356585   2355886   2355155   2354358   2353469  
  6310.000000   2352497   2351471   2350440   2349442   2348501  
  6300.000000   2347611   2346748   2345875   2344959   2343976  
  6290.000000   2342915   2341771   2340549   2339255   2337910  
  6280.000000   2336540   2335189   2333896   2332693   2331584  
  6270.000000   2330551   2329545   2328514   2327409   2326210  
  6260.000000   2324916   2323551   2322146   2320726   2319305  
  6250.000000   2317883   2316456   2315018   2313569   2312112  
  6240.000000   2310653   2309196   2307745   2306305   2304886  
  6230.000000   2303505   2302179   2300919   2299726   2298581  
  6220.000000   2297458   2296322   2295150   2293933   2292680  
  6210.000000   2291413   2290161   2288944   2287775   2286652  
  6200.000000   2285567   2284504   2283452   2282398   2281337  
  6190.000000   2280269   2279200   2278138   2277096   2276081  
  6180.000000   2275096   2274135   2273182   2272225   2271254  
  6170.000000   2270276   2269304   2268362   2267464   2266612  
  6160.000000   2265787   2264957   2264088   2263157   2262160  
  6150.000000   2261113   2260041   2258964   2257888   2256804  
  6140.000000   2255700   2254567   2253415   2252271   2251176  
  6130.000000   2250164   2249254   2248435   2247680   2246948  
  6120.000000   2246208   2245444   2244663   2243879   2243116  
  6110.000000   2242385   2241694   2241037   2240414   2239820  
  6100.000000   2239259   2238729   2238233   2237758   2237296  
  6090.000000   2236836   2236380   2235938   2235536   2235196  
  6080.000000   2234943   2234782   2234713   2234719   2234788  
  6070.000000   2234898   2235043   2235205   2235382   2235561  
  6060.000000   2235747   2235942   2236174   2236463   2236853  
  6050.000000   2237359   2238002   2238764   2239633   2240577  
  6040.000000   2241586   2242653   2243804   2245063   2246471  
  6030.000000   2248045   2249801   2251718   2253775   2255922  
  6020.000000   2258124   2260335   2262536   2264706   2266859  
  6010.000000   2269002   2271168   2273374   2275649   2277993  
  6000.000000   2280417   2282903   2285458   2288075   2290772  
  5990.000000   2293556   2296449   2299449   2302564   2305777  
  5980.000000   2309090   2312493   2316002   2319623   2323375  
  5970.000000   2327248   2331234   2335296   2339410   2343545  
  5960.000000   2347702   2351882   2356114   2360406   2364773  
  5950.000000   2369201   2373682   2378195   2382747   2387348  
  5940.000000   2392027   2396810   2401714   2406733   2411840  
  5930.000000   2416995   2422146   2427250   2432264   2437160  
  5920.000000   2441908   2446490   2450885   2455086   2459092  
  5910.000000   2462915   2466563   2470052   2473380   2476559  
  5900.000000   2479590   2482507   2485342   2488166   2491026  
  5890.000000   2493980   2497028   2500156   2503299   2506395  
  5880.000000   2509372   2512190   2514823   2517273   2519549  
  5870.000000   2521668   2523647   2525508   2527282   2529010  
  5860.000000   2530741   2532520   2534383   2536350   2538429  
  5850.000000   2540621   2542929   2545356   2547902   2550557  
  5840.000000   2553293   2556062   2558821   2561528   2564177  
  5830.000000   2566783   2569390   2572036   2574747   2577512  
  5820.000000   2580300   2583059   2585753   2588366   2590914  
  5810.000000   2593433   2595955   2598510   2601084   2603671  
  5800.000000   2606229   2608758   2611237   2613695   2616122  
  5790.000000   2618531   2620868   2623086   2625078   2626754  
  5780.000000   2627987   2628688   2628758   2628160   2626876  
  5770.000000   2624975   2622558   2619804   2616889   2614006  
  5760.000000   2611274   2608780   2606512   2604444   2602504  
  5750.000000   2600655   2598866   2597149   2595520   2594001  
  5740.000000   2592593   2591280   2590033   2588813   2587596  
  5730.000000   2586355   2585089   2583792   2582475   2581145  
  5720.000000   2579819   2578512   2577242   2576019   2574847  
  5710.000000   2573718   2572626   2571560   2570523   2569523  
  5700.000000   2568575   2567688   2566861   2566079   2565313  
  5690.000000   2564543   2563752   2562948   2562142   2561360  
  5680.000000   2560604   2559869   2559111   2558283   2557317  
  5670.000000   2556158   2554753   2553074   2551100   2548838  
  5660.000000   2546308   2543562   2540667   2537715   2534788  
  5650.000000   2531963   2529279   2526752   2524365   2522092  
  5640.000000   2519906   2517792   2515744   2513759   2511834  
  5630.000000   2509955   2508112   2506289   2504494   2502737  
  5620.000000   2501050   2499454   2497969   2496585   2495291  
  5610.000000   2494055   2492860   2491692   2490559   2489467  
  5600.000000   2488433   2487458   2486547   2485693   2484896  
  5590.000000   2484150   2483454   2482798   2482166   2481533  
  5580.000000   2480872   2480167   2479416   2478632   2477837  
  5570.000000   2477050   2476273   2475493   2474682   2473813  
  5560.000000   2472871   2471858   2470796   2469711   2468627  
  5550.000000   2467553   2466486   2465416   2464334   2463242  
  5540.000000   2462151   2461080   2460038   2459032   2458055  
  5530.000000   2457099   2456152   2455213   2454279   2453349  
  5520.000000   2452419   2451478   2450516   2449526   2448506  
  5510.000000   2447467   2446411   2445339   2444235   2443079  
  5500.000000   2441846   2440532   2439154   2437755   2436380  
  5490.000000   2435069   2433825   2432623   2431407   2430120  
  5480.000000   2428718   2427192   2425561   2423869   2422160  
  5470.000000   2420468   2418807   2417178   2415572   2413982  
  5460.000000   2412398   2410812   2409208   2407563   2405857  
  5450.000000   2404077   2402232   2400351   2398480   2396661  
  5440.000000   2394925   2393272   2391694   2390164   2388668  
  5430.000000   2387198   2385760   2384353   2382980   2381628  
  5420.000000   2380296   2378984   2377727   2376564   2375554  
  5410.000000   2374718   2374064   2373545   2373117   2372724  
  5400.000000   2372358   2372025   2371785   2371680   2371760  
  5390.000000   2372019   2372449   2373000   2373660   2374411  
  5380.000000   2375292   2376319   2377538   2378937   2380519  
  5370.000000   2382236   2384084   2386032   2388117   2390339  
  5360.000000   2392758   2395368   2398222   2401303   2404671  
  5350.000000   2408325   2412342   2416719   2421520   2426704  
  5340.000000   2432308   2438273   2444653   2451417   2458648  
  5330.000000   2466316   2474493   2483115   2492227   2501762  
  5320.000000   2511801   2522329   2533487   2545287   2557864  
  5310.000000   2571181   2585310   2600148   2615731   2631968  
  5300.000000   2648930   2666581   2685045   2704313   2724507  
  5290.000000   2745580   2767574   2790355   2813866   2837923  
  5280.000000   2862467   2887390   2912750   2938575   2965009  
  5270.000000   2992100   3019885   3048250   3077023   3105966  
  5260.000000   3134877   3163632   3192206   3220659   3249044  
  5250.000000   3277398   3305621   3333589   3361056   3387888  
  5240.000000   3413927   3439221   3463788   3487807   3511320  
  5230.000000   3534445   3557096   3579253   3600724   3621462  
  5220.000000   3641322   3660370   3678585   3696137   3713052  
  5210.000000   3729478   3745361   3760734   3775435   3789444  
  5200.000000   3802614   3815007   3826585   3837496   3847739  
  5190.000000   3857432   3866511   3875017   3882838   3890018  
  5180.000000   3896488   3902347   3907570   3912262   3916377  
  5170.000000   3919972   3922976   3925436   3927301   3928647  
  5160.000000   3929445   3929765   3929562   3928888   3927701  
  5150.000000   3926076   3924019   3921641   3918965   3916076  
  5140.000000   3912949   3909608   3905994   3902123   3897969  
  5130.000000   3893586   3888985   3884224   3879304   3874254  
  5120.000000   3869056   3863736   3858301   3852798   3847255  
  5110.000000   3841717   3836189   3830681   3825178   3819681  
  5100.000000   3814189   3808723   3803300   3797939   3792640  
  5090.000000   3787397   3782194   3777025   3771893   3766816  
  5080.000000   3761814   3756905   3752082   3747326   3742591  
  5070.000000   3737837   3733017   3728108   3723088   3717960  
  5060.000000   3712713   3707355   3701871   3696266   3690524  
  5050.000000   3684655   3678652   3672528   3666279   3659922  
  5040.000000   3653458   3646910   3640282   3633598   3626859  
  5030.000000   3620075   3613238   3606350   3599407   3592424  
  5020.000000   3585422   3578432   3571486   3564607   3557812  
  5010.000000   3551099   3544473   3537926   3531472   3525118  
  5000.000000   3518899   3512828   3506940   3501234   3495730  
  4990.000000   3490406   3485274   3480310   3475532   3470923  
  4980.000000   3466511   3462285   3458284   3454500   3450977  
  4970.000000   3447703   3444721   3442006   3439589   3437432  
  4960.000000   3435562   3433945   3432620   3431570   3430850  
  4950.000000   3430448   3430420   3430740   3431454   3432524  
  4940.000000   3433992   3435824   3438068   3440692   3443742  
  4930.000000   3447175   3451025   3455241   3459853   3464815  
  4920.000000   3470166   3475877   3481993   3488489   3495402  
  4910.000000   3502700   3510398   3518449   3526841   3535512  
  4900.000000   3544430   3553531   3562783   3572145   3581594  
  4890.000000   3591113   3600675   3610253   3619779   3629197  
  4880.000000   3638401   3647329   3655874   3664001   3671625  
  4870.000000   3678736   3685256   3691183   3696446   3701061  
  4860.000000   3704985   3708274   3710925   3713024   3714582  
  4850.000000   3715681   3716324   3716586   3716476   3716078  
  4840.000000   3715424   3714605   3713663   3712678   3711675  
  4830.000000   3710703   3709771   3708901   3708095   3707364  
  4820.000000   3706710   3706141   3705666   3705296   3705056  
  4810.000000   3704959   3705034   3705281   3705710   3706293  
  4800.000000   3707013   3707830   3708728   3709683   3710703  
  4790.000000   3711790   3712965   3714230   3715592   3717038  
  4780.000000   3718556   3720125   3721732   3723361   3725002  
  4770.000000   3726641   3728268   3729865   3731421   3732924  
  4760.000000   3734369   3735756   3737090   3738378   3739626  
  4750.000000   3740840   3742024   3743183   3744320   3745440  
  4740.000000   3746544   3747635   3748710   3749768   3750806  
  4730.000000   3751827   3752835   3753836   3754839   3755846  
  4720.000000   3756862   3757880   3758903   3759921   3760947  
  4710.000000   3761981   3763053   3764180   3765403   3766748  
  4700.000000   3768261   3769968   3771908   3774093   3776548  
  4690.000000   3779265   3782245   3785461   3788895   3792500  
  4680.000000   3796242   3800058   3803907   3807720   3811461  
  4670.000000   3815082   3818581   3821953   3825245   3828494  
  4660.000000   3831771   3835131   3838636   3842323   3846227  
  4650.000000   3850354   3854705   3859260   3863993   3868870  
  4640.000000   3873853   3878909   3884004   3889121   3894236  
  4630.000000   3899337   3904396   3909390   3914274   3919014  
  4620.000000   3923555   3927864   3931896   3935637   3939056  
  4610.000000   3942162   3944936   3947406   3949572   3951479  
  4600.000000   3953140   3954613   3955911   3957084   3958131  
  4590.000000   3959080   3959906   3960616   3961168   3961557  
  4580.000000   3961738   3961707   3961436   3960939   3960213  
  4570.000000   3959299   3958216   3957014   3955713   3954347  
  4560.000000   3952916   3951431   3949879   3948267   3946588  
  4550.000000   3944861   3943094   3941311   3939518   3937725  
  4540.000000   3935929   3934129   3932321   3930510   3928705  
  4530.000000   3926917   3925158   3923427   3921728   3920043  
  4520.000000   3918378   3916718   3915095   3913512   3912032  
  4510.000000   3910668   3909494   3908521   3907830   3907431  
  4500.000000   3907418   3907807   3908701   3910113   3912136  
  4490.000000   3914755   3918043   3921963   3926573   3931828  
  4480.000000   3937780   3944379   3951669   3959584   3968148  
  4470.000000   3977277   3986981   3997169   4007843   4018916  
  4460.000000   4030387   4042171   4054259   4066569   4079086  
  4450.000000   4091741   4104530   4117417   4130417   4143529  
  4440.000000   4156773   4170158   4183676   4197316   4211028  
  4430.000000   4224775   4238474   4252078   4265496   4278688  
  4420.000000   4291567   4304108   4316233   4327930   4339123  
  4410.000000   4349797   4359873   4369333   4378106   4386204  
  4400.000000   4393603   4400381   4406587   4412361   4417799  
  4390.000000   4423056   4428217   4433402   4438648   4444017  
  4380.000000   4449501   4455118   4460837   4466659   4472551  
  4370.000000   4478517   4484532   4490596   4496679   4502768  
  4360.000000   4508819   4514814   4520703   4526485   4532100  
  4350.000000   4537565   4542798   4547826   4552565   4557069  
  4340.000000   4561293   4565312   4569061   4572502   4575377  
  4330.000000   4577378   4578016   4576841   4573452   4567712  
  4320.000000   4559753   4550055   4539304   4528320   4517835  
  4310.000000   4508424   4500379   4493771   4488460   4484236  
  4300.000000   4480872   4478194   4476104   4474530   4473456  
  4290.000000   4472819   4472607   4472745   4473241   4474065  
  4280.000000   4475256   4476813   4478744   4481013   4483552  
  4270.000000   4486280   4489082   4491846   4494408   4496586  
  4260.000000   4498127   4498767   4498235   4496339   4492997  
  4250.000000   4488307   4482506   4475984   4469153   4462448  
  4240.000000   4456173   4450549   4445617   4441344   4437584  
  4230.000000   4434190   4430996   4427875   4424733   4421512  
  4220.000000   4418208   4414827   4411443   4408116   4404968  
  4210.000000   4402074   4399540   4397396   4395672   4394322  
  4200.000000   4393306   4392539   4391970   4391530   4391207  
  4190.000000   4390963   4390818   4390745   4390768   4390855  
  4180.000000   4391031   4391274   4391633   4392112   4392790  
  4170.000000   4393693   4394908   4396455   4398404   4400752  
  4160.000000   4403543   4406747   4410393   4414436   4418901  
  4150.000000   4423739   4428985   4434596   4440619   4447019  
  4140.000000   4453847   4461063   4468709   4476728   4485145  
  4130.000000   4493896   4503006   4512425   4522199   4532310  
  4120.000000   4542823   4553737   4565119   4576966   4589332  
  4110.000000   4602202   4615610   4629517   4643913   4658718  
  4100.000000   4673872   4689263   4704820   4720460   4736153  
  4090.000000   4751879   4767647   4783466   4799328   4815224  
  4080.000000   4831106   4846948   4862682   4878291   4893696  
  4070.000000   4908874   4923719   4938196   4952187   4965680  
  4060.000000   4978592   4990959   5002730   5013963   5024595  
  4050.000000   5034673   5044124   5053002   5061248   5068936  
  4040.000000   5076010   5082535   5088439   5093777   5098486  
  4030.000000   5102642   5106212   5109284   5111828   5113900  
  4020.000000   5115428   5116462   5116993   5117096   5116751  
  4010.000000   5116074   5115119   5113875   5112132   5109895  
  4000.000000   5107400  
##END= 
