##TITLE= Sample 051 By ssteindl date Dienstag, November 20 2018
##JCAMP-DX= 4.24
##DATA TYPE= INFRARED SPECTRUM
##ORIGIN= Exported PE Spectrum Data File
##OWNER= Sandra Steindl
##DATE= 18/11/20
##TIME= 12:17:26.00
##SPECTROMETER/DATA SYSTEM= PERKIN-ELMER Frontier FT-IR/NIR IR
##INSTRUMENT PARAMETERS=
  APODIZATION=stark
  DETECTOR=INGAAS
##RESOLUTION= 16.000000
##DELTAX= -2.000000
##XUNITS= 1/CM
##YUNITS= A
##XFACTOR= 1.00
##YFACTOR= 0.00000011920928955078
##FIRSTX= 10000.00
##LASTX= 4000.00
##NPOINTS= 3001
##FIRSTY= 0.197431
##MAXY= 0.590704
##MINY= 0.171625
##XYDATA= (X++(Y..Y))
 10000.000000   1656170   1653312   1651327   1651267   1652955  
  9990.000000   1655433   1657966   1660289   1662226   1663528  
  9980.000000   1664013   1663393   1661193   1656870   1650236  
  9970.000000   1641596   1631848   1622280   1614259   1608815  
  9960.000000   1606281   1606307   1607903   1609942   1611433  
  9950.000000   1611910   1611483   1610693   1610254   1610606  
  9940.000000   1611773   1613168   1613911   1613014   1609919  
  9930.000000   1604638   1597937   1591072   1585457   1582252  
  9920.000000   1581986   1584488   1588928   1594172   1599101  
  9910.000000   1602961   1605452   1606700   1607033   1606788  
  9900.000000   1606222   1605446   1604604   1603804   1603212  
  9890.000000   1602838   1602511   1601822   1600280   1597577  
  9880.000000   1593812   1589642   1586126   1584429   1585333  
  9870.000000   1588928   1594447   1600562   1605796   1609107  
  9860.000000   1610201   1609586   1608308   1607431   1607685  
  9850.000000   1609112   1611206   1613063   1613806   1612833  
  9840.000000   1609988   1605590   1600288   1595015   1590755  
  9830.000000   1588494   1588932   1592323   1598243   1605575  
  9820.000000   1612700   1617918   1619965   1618446   1613929  
  9810.000000   1607791   1601693   1597062   1594677   1594533  
  9800.000000   1596032   1598309   1600529   1602113   1602631  
  9790.000000   1601824   1599431   1595355   1589778   1583312  
  9780.000000   1577014   1572023   1569234   1568733   1569790  
  9770.000000   1570934   1570639   1567892   1562720   1556227  
  9760.000000   1550171   1546338   1545840   1548828   1554592  
  9750.000000   1561971   1569916   1577741   1585169   1592029  
  9740.000000   1597935   1602193   1603949   1602657   1598499  
  9730.000000   1592559   1586599   1582432   1581219   1582968  
  9720.000000   1586461   1589772   1590931   1588743   1583124  
  9710.000000   1575118   1566385   1558588   1552829   1549434  
  9700.000000   1548079   1548109   1548904   1550023   1551252  
  9690.000000   1552470   1553583   1554501   1555187   1555729  
  9680.000000   1556338   1557267   1558724   1560694   1562972  
  9670.000000   1565161   1566872   1567872   1568159   1567948  
  9660.000000   1567468   1566863   1566062   1564906   1563229  
  9650.000000   1561063   1558616   1556255   1554288   1552852  
  9640.000000   1551805   1550798   1549410   1547313   1544416  
  9630.000000   1540816   1536805   1532646   1528616   1524860  
  9620.000000   1521549   1518826   1516901   1515960   1516137  
  9610.000000   1517464   1519869   1523255   1527510   1532593  
  9600.000000   1538440   1544924   1551752   1558430   1564356  
  9590.000000   1568912   1571693   1572550   1571668   1569394  
  9580.000000   1566150   1562270   1557985   1553479   1548946  
  9570.000000   1544713   1541125   1538577   1537248   1537174  
  9560.000000   1538109   1539739   1541702   1543733   1545669  
  9550.000000   1547371   1548713   1549460   1549387   1548301  
  9540.000000   1546206   1543338   1540121   1537100   1534734  
  9530.000000   1533365   1533121   1534001   1535872   1538504  
  9520.000000   1541519   1544338   1546220   1546350   1544122  
  9510.000000   1539349   1532481   1524548   1516955   1511080  
  9500.000000   1507879   1507651   1509971   1513940   1518460  
  9490.000000   1522617   1525839   1527951   1529060   1529359  
  9480.000000   1529050   1528227   1526991   1525422   1523669  
  9470.000000   1521879   1520188   1518690   1517438   1516543  
  9460.000000   1516133   1516407   1517453   1519203   1521310  
  9450.000000   1523207   1524264   1523975   1522215   1519244  
  9440.000000   1515711   1512336   1509719   1508071   1507230  
  9430.000000   1506797   1506362   1505762   1505087   1504732  
  9420.000000   1505123   1506639   1509371   1513148   1517538  
  9410.000000   1521957   1525799   1528449   1529426   1528346  
  9400.000000   1525107   1519894   1513266   1506080   1499299  
  9390.000000   1493819   1490177   1488548   1488660   1490060  
  9380.000000   1492206   1494715   1497323   1499847   1502012  
  9370.000000   1503374   1503399   1501622   1497947   1492697  
  9360.000000   1486685   1480920   1476390   1473696   1472899  
  9350.000000   1473525   1474774   1475839   1476162   1475560  
  9340.000000   1474212   1472506   1470921   1469835   1469481  
  9330.000000   1469867   1470858   1472215   1473704   1475133  
  9320.000000   1476418   1477632   1478992   1480814   1483341  
  9310.000000   1486595   1490267   1493757   1496340   1497380  
  9300.000000   1496579   1494085   1490503   1486672   1483402  
  9290.000000   1481204   1480173   1480049   1480351   1480631  
  9280.000000   1480579   1480191   1479657   1479329   1479493  
  9270.000000   1480349   1481923   1484118   1486710   1489336  
  9260.000000   1491558   1492876   1492904   1491410   1488449  
  9250.000000   1484340   1479633   1474964   1470905   1467825  
  9240.000000   1465845   1464901   1464815   1465422   1466562  
  9230.000000   1468109   1469897   1471714   1473323   1474504  
  9220.000000   1475179   1475391   1475336   1475207   1475138  
  9210.000000   1475117   1475033   1474767   1474302   1473800  
  9200.000000   1473556   1473861   1474829   1476305   1477872  
  9190.000000   1478961   1479053   1477895   1475611   1472682  
  9180.000000   1469753   1467447   1466181   1466116   1467142  
  9170.000000   1468978   1471240   1473546   1475539   1476911  
  9160.000000   1477409   1476895   1475421   1473236   1470742  
  9150.000000   1468373   1466479   1465209   1464485   1464070  
  9140.000000   1463680   1463152   1462481   1461831   1461405  
  9130.000000   1461335   1461599   1462004   1462268   1462121  
  9120.000000   1461421   1460211   1458702   1457192   1455954  
  9110.000000   1455202   1455044   1455486   1456420   1457648  
  9100.000000   1458915   1459907   1460329   1459930   1458631  
  9090.000000   1456523   1453883   1451069   1448441   1446282  
  9080.000000   1444748   1443893   1443705   1444191   1445396  
  9070.000000   1447333   1449911   1452854   1455728   1457976  
  9060.000000   1459078   1458725   1456987   1454303   1451397  
  9050.000000   1449089   1448085   1448783   1451119   1454639  
  9040.000000   1458578   1462112   1464501   1465321   1464546  
  9030.000000   1462532   1459888   1457260   1455162   1453780  
  9020.000000   1452965   1452275   1451209   1449422   1446910  
  9010.000000   1444057   1441482   1439875   1439694   1441030  
  9000.000000   1443533   1446570   1449465   1451678   1452982  
  8990.000000   1453429   1453311   1452954   1452604   1452342  
  8980.000000   1452157   1451991   1451840   1451758   1451850  
  8970.000000   1452201   1452797   1453544   1454272   1454844  
  8960.000000   1455185   1455333   1455397   1455504   1455721  
  8950.000000   1456029   1456313   1456447   1456343   1456013  
  8940.000000   1455563   1455156   1454959   1455058   1455422  
  8930.000000   1455883   1456163   1455962   1455047   1453348  
  8920.000000   1451028   1448464   1446190   1444750   1444521  
  8910.000000   1445572   1447570   1449887   1451786   1452674  
  8900.000000   1452319   1450927   1449092   1447546   1446898  
  8890.000000   1447371   1448750   1450455   1451821   1452335  
  8880.000000   1451872   1450693   1449353   1448458   1448435  
  8870.000000   1449388   1451096   1453136   1455079   1456634  
  8860.000000   1457741   1458525   1459216   1460027   1461075  
  8850.000000   1462360   1463801   1465267   1466642   1467822  
  8840.000000   1468741   1469358   1469657   1469688   1469545  
  8830.000000   1469401   1469441   1469843   1470706   1472020  
  8820.000000   1473672   1475448   1477107   1478402   1479143  
  8810.000000   1479213   1478604   1477427   1475914   1474421  
  8800.000000   1473359   1473154   1474111   1476346   1479694  
  8790.000000   1483748   1487926   1491608   1494273   1495608  
  8780.000000   1495579   1494396   1492455   1490217   1488152  
  8770.000000   1486634   1485921   1486107   1487121   1488755  
  8760.000000   1490674   1492520   1493953   1494789   1495019  
  8750.000000   1494847   1494606   1494654   1495263   1496500  
  8740.000000   1498232   1500140   1501858   1503075   1503651  
  8730.000000   1503627   1503202   1502645   1502212   1502071  
  8720.000000   1502280   1502783   1503481   1504250   1505014  
  8710.000000   1505728   1506406   1507081   1507802   1508621  
  8700.000000   1509570   1510685   1511981   1513484   1515207  
  8690.000000   1517173   1519400   1521886   1524594   1527409  
  8680.000000   1530154   1532567   1534371   1535317   1535275  
  8670.000000   1534290   1532600   1530631   1528899   1527918  
  8660.000000   1528045   1529407   1531844   1534962   1538225  
  8650.000000   1541081   1543110   1544083   1544036   1543199  
  8640.000000   1541961   1540722   1539838   1539554   1540016  
  8630.000000   1541271   1543294   1546026   1549370   1553205  
  8620.000000   1557328   1561475   1565330   1568576   1570978  
  8610.000000   1572419   1572979   1572878   1572461   1572081  
  8600.000000   1572030   1572469   1573402   1574719   1576237  
  8590.000000   1577806   1579323   1580785   1582231   1583729  
  8580.000000   1585301   1586920   1588500   1589936   1591155  
  8570.000000   1592144   1592980   1593783   1594685   1595765  
  8560.000000   1597027   1598386   1599703   1600836   1601694  
  8550.000000   1602269   1602631   1602912   1603254   1603780  
  8540.000000   1604558   1605611   1606923   1608458   1610164  
  8530.000000   1611976   1613807   1615552   1617093   1618329  
  8520.000000   1619211   1619766   1620098   1620362   1620721  
  8510.000000   1621291   1622107   1623116   1624206   1625245  
  8500.000000   1626134   1626826   1627345   1627745   1628097  
  8490.000000   1628452   1628846   1629303   1629863   1630586  
  8480.000000   1631556   1632856   1634530   1636569   1638897  
  8470.000000   1641390   1643898   1646286   1648457   1650361  
  8460.000000   1651988   1653350   1654475   1655395   1656148  
  8450.000000   1656778   1657337   1657876   1658424   1658997  
  8440.000000   1659566   1660108   1660589   1661014   1661404  
  8430.000000   1661812   1662285   1662847   1663480   1664124  
  8420.000000   1664696   1665121   1665356   1665410   1665325  
  8410.000000   1665192   1665103   1665160   1665430   1665966  
  8400.000000   1666783   1667859   1669103   1670362   1671431  
  8390.000000   1672090   1672159   1671544   1670293   1668592  
  8380.000000   1666737   1665057   1663820   1663180   1663126  
  8370.000000   1663528   1664165   1664829   1665377   1665770  
  8360.000000   1666053   1666311   1666608   1666948   1667263  
  8350.000000   1667438   1667362   1666981   1666335   1665564  
  8340.000000   1664866   1664446   1664422   1664812   1665489  
  8330.000000   1666233   1666764   1666829   1666277   1665092  
  8320.000000   1663409   1661450   1659480   1657721   1656301  
  8310.000000   1655239   1654462   1653870   1653388   1653018  
  8300.000000   1652833   1652947   1653438   1654300   1655392  
  8290.000000   1656480   1657293   1657613   1657370   1656655  
  8280.000000   1655707   1654796   1654129   1653758   1653558  
  8270.000000   1653289   1652673   1651545   1649908   1647981  
  8260.000000   1646094   1644592   1643678   1643359   1643420  
  8250.000000   1643504   1643229   1642314   1640678   1638439  
  8240.000000   1635877   1633312   1631020   1629154   1627733  
  8230.000000   1626670   1625835   1625123   1624485   1623948  
  8220.000000   1623563   1623390   1623429   1623631   1623888  
  8210.000000   1624066   1624040   1623723   1623081   1622130  
  8200.000000   1620920   1619518   1617984   1616368   1614709  
  8190.000000   1613030   1611349   1609663   1607954   1606179  
  8180.000000   1604287   1602247   1600063   1597814   1595642  
  8170.000000   1593764   1592403   1591744   1591853   1592642  
  8160.000000   1593865   1595171   1596184   1596592   1596227  
  8150.000000   1595085   1593326   1591198   1588977   1586881  
  8140.000000   1585043   1583492   1582187   1581052   1580001  
  8130.000000   1578968   1577895   1576759   1575538   1574245  
  8120.000000   1572908   1571589   1570363   1569296   1568424  
  8110.000000   1567723   1567116   1566490   1565740   1564803  
  8100.000000   1563691   1562480   1561296   1560251   1559417  
  8090.000000   1558775   1558241   1557683   1556985   1556089  
  8080.000000   1555019   1553884   1552833   1552021   1551549  
  8070.000000   1551444   1551652   1552058   1552519   1552895  
  8060.000000   1553081   1553005   1552639   1551978   1551036  
  8050.000000   1549845   1548464   1546988   1545549   1544314  
  8040.000000   1543443   1543059   1543196   1543775   1544604  
  8030.000000   1545415   1545928   1545926   1545320   1544168  
  8020.000000   1542663   1541071   1539654   1538607   1538012  
  8010.000000   1537842   1537990   1538324   1538718   1539087  
  8000.000000   1539368   1539518   1539484   1539206   1538631  
  7990.000000   1537739   1536581   1535263   1533951   1532805  
  7980.000000   1531943   1531402   1531123   1530989   1530855  
  7970.000000   1530622   1530252   1529791   1529336   1529002  
  7960.000000   1528875   1528977   1529264   1529622   1529911  
  7950.000000   1529974   1529703   1529039   1528018   1526749  
  7940.000000   1525416   1524229   1523383   1523002   1523104  
  7930.000000   1523605   1524332   1525093   1525728   1526161  
  7920.000000   1526417   1526582   1526765   1527017   1527319  
  7910.000000   1527569   1527636   1527426   1526934   1526273  
  7900.000000   1525635   1525244   1525255   1525722   1526559  
  7890.000000   1527575   1528536   1529217   1529473   1529235  
  7880.000000   1528527   1527421   1526034   1524502   1522979  
  7870.000000   1521641   1520662   1520196   1520332   1521073  
  7860.000000   1522307   1523842   1525429   1526831   1527870  
  7850.000000   1528452   1528584   1528332   1527810   1527123  
  7840.000000   1526372   1525626   1524946   1524381   1523978  
  7830.000000   1523781   1523819   1524111   1524640   1525373  
  7820.000000   1526237   1527150   1528010   1528725   1529224  
  7810.000000   1529484   1529532   1529444   1529325   1529273  
  7800.000000   1529342   1529530   1529760   1529928   1529920  
  7790.000000   1529674   1529182   1528503   1527720   1526917  
  7780.000000   1526136   1525370   1524578   1523704   1522719  
  7770.000000   1521627   1520472   1519322   1518246   1517307  
  7760.000000   1516548   1516009   1515726   1515735   1516054  
  7750.000000   1516664   1517496   1518412   1519241   1519795  
  7740.000000   1519932   1519577   1518760   1517590   1516247  
  7730.000000   1514926   1513806   1513013   1512601   1512560  
  7720.000000   1512813   1513259   1513776   1514263   1514641  
  7710.000000   1514877   1514963   1514919   1514770   1514537  
  7700.000000   1514236   1513875   1513468   1513033   1512593  
  7690.000000   1512163   1511738   1511290   1510769   1510128  
  7680.000000   1509343   1508435   1507472   1506555   1505786  
  7670.000000   1505236   1504927   1504830   1504889   1505038  
  7660.000000   1505232   1505442   1505655   1505851   1506003  
  7650.000000   1506070   1506024   1505858   1505609   1505344  
  7640.000000   1505145   1505072   1505151   1505357   1505637  
  7630.000000   1505924   1506171   1506353   1506468   1506522  
  7620.000000   1506519   1506466   1506383   1506314   1506333  
  7610.000000   1506519   1506927   1507544   1508285   1508995  
  7600.000000   1509515   1509726   1509605   1509227   1508747  
  7590.000000   1508337   1508137   1508210   1508539   1509055  
  7580.000000   1509678   1510344   1511015   1511663   1512248  
  7570.000000   1512714   1513000   1513076   1512974   1512795  
  7560.000000   1512690   1512802   1513214   1513914   1514799  
  7550.000000   1515711   1516502   1517081   1517443   1517647  
  7540.000000   1517782   1517913   1518080   1518285   1518533  
  7530.000000   1518846   1519283   1519911   1520782   1521892  
  7520.000000   1523181   1524546   1525880   1527114   1528243  
  7510.000000   1529307   1530376   1531493   1532675   1533887  
  7500.000000   1535084   1536229   1537318   1538383   1539469  
  7490.000000   1540620   1541860   1543194   1544610   1546089  
  7480.000000   1547612   1549144   1550632   1551997   1553161  
  7470.000000   1554071   1554742   1555259   1555773   1556440  
  7460.000000   1557371   1558585   1559998   1561467   1562855  
  7450.000000   1564092   1565210   1566318   1567555   1569014  
  7440.000000   1570701   1572521   1574340   1576027   1577525  
  7430.000000   1578858   1580124   1581432   1582863   1584436  
  7420.000000   1586121   1587872   1589664   1591508   1593447  
  7410.000000   1595511   1597695   1599929   1602102   1604091  
  7400.000000   1605824   1607293   1608571   1609769   1611009  
  7390.000000   1612373   1613891   1615547   1617303   1619131  
  7380.000000   1621017   1622970   1624994   1627088   1629221  
  7370.000000   1631348   1633411   1635358   1637151   1638772  
  7360.000000   1640227   1641546   1642784   1644015   1645320  
  7350.000000   1646770   1648398   1650184   1652047   1653871  
  7340.000000   1655545   1657002   1658246   1659350   1660425  
  7330.000000   1661583   1662894   1664367   1665954   1667580  
  7320.000000   1669178   1670713   1672188   1673630   1675070  
  7310.000000   1676519   1677965   1679375   1680715   1681968  
  7300.000000   1683140   1684258   1685366   1686510   1687728  
  7290.000000   1689047   1690476   1692001   1693582   1695162  
  7280.000000   1696671   1698050   1699272   1700355   1701366  
  7270.000000   1702397   1703533   1704813   1706218   1707669  
  7260.000000   1709068   1710327   1711424   1712390   1713323  
  7250.000000   1714325   1715480   1716806   1718272   1719798  
  7240.000000   1721319   1722796   1724260   1725780   1727461  
  7230.000000   1729377   1731569   1734011   1736637   1739338  
  7220.000000   1742021   1744597   1747038   1749346   1751583  
  7210.000000   1753826   1756173   1758695   1761431   1764367  
  7200.000000   1767454   1770619   1773810   1777000   1780215  
  7190.000000   1783496   1786894   1790412   1794015   1797603  
  7180.000000   1801069   1804307   1807282   1810014   1812604  
  7170.000000   1815168   1817845   1820731   1823897   1827357  
  7160.000000   1831101   1835084   1839254   1843543   1847888  
  7150.000000   1852225   1856527   1860786   1865051   1869374  
  7140.000000   1873829   1878430   1883163   1887941   1892679  
  7130.000000   1897292   1901770   1906152   1910551   1915082  
  7120.000000   1919854   1924905   1930223   1935731   1941352  
  7110.000000   1947014   1952691   1958378   1964098   1969862  
  7100.000000   1975675   1981518   1987373   1993213   1999032  
  7090.000000   2004821   2010583   2016316   2022025   2027716  
  7080.000000   2033405   2039107   2044837   2050584   2056318  
  7070.000000   2061982   2067518   2072887   2078094   2083189  
  7060.000000   2088255   2093385   2098653   2104093   2109697  
  7050.000000   2115428   2121236   2127080   2132926   2138755  
  7040.000000   2144544   2150274   2155922   2161478   2166946  
  7030.000000   2172347   2177709   2183049   2188356   2193592  
  7020.000000   2198698   2203624   2208338   2212860   2217235  
  7010.000000   2221538   2225830   2230165   2234560   2239024  
  7000.000000   2243548   2248134   2252766   2257432   2262085  
  6990.000000   2266668   2271102   2275329   2279306   2283045  
  6980.000000   2286580   2289973   2293272   2296514   2299699  
  6970.000000   2302826   2305877   2308860   2311778   2314652  
  6960.000000   2317477   2320255   2322961   2325587   2328120  
  6950.000000   2330579   2332977   2335338   2337661   2339940  
  6940.000000   2342151   2344291   2346368   2348419   2350482  
  6930.000000   2352592   2354745   2356904   2359000   2360969  
  6920.000000   2362758   2364363   2365803   2367130   2368386  
  6910.000000   2369606   2370804   2371993   2373190   2374426  
  6900.000000   2375732   2377135   2378623   2380161   2381679  
  6890.000000   2383116   2384429   2385624   2386739   2387838  
  6880.000000   2388971   2390166   2391408   2392665   2393893  
  6870.000000   2395070   2396191   2397273   2398332   2399377  
  6860.000000   2400396   2401367   2402266   2403086   2403839  
  6850.000000   2404553   2405260   2405987   2406740   2407517  
  6840.000000   2408300   2409076   2409832   2410571   2411292  
  6830.000000   2412002   2412701   2413389   2414058   2414699  
  6820.000000   2415289   2415805   2416219   2416519   2416711  
  6810.000000   2416836   2416956   2417146   2417461   2417926  
  6800.000000   2418506   2419131   2419705   2420150   2420420  
  6790.000000   2420523   2420503   2420424   2420340   2420286  
  6780.000000   2420268   2420287   2420342   2420451   2420637  
  6770.000000   2420919   2421290   2421710   2422110   2422409  
  6760.000000   2422543   2422484   2422251   2421903   2421527  
  6750.000000   2421205   2421008   2420973   2421103   2421370  
  6740.000000   2421722   2422097   2422431   2422685   2422846  
  6730.000000   2422941   2423023   2423158   2423399   2423759  
  6720.000000   2424211   2424688   2425112   2425426   2425608  
  6710.000000   2425687   2425722   2425786   2425928   2426168  
  6700.000000   2426483   2426825   2427127   2427330   2427376  
  6690.000000   2427229   2426862   2426284   2425524   2424653  
  6680.000000   2423765   2422964   2422329   2421897   2421637  
  6670.000000   2421469   2421278   2420966   2420470   2419789  
  6660.000000   2418974   2418102   2417244   2416444   2415708  
  6650.000000   2415016   2414332   2413632   2412909   2412177  
  6640.000000   2411458   2410784   2410171   2409633   2409159  
  6630.000000   2408725   2408287   2407786   2407155   2406339  
  6620.000000   2405307   2404071   2402674   2401193   2399701  
  6610.000000   2398261   2396897   2395609   2394372   2393165  
  6600.000000   2391970   2390785   2389595   2388380   2387095  
  6590.000000   2385695   2384149   2382468   2380709   2378966  
  6580.000000   2377336   2375884   2374616   2373477   2372369  
  6570.000000   2371196   2369895   2368459   2366930   2365382  
  6560.000000   2363881   2362467   2361146   2359894   2358677  
  6550.000000   2357466   2356240   2354984   2353687   2352341  
  6540.000000   2350943   2349510   2348078   2346698   2345415  
  6530.000000   2344248   2343175   2342135   2341051   2339857  
  6520.000000   2338525   2337082   2335593   2334137   2332776  
  6510.000000   2331538   2330410   2329353   2328329   2327317  
  6500.000000   2326312   2325327   2324367   2323425   2322477  
  6490.000000   2321497   2320467   2319390   2318288   2317189  
  6480.000000   2316108   2315034   2313933   2312759   2311474  
  6470.000000   2310067   2308561   2307004   2305454   2303960  
  6460.000000   2302547   2301218   2299956   2298736   2297534  
  6450.000000   2296332   2295124   2293908   2292698   2291512  
  6440.000000   2290380   2289325   2288372   2287520   2286755  
  6430.000000   2286040   2285343   2284634   2283908   2283177  
  6420.000000   2282472   2281814   2281220   2280684   2280197  
  6410.000000   2279746   2279339   2278993   2278735   2278580  
  6400.000000   2278522   2278523   2278531   2278489   2278364  
  6390.000000   2278148   2277869   2277565   2277281   2277040  
  6380.000000   2276849   2276699   2276573   2276463   2276365  
  6370.000000   2276284   2276222   2276174   2276125   2276057  
  6360.000000   2275951   2275797   2275594   2275347   2275062  
  6350.000000   2274749   2274416   2274077   2273743   2273432  
  6340.000000   2273144   2272870   2272575   2272217   2271750  
  6330.000000   2271151   2270419   2269592   2268718   2267854  
  6320.000000   2267036   2266277   2265559   2264857   2264138  
  6310.000000   2263388   2262603   2261794   2260969   2260136  
  6300.000000   2259291   2258430   2257546   2256637   2255699  
  6290.000000   2254729   2253717   2252654   2251534   2250363  
  6280.000000   2249157   2247952   2246774   2245647   2244568  
  6270.000000   2243519   2242465   2241378   2240235   2239033  
  6260.000000   2237776   2236476   2235135   2233754   2232328  
  6250.000000   2230865   2229383   2227916   2226496   2225148  
  6240.000000   2223868   2222632   2221398   2220127   2218793  
  6230.000000   2217395   2215948   2214476   2212999   2211527  
  6220.000000   2210063   2208609   2207180   2205800   2204498  
  6210.000000   2203295   2202193   2201172   2200194   2199218  
  6200.000000   2198219   2197191   2196150   2195120   2194123  
  6190.000000   2193160   2192221   2191281   2190322   2189332  
  6180.000000   2188315   2187281   2186244   2185209   2184179  
  6170.000000   2183154   2182140   2181152   2180209   2179335  
  6160.000000   2178536   2177807   2177124   2176450   2175749  
  6150.000000   2174987   2174143   2173207   2172178   2171062  
  6140.000000   2169877   2168648   2167412   2166209   2165080  
  6130.000000   2164052   2163133   2162312   2161563   2160854  
  6120.000000   2160161   2159466   2158769   2158072   2157385  
  6110.000000   2156710   2156051   2155412   2154805   2154238  
  6100.000000   2153730   2153286   2152909   2152585   2152299  
  6090.000000   2152026   2151755   2151476   2151193   2150905  
  6080.000000   2150621   2150340   2150072   2149823   2149616  
  6070.000000   2149468   2149408   2149442   2149579   2149802  
  6060.000000   2150101   2150453   2150855   2151301   2151803  
  6050.000000   2152360   2152982   2153659   2154395   2155182  
  6040.000000   2156038   2156974   2158018   2159183   2160485  
  6030.000000   2161916   2163469   2165118   2166852   2168644  
  6020.000000   2170484   2172346   2174223   2176094   2177966  
  6010.000000   2179842   2181755   2183723   2185785   2187944  
  6000.000000   2190208   2192553   2194971   2197446   2199993  
  5990.000000   2202624   2205375   2208259   2211293   2214462  
  5980.000000   2217759   2221163   2224682   2228317   2232093  
  5970.000000   2236009   2240067   2244226   2248449   2252674  
  5960.000000   2256871   2261013   2265114   2269189   2273278  
  5950.000000   2277402   2281590   2285849   2290190   2294610  
  5940.000000   2299107   2303672   2308286   2312931   2317580  
  5930.000000   2322218   2326829   2331413   2335965   2340483  
  5920.000000   2344947   2349330   2353590   2357688   2361585  
  5910.000000   2365263   2368707   2371929   2374942   2377783  
  5900.000000   2380488   2383121   2385732   2388387   2391114  
  5890.000000   2393930   2396801   2399682   2402502   2405209  
  5880.000000   2407761   2410155   2412398   2414518   2416536  
  5870.000000   2418472   2420339   2422151   2423931   2425706  
  5860.000000   2427506   2429351   2431247   2433189   2435167  
  5850.000000   2437179   2439241   2441376   2443617   2445979  
  5840.000000   2448459   2451022   2453629   2456239   2458834  
  5830.000000   2461414   2464005   2466627   2469292   2471986  
  5820.000000   2474683   2477351   2479972   2482546   2485090  
  5810.000000   2487630   2490172   2492719   2495242   2497732  
  5800.000000   2500165   2502565   2504944   2507347   2509768  
  5790.000000   2512209   2514598   2516870   2518903   2520604  
  5780.000000   2521852   2522572   2522680   2522155   2520996  
  5770.000000   2519285   2517132   2514709   2512169   2509666  
  5760.000000   2507273   2505036   2502926   2500927   2499009  
  5750.000000   2497192   2495498   2493967   2492603   2491382  
  5740.000000   2490242   2489108   2487918   2486639   2485281  
  5730.000000   2483873   2482461   2481072   2479723   2478408  
  5720.000000   2477131   2475895   2474720   2473621   2472607  
  5710.000000   2471661   2470752   2469837   2468886   2467891  
  5700.000000   2466870   2465861   2464904   2464028   2463237  
  5690.000000   2462525   2461869   2461259   2460676   2460113  
  5680.000000   2459545   2458943   2458255   2457439   2456445  
  5670.000000   2455250   2453838   2452209   2450359   2448288  
  5660.000000   2445993   2443490   2440811   2438029   2435222  
  5650.000000   2432481   2429866   2427408   2425091   2422881  
  5640.000000   2420730   2418608   2416508   2414443   2412442  
  5630.000000   2410528   2408725   2407035   2405466   2404009  
  5620.000000   2402667   2401422   2400261   2399148   2398053  
  5610.000000   2396944   2395815   2394674   2393558   2392500  
  5600.000000   2391536   2390669   2389891   2389167   2388469  
  5590.000000   2387772   2387070   2386364   2385662   2384963  
  5580.000000   2384259   2383536   2382784   2382002   2381202  
  5570.000000   2380399   2379607   2378830   2378054   2377263  
  5560.000000   2376435   2375559   2374635   2373670   2372673  
  5550.000000   2371651   2370604   2369535   2368445   2367348  
  5540.000000   2366258   2365195   2364166   2363169   2362191  
  5530.000000   2361217   2360232   2359240   2358248   2357273  
  5520.000000   2356327   2355414   2354526   2353650   2352767  
  5510.000000   2351864   2350928   2349947   2348904   2347786  
  5500.000000   2346580   2345294   2343950   2342590   2341258  
  5490.000000   2339987   2338778   2337606   2336422   2335177  
  5480.000000   2333837   2332404   2330900   2329374   2327861  
  5470.000000   2326386   2324944   2323519   2322083   2320619  
  5460.000000   2319120   2317585   2316012   2314396   2312724  
  5450.000000   2310987   2309185   2307339   2305487   2303670  
  5440.000000   2301928   2300276   2298720   2297244   2295837  
  5430.000000   2294485   2293185   2291928   2290708   2289505  
  5420.000000   2288314   2287126   2285965   2284860   2283864  
  5410.000000   2283004   2282302   2281730   2281265   2280859  
  5400.000000   2280505   2280198   2279978   2279869   2279911  
  5390.000000   2280099   2280435   2280890   2281471   2282174  
  5380.000000   2283046   2284103   2285382   2286859   2288521  
  5370.000000   2290304   2292191   2294139   2296178   2298309  
  5360.000000   2300596   2303042   2305710   2308593   2311753  
  5350.000000   2315189   2318976   2323111   2327658   2332586  
  5340.000000   2337933   2343647   2349778   2356287   2363245  
  5330.000000   2370618   2378469   2386739   2395476   2404617  
  5320.000000   2414240   2424324   2434997   2446264   2458259  
  5310.000000   2470955   2484440   2498634   2513588   2529218  
  5300.000000   2545589   2562655   2580521   2599171   2618719  
  5290.000000   2639121   2660421   2682489   2705262   2728551  
  5280.000000   2752288   2776358   2800819   2825705   2851172  
  5270.000000   2877281   2904085   2931478   2959296   2987303  
  5260.000000   3015297   3043155   3070849   3098441   3125985  
  5250.000000   3153520   3180953   3208160   3234905   3261048  
  5240.000000   3286431   3311091   3335034   3358422   3381293  
  5230.000000   3403759   3425747   3447248   3468095   3488255  
  5220.000000   3507597   3526184   3543995   3561184   3577772  
  5210.000000   3593897   3609501   3624609   3639058   3652817  
  5200.000000   3665736   3677870   3689186   3699840   3709848  
  5190.000000   3719344   3728276   3736687   3744460   3751618  
  5180.000000   3758074   3763907   3769086   3773710   3777741  
  5170.000000   3781244   3784159   3786545   3788367   3789714  
  5160.000000   3790576   3791039   3791066   3790703   3789892  
  5150.000000   3788675   3787025   3785018   3782662   3780034  
  5140.000000   3777124   3773974   3770552   3766891   3762976  
  5130.000000   3758866   3754572   3750150   3745595   3740931  
  5120.000000   3736134   3731215   3726165   3721020   3715797  
  5110.000000   3710537   3705256   3699974   3694693   3689425  
  5100.000000   3684178   3678977   3673836   3668777   3663797  
  5090.000000   3658893   3654043   3649234   3644450   3639691  
  5080.000000   3634954   3630241   3625544   3620853   3616148  
  5070.000000   3611420   3606649   3601836   3596969   3592049  
  5060.000000   3587054   3581975   3576782   3571465   3566002  
  5050.000000   3560398   3554645   3548758   3542732   3536584  
  5040.000000   3530315   3523948   3517493   3510980   3504417  
  5030.000000   3497821   3491189   3484520   3477804   3471043  
  5020.000000   3464245   3457433   3450634   3443880   3437200  
  5010.000000   3430610   3424129   3417755   3411500   3405358  
  5000.000000   3399340   3393438   3387669   3382025   3376529  
  4990.000000   3371181   3366013   3361026   3356257   3351695  
  4980.000000   3347366   3343244   3339345   3335642   3332165  
  4970.000000   3328898   3325888   3323132   3320677   3318508  
  4960.000000   3316662   3315107   3313876   3312937   3312331  
  4950.000000   3312034   3312097   3312495   3313272   3314391  
  4940.000000   3315888   3317717   3319916   3322443   3325344  
  4930.000000   3328586   3332218   3336212   3340613   3345387  
  4920.000000   3350568   3356114   3362049   3368329   3374973  
  4910.000000   3381945   3389266   3396907   3404880   3413151  
  4900.000000   3421707   3430501   3439496   3448641   3457891  
  4890.000000   3467202   3476525   3485817   3495007   3504043  
  4880.000000   3512837   3521340   3529464   3537186   3544435  
  4870.000000   3551207   3557442   3563145   3568257   3572798  
  4860.000000   3576721   3580069   3582820   3585040   3586728  
  4850.000000   3587964   3588762   3589207   3589321   3589184  
  4840.000000   3588816   3588280   3587586   3586786   3585894  
  4830.000000   3584965   3584029   3583144   3582343   3581662  
  4820.000000   3581112   3580695   3580401   3580220   3580150  
  4810.000000   3580189   3580348   3580624   3581023   3581524  
  4800.000000   3582120   3582790   3583536   3584357   3585279  
  4790.000000   3586312   3587474   3588755   3590143   3591600  
  4780.000000   3593098   3594607   3596117   3597624   3599136  
  4770.000000   3600660   3602196   3603735   3605260   3606751  
  4760.000000   3608191   3609569   3610884   3612141   3613349  
  4750.000000   3614521   3615666   3616792   3617902   3618999  
  4740.000000   3620080   3621140   3622173   3623176   3624145  
  4730.000000   3625085   3626002   3626904   3627804   3628702  
  4720.000000   3629605   3630503   3631399   3632286   3633180  
  4710.000000   3634093   3635061   3636106   3637273   3638579  
  4700.000000   3640059   3641717   3643575   3645631   3647900  
  4690.000000   3650379   3653077   3655981   3659087   3662363  
  4680.000000   3665791   3669321   3672929   3676564   3680204  
  4670.000000   3683809   3687370   3690862   3694298   3697677  
  4660.000000   3701036   3704404   3707840   3711391   3715114  
  4650.000000   3719044   3723208   3727605   3732219   3737018  
  4640.000000   3741960   3747007   3752117   3757261   3762405  
  4630.000000   3767523   3772576   3777536   3782356   3787007  
  4620.000000   3791442   3795636   3799545   3803150   3806413  
  4610.000000   3809336   3811901   3814144   3816084   3817796  
  4600.000000   3819321   3820741   3822083   3823395   3824661  
  4590.000000   3825880   3826991   3827964   3828725   3829247  
  4580.000000   3829485   3829448   3829137   3828603   3827881  
  4570.000000   3827034   3826091   3825093   3824035   3822927  
  4560.000000   3821743   3820484   3819135   3817709   3816207  
  4550.000000   3814653   3813050   3811410   3809725   3807992  
  4540.000000   3806200   3804346   3802431   3800466   3798467  
  4530.000000   3796452   3794442   3792444   3790474   3788526  
  4520.000000   3786615   3784734   3782912   3781152   3779507  
  4510.000000   3777987   3776666   3775556   3774740   3774230  
  4500.000000   3774112   3774396   3775171   3776438   3778282  
  4490.000000   3780692   3783742   3787403   3791738   3796704  
  4480.000000   3802351   3808619   3815544   3823054   3831168  
  4470.000000   3839803   3848969   3858582   3868649   3879095  
  4460.000000   3889931   3901093   3912590   3924360   3936402  
  4450.000000   3948653   3961102   3973698   3986430   3999270  
  4440.000000   4012211   4025240   4038341   4051495   4064663  
  4430.000000   4077813   4090881   4103833   4116594   4129139  
  4420.000000   4141397   4153361   4164969   4176220   4187050  
  4410.000000   4197447   4207327   4216663   4225373   4233450  
  4400.000000   4240859   4247658   4253884   4259660   4265067  
  4390.000000   4270246   4275274   4280267   4285273   4290371  
  4380.000000   4295573   4300918   4306388   4311987   4317678  
  4370.000000   4323454   4329281   4335158   4341059   4346981  
  4360.000000   4352890   4358770   4364564   4370255   4375765  
  4350.000000   4381091   4386143   4390941   4395407   4399599  
  4340.000000   4403479   4407125   4410481   4413523   4416026  
  4330.000000   4417721   4418167   4416958   4413715   4408298  
  4320.000000   4400806   4391661   4381483   4371035   4361006  
  4310.000000   4351959   4344190   4337788   4332640   4328549  
  4300.000000   4325299   4322715   4320690   4319154   4318090  
  4290.000000   4317448   4317227   4317367   4317876   4318720  
  4280.000000   4319918   4321446   4323286   4325386   4327674  
  4270.000000   4330077   4332498   4334850   4336994   4338769  
  4260.000000   4339944   4340274   4339506   4337472   4334106  
  4250.000000   4329515   4323929   4317711   4311232   4304872  
  4240.000000   4298885   4293450   4288590   4284275   4280385  
  4230.000000   4276810   4273426   4270144   4266898   4263644  
  4220.000000   4260383   4257110   4253881   4250731   4247754  
  4210.000000   4245003   4242570   4240480   4238775   4237425  
  4200.000000   4236404   4235632   4235052   4234577   4234174  
  4190.000000   4233794   4233459   4233166   4232978   4232903  
  4180.000000   4232999   4233254   4233706   4234328   4235163  
  4170.000000   4236205   4237524   4239141   4241136   4243524  
  4160.000000   4246362   4249627   4253344   4257461   4261993  
  4150.000000   4266888   4272172   4277804   4283824   4290199  
  4140.000000   4296977   4304121   4311678   4319596   4327903  
  4130.000000   4336532   4345498   4354738   4364287   4374120  
  4120.000000   4384313   4394886   4405939   4417504   4429659  
  4110.000000   4442407   4455776   4469714   4484189   4499099  
  4100.000000   4514364   4529859   4545496   4561180   4576868  
  4090.000000   4592529   4608165   4623790   4639414   4655059  
  4080.000000   4670713   4686386   4702037   4717664   4733182  
  4070.000000   4748551   4763636   4778368   4792598   4806289  
  4060.000000   4819338   4831773   4843539   4854695   4865188  
  4050.000000   4875078   4884311   4892967   4901011   4908534  
  4040.000000   4915490   4921942   4927799   4933093   4937734  
  4030.000000   4941782   4945195   4948073   4950407   4952282  
  4020.000000   4953653   4954587   4955076   4955182   4954867  
  4010.000000   4954218   4953270   4952000   4950204   4947899  
  4000.000000   4945333  
##END= 
