##TITLE= Sample 052 By ssteindl date Dienstag, November 20 2018
##JCAMP-DX= 4.24
##DATA TYPE= INFRARED SPECTRUM
##ORIGIN= Exported PE Spectrum Data File
##OWNER= Sandra Steindl
##DATE= 18/11/20
##TIME= 12:18:40.00
##SPECTROMETER/DATA SYSTEM= PERKIN-ELMER Frontier FT-IR/NIR IR
##INSTRUMENT PARAMETERS=
  APODIZATION=stark
  DETECTOR=INGAAS
##RESOLUTION= 16.000000
##DELTAX= -2.000000
##XUNITS= 1/CM
##YUNITS= A
##XFACTOR= 1.00
##YFACTOR= 0.00000011920928955078
##FIRSTX= 10000.00
##LASTX= 4000.00
##NPOINTS= 3001
##FIRSTY= 0.242230
##MAXY= 0.690682
##MINY= 0.214043
##XYDATA= (X++(Y..Y))
 10000.000000   2031969   2023729   2017417   2015352   2017354  
  9990.000000   2021370   2025696   2029553   2032517   2034387  
  9980.000000   2035538   2036484   2037448   2038179   2038398  
  9970.000000   2037859   2036503   2034421   2031798   2028758  
  9960.000000   2025370   2021780   2018271   2015378   2013641  
  9950.000000   2013425   2014613   2016546   2018206   2018553  
  9940.000000   2016981   2013514   2008820   2003884   1999630  
  9930.000000   1996559   1994681   1993655   1993133   1993020  
  9920.000000   1993546   1995092   1997832   2001501   2005317  
  9910.000000   2008277   2009550   2008868   2006663   2003849  
  9900.000000   2001444   2000089   1999840   2000194   2000387  
  9890.000000   1999776   1998078   1995461   1992367   1989282  
  9880.000000   1986516   1984144   1982077   1980196   1978472  
  9870.000000   1976944   1975688   1974659   1973746   1972767  
  9860.000000   1971696   1970689   1970143   1970459   1971893  
  9850.000000   1974305   1977263   1980156   1982547   1984366  
  9840.000000   1985957   1987934   1990838   1994921   1999976  
  9830.000000   2005485   2010835   2015608   2019653   2023071  
  9820.000000   2025907   2028049   2029040   2028384   2025703  
  9810.000000   2021147   2015393   2009520   2004604   2001251  
  9800.000000   1999352   1998048   1996054   1992144   1985595  
  9790.000000   1976527   1965824   1954997   1945664   1939295  
  9780.000000   1936795   1938462   1943891   1952071   1961557  
  9770.000000   1970597   1977547   1981015   1980327   1975489  
  9760.000000   1967369   1957292   1946897   1937626   1930614  
  9750.000000   1926482   1925410   1927247   1931538   1937714  
  9740.000000   1944977   1952521   1959450   1965089   1968998  
  9730.000000   1971163   1971909   1971776   1971343   1970965  
  9720.000000   1970769   1970547   1969962   1968593   1966087  
  9710.000000   1962192   1956775   1949879   1941747   1932937  
  9700.000000   1924279   1916855   1911694   1909564   1910619  
  9690.000000   1914376   1919790   1925612   1930779   1934664  
  9680.000000   1937206   1938650   1939386   1939556   1939117  
  9670.000000   1937797   1935464   1932236   1928641   1925477  
  9660.000000   1923552   1923441   1925231   1928609   1932917  
  9650.000000   1937458   1941597   1944892   1947040   1947833  
  9640.000000   1947169   1945075   1941852   1938071   1934522  
  9630.000000   1931963   1930842   1931128   1932272   1933486  
  9620.000000   1934019   1933545   1932229   1930694   1929659  
  9610.000000   1929633   1930617   1932116   1933339   1933545  
  9600.000000   1932384   1930004   1927018   1924178   1922099  
  9590.000000   1920992   1920633   1920495   1919980   1918671  
  9580.000000   1916467   1913620   1910639   1908141   1906690  
  9570.000000   1906654   1908117   1910827   1914236   1917575  
  9560.000000   1920059   1921088   1920431   1918338   1915445  
  9550.000000   1912628   1910703   1910204   1911238   1913473  
  9540.000000   1916275   1918886   1920602   1920916   1919550  
  9530.000000   1916492   1911965   1906422   1900545   1895133  
  9520.000000   1891001   1888719   1888443   1889790   1891911  
  9510.000000   1893788   1894531   1893778   1891751   1889236  
  9500.000000   1887236   1886620   1887813   1890609   1894317  
  9490.000000   1897919   1900473   1901281   1900083   1897006  
  9480.000000   1892480   1887132   1881666   1876807   1873211  
  9470.000000   1871368   1871510   1873481   1876746   1880446  
  9460.000000   1883619   1885446   1885499   1883860   1881097  
  9450.000000   1878076   1875703   1874671   1875300   1877526  
  9440.000000   1880970   1885122   1889438   1893486   1896897  
  9430.000000   1899421   1900847   1901048   1899990   1897748  
  9420.000000   1894559   1890737   1886672   1882689   1878996  
  9410.000000   1875668   1872631   1869822   1867183   1864842  
  9400.000000   1863020   1862069   1862263   1863714   1866221  
  9390.000000   1869249   1872071   1873906   1874242   1872880  
  9380.000000   1870087   1866386   1862455   1858853   1855916  
  9370.000000   1853727   1852213   1851319   1851079   1851662  
  9360.000000   1853217   1855774   1859073   1862582   1865594  
  9350.000000   1867431   1867730   1866487   1864142   1861299  
  9340.000000   1858593   1856406   1854839   1853738   1852881  
  9330.000000   1852172   1851722   1851838   1852823   1854880  
  9320.000000   1857926   1861661   1865568   1869131   1871943  
  9310.000000   1873820   1874816   1875117   1874978   1874588  
  9300.000000   1874052   1873340   1872298   1870730   1868443  
  9290.000000   1865394   1861690   1857665   1853797   1850670  
  9280.000000   1848778   1848368   1849280   1850946   1852561  
  9270.000000   1853303   1852640   1850456   1847138   1843424  
  9260.000000   1840188   1838154   1837694   1838782   1841095  
  9250.000000   1844165   1847531   1850823   1853773   1856193  
  9240.000000   1857899   1858722   1858520   1857260   1855093  
  9230.000000   1852343   1849470   1846903   1844939   1843662  
  9220.000000   1842930   1842442   1841809   1840705   1838961  
  9210.000000   1836619   1833913   1831195   1828852   1827208  
  9200.000000   1826440   1826539   1827311   1828463   1829703  
  9190.000000   1830852   1831898   1832976   1834259   1835828  
  9180.000000   1837559   1839094   1839957   1839692   1838090  
  9170.000000   1835266   1831684   1827968   1824699   1822214  
  9160.000000   1820535   1819410   1818485   1817486   1816374  
  9150.000000   1815328   1814622   1814472   1814894   1815717  
  9140.000000   1816659   1817499   1818234   1819078   1820404  
  9130.000000   1822478   1825306   1828532   1831534   1833619  
  9120.000000   1834276   1833416   1831432   1829055   1827089  
  9110.000000   1826139   1826435   1827771   1829582   1831190  
  9100.000000   1832015   1831745   1830333   1828024   1825226  
  9090.000000   1822436   1820089   1818536   1817989   1818482  
  9080.000000   1819818   1821586   1823238   1824218   1824105  
  9070.000000   1822754   1820377   1817464   1814648   1812466  
  9060.000000   1811216   1810839   1810994   1811202   1811068  
  9050.000000   1810438   1809461   1808523   1808075   1808455  
  9040.000000   1809723   1811653   1813808   1815701   1816963  
  9030.000000   1817444   1817243   1816639   1815979   1815549  
  9020.000000   1815498   1815793   1816271   1816656   1816654  
  9010.000000   1816012   1814604   1812458   1809778   1806942  
  9000.000000   1804428   1802723   1802158   1802841   1804605  
  8990.000000   1807053   1809664   1811943   1813571   1814451  
  8980.000000   1814685   1814489   1814097   1813656   1813222  
  8970.000000   1812777   1812346   1812000   1811874   1812097  
  8960.000000   1812697   1813581   1814480   1815111   1815239  
  8950.000000   1814851   1814131   1813439   1813142   1813450  
  8940.000000   1814315   1815393   1816194   1816196   1815073  
  8930.000000   1812754   1809494   1805743   1802033   1798863  
  8920.000000   1796612   1795524   1795669   1797027   1799450  
  8910.000000   1802710   1806440   1810215   1813620   1816307  
  8900.000000   1818093   1818926   1818937   1818267   1817056  
  8890.000000   1815338   1813135   1810495   1807600   1804811  
  8880.000000   1802612   1801517   1801843   1803628   1806526  
  8870.000000   1809922   1813081   1815378   1816500   1816491  
  8860.000000   1815751   1814806   1814173   1814134   1814710  
  8850.000000   1815681   1816737   1817623   1818254   1818760  
  8840.000000   1819406   1820501   1822224   1824566   1827290  
  8830.000000   1829993   1832244   1833671   1834117   1833605  
  8820.000000   1832370   1830733   1829045   1827603   1826605  
  8810.000000   1826172   1826358   1827202   1828711   1830862  
  8800.000000   1833546   1836573   1839661   1842487   1844765  
  8790.000000   1846292   1847036   1847099   1846707   1846112  
  8780.000000   1845538   1845133   1844962   1845047   1845392  
  8770.000000   1846028   1846994   1848314   1849937   1851711  
  8760.000000   1853387   1854669   1855323   1855234   1854501  
  8750.000000   1853387   1852298   1851647   1851764   1852793  
  8740.000000   1854663   1857128   1859851   1862524   1864945  
  8730.000000   1867057   1868930   1870686   1872427   1874160  
  8720.000000   1875794   1877166   1878136   1878649   1878807  
  8710.000000   1878840   1879058   1879725   1880954   1882659  
  8700.000000   1884547   1886248   1887415   1887888   1887734  
  8690.000000   1887256   1886886   1887052   1888032   1889862  
  8680.000000   1892321   1894998   1897431   1899223   1900165  
  8670.000000   1900257   1899700   1898821   1897988   1897516  
  8660.000000   1897605   1898311   1899559   1901183   1902983  
  8650.000000   1904780   1906460   1907992   1909430   1910861  
  8640.000000   1912383   1914018   1915735   1917410   1918912  
  8630.000000   1920122   1921017   1921685   1922319   1923177  
  8620.000000   1924495   1926449   1929074   1932280   1935846  
  8610.000000   1939483   1942893   1945809   1948055   1949545  
  8600.000000   1950324   1950523   1950361   1950089   1949967  
  8590.000000   1950205   1950934   1952184   1953889   1955925  
  8580.000000   1958115   1960312   1962387   1964293   1966019  
  8570.000000   1967618   1969152   1970695   1972294   1973972  
  8560.000000   1975721   1977489   1979186   1980679   1981830  
  8550.000000   1982508   1982636   1982209   1981338   1980218  
  8540.000000   1979111   1978285   1977951   1978233   1979125  
  8530.000000   1980544   1982358   1984454   1986763   1989268  
  8520.000000   1991963   1994804   1997662   2000313   2002496  
  8510.000000   2003978   2004673   2004674   2004278   2003891  
  8500.000000   2003921   2004635   2006059   2007984   2010018  
  8490.000000   2011754   2012885   2013330   2013231   2012904  
  8480.000000   2012714   2012941   2013696   2014883   2016266  
  8470.000000   2017550   2018504   2019020   2019151   2019080  
  8460.000000   2019056   2019328   2020067   2021331   2023056  
  8450.000000   2025077   2027178   2029135   2030778   2032013  
  8440.000000   2032859   2033412   2033826   2034244   2034769  
  8430.000000   2035429   2036184   2036960   2037690   2038370  
  8420.000000   2039051   2039845   2040849   2042132   2043660  
  8410.000000   2045327   2046950   2048355   2049406   2050061  
  8400.000000   2050346   2050364   2050230   2050049   2049872  
  8390.000000   2049707   2049523   2049270   2048891   2048315  
  8380.000000   2047485   2046349   2044883   2043099   2041067  
  8370.000000   2038941   2036939   2035332   2034359   2034212  
  8360.000000   2034957   2036538   2038755   2041305   2043846  
  8350.000000   2046046   2047664   2048541   2048650   2048034  
  8340.000000   2046827   2045190   2043320   2041419   2039696  
  8330.000000   2038368   2037610   2037551   2038188   2039425  
  8320.000000   2041024   2042693   2044107   2045007   2045254  
  8310.000000   2044851   2043941   2042721   2041413   2040174  
  8300.000000   2039091   2038159   2037323   2036530   2035755  
  8290.000000   2035043   2034470   2034148   2034161   2034562  
  8280.000000   2035319   2036323   2037394   2038316   2038889  
  8270.000000   2038972   2038524   2037627   2036464   2035272  
  8260.000000   2034263   2033563   2033162   2032934   2032675  
  8250.000000   2032190   2031348   2030147   2028687   2027147  
  8240.000000   2025686   2024416   2023353   2022450   2021630  
  8230.000000   2020826   2020017   2019204   2018395   2017570  
  8220.000000   2016674   2015632   2014384   2012934   2011360  
  8210.000000   2009815   2008482   2007506   2006957   2006794  
  8200.000000   2006887   2007052   2007099   2006878   2006288  
  8190.000000   2005311   2003986   2002433   2000817   1999341  
  8180.000000   1998191   1997489   1997239   1997303   1997418  
  8170.000000   1997246   1996477   1994919   1992577   1989653  
  8160.000000   1986491   1983476   1980925   1979019   1977773  
  8150.000000   1977083   1976777   1976696   1976729   1976824  
  8140.000000   1976947   1977055   1977060   1976843   1976288  
  8130.000000   1975317   1973938   1972232   1970352   1968463  
  8120.000000   1966714   1965188   1963895   1962772   1961705  
  8110.000000   1960573   1959277   1957781   1956125   1954422  
  8100.000000   1952835   1951528   1950617   1950119   1949941  
  8090.000000   1949897   1949767   1949373   1948646   1947655  
  8080.000000   1946585   1945668   1945104   1944972   1945212  
  8070.000000   1945620   1945934   1945889   1945312   1944147  
  8060.000000   1942470   1940454   1938323   1936309   1934606  
  8050.000000   1933357   1932622   1932386   1932548   1932949  
  8040.000000   1933386   1933672   1933667   1933320   1932671  
  8030.000000   1931830   1930937   1930094   1929349   1928668  
  8020.000000   1927981   1927206   1926301   1925274   1924181  
  8010.000000   1923096   1922074   1921139   1920276   1919464  
  8000.000000   1918691   1917978   1917377   1916947   1916727  
  7990.000000   1916707   1916824   1916972   1917038   1916924  
  7980.000000   1916581   1916005   1915245   1914369   1913459  
  7970.000000   1912591   1911829   1911212   1910752   1910430  
  7960.000000   1910195   1909982   1909727   1909389   1908963  
  7950.000000   1908482   1907992   1907535   1907121   1906724  
  7940.000000   1906301   1905814   1905272   1904729   1904285  
  7930.000000   1904027   1904004   1904175   1904426   1904594  
  7920.000000   1904538   1904190   1903594   1902897   1902298  
  7910.000000   1901984   1902065   1902546   1903331   1904259  
  7900.000000   1905152   1905863   1906292   1906398   1906174  
  7890.000000   1905650   1904876   1903930   1902912   1901935  
  7880.000000   1901106   1900491   1900102   1899882   1899722  
  7870.000000   1899504   1899133   1898581   1897887   1897153  
  7860.000000   1896505   1896059   1895894   1896034   1896457  
  7850.000000   1897092   1897847   1898609   1899269   1899733  
  7840.000000   1899943   1899896   1899654   1899332   1899075  
  7830.000000   1899013   1899215   1899674   1900288   1900911  
  7820.000000   1901373   1901555   1901399   1900932   1900232  
  7810.000000   1899407   1898544   1897696   1896869   1896036  
  7800.000000   1895156   1894199   1893159   1892060   1890943  
  7790.000000   1889872   1888904   1888094   1887480   1887077  
  7780.000000   1886876   1886835   1886888   1886948   1886929  
  7770.000000   1886760   1886410   1885897   1885287   1884684  
  7760.000000   1884200   1883926   1883899   1884090   1884403  
  7750.000000   1884699   1884835   1884696   1884234   1883466  
  7740.000000   1882472   1881350   1880197   1879078   1878026  
  7730.000000   1877054   1876181   1875447   1874910   1874640  
  7720.000000   1874673   1875001   1875551   1876207   1876841  
  7710.000000   1877340   1877641   1877719   1877587   1877258  
  7700.000000   1876747   1876060   1875220   1874283   1873344  
  7690.000000   1872532   1871958   1871691   1871709   1871914  
  7680.000000   1872155   1872286   1872212   1871917   1871452  
  7670.000000   1870895   1870316   1869744   1869172   1868581  
  7660.000000   1867978   1867416   1866981   1866766   1866823  
  7650.000000   1867128   1867583   1868044   1868372   1868474  
  7640.000000   1868335   1868000   1867556   1867081   1866634  
  7630.000000   1866239   1865913   1865679   1865581   1865669  
  7620.000000   1865979   1866504   1867182   1867914   1868586  
  7610.000000   1869115   1869471   1869681   1869810   1869924  
  7600.000000   1870075   1870271   1870506   1870749   1870986  
  7590.000000   1871197   1871375   1871495   1871533   1871459  
  7580.000000   1871273   1871014   1870773   1870676   1870856  
  7570.000000   1871404   1872349   1873635   1875143   1876728  
  7560.000000   1878261   1879652   1880875   1881934   1882873  
  7550.000000   1883726   1884525   1885278   1885990   1886657  
  7540.000000   1887284   1887886   1888490   1889143   1889899  
  7530.000000   1890819   1891948   1893298   1894840   1896486  
  7520.000000   1898119   1899598   1900815   1901704   1902294  
  7510.000000   1902668   1902975   1903362   1903967   1904872  
  7500.000000   1906113   1907670   1909491   1911504   1913638  
  7490.000000   1915828   1918032   1920214   1922360   1924448  
  7480.000000   1926458   1928345   1930067   1931569   1932844  
  7470.000000   1933929   1934940   1936039   1937407   1939176  
  7460.000000   1941389   1943965   1946723   1949433   1951901  
  7450.000000   1954030   1955856   1957525   1959244   1961195  
  7440.000000   1963482   1966090   1968914   1971796   1974586  
  7430.000000   1977176   1979523   1981634   1983556   1985341  
  7420.000000   1987044   1988713   1990400   1992154   1994015  
  7410.000000   1995999   1998096   2000270   2002476   2004694  
  7400.000000   2006930   2009232   2011661   2014262   2017035  
  7390.000000   2019920   2022811   2025585   2028147   2030456  
  7380.000000   2032539   2034470   2036344   2038235   2040180  
  7370.000000   2042174   2044187   2046188   2048163   2050120  
  7360.000000   2052080   2054065   2056082   2058117   2060140  
  7350.000000   2062115   2064018   2065840   2067602   2069337  
  7340.000000   2071089   2072908   2074834   2076907   2079148  
  7330.000000   2081568   2084151   2086858   2089619   2092344  
  7320.000000   2094938   2097319   2099431   2101263   2102848  
  7310.000000   2104257   2105576   2106885   2108235   2109637  
  7300.000000   2111062   2112472   2113822   2115109   2116349  
  7290.000000   2117598   2118906   2120310   2121807   2123357  
  7280.000000   2124895   2126356   2127691   2128884   2129950  
  7270.000000   2130925   2131850   2132759   2133687   2134660  
  7260.000000   2135712   2136873   2138171   2139602   2141145  
  7250.000000   2142733   2144303   2145794   2147199   2148552  
  7240.000000   2149945   2151467   2153205   2155176   2157363  
  7230.000000   2159696   2162120   2164588   2167119   2169743  
  7220.000000   2172523   2175487   2178647   2181964   2185397  
  7210.000000   2188883   2192403   2195931   2199487   2203070  
  7200.000000   2206701   2210379   2214125   2217956   2221917  
  7190.000000   2226043   2230375   2234910   2239634   2244484  
  7180.000000   2249401   2254317   2259199   2264014   2268765  
  7170.000000   2273441   2278063   2282639   2287224   2291869  
  7160.000000   2296654   2301628   2306821   2312206   2317741  
  7150.000000   2323359   2329041   2334799   2340711   2346852  
  7140.000000   2353287   2359992   2366886   2373812   2380648  
  7130.000000   2387307   2393833   2400337   2407008   2413989  
  7120.000000   2421367   2429093   2437040   2445017   2452874  
  7110.000000   2460520   2467979   2475328   2482695   2490167  
  7100.000000   2497802   2505583   2513478   2521426   2529403  
  7090.000000   2537396   2545427   2553521   2561706   2569990  
  7080.000000   2578365   2586807   2595284   2603754   2612187  
  7070.000000   2620558   2628867   2637124   2645349   2653551  
  7060.000000   2661717   2669803   2677742   2685467   2692945  
  7050.000000   2700195   2707296   2714371   2721539   2728892  
  7040.000000   2736448   2744170   2751975   2759778   2767507  
  7030.000000   2775129   2782629   2790009   2797255   2804358  
  7020.000000   2811309   2818140   2824909   2831714   2838639  
  7010.000000   2845737   2852982   2860292   2867528   2874569  
  7000.000000   2881318   2887757   2893910   2899843   2905600  
  6990.000000   2911218   2916694   2922040   2927262   2932414  
  6980.000000   2937542   2942703   2947887   2953060   2958125  
  6970.000000   2963004   2967620   2971975   2976102   2980085  
  6960.000000   2983988   2987866   2991722   2995547   2999308  
  6950.000000   3002992   3006585   3010093   3013503   3016803  
  6940.000000   3019961   3022967   3025816   3028552   3031222  
  6930.000000   3033892   3036599   3039366   3042169   3044983  
  6920.000000   3047766   3050494   3053142   3055693   3058119  
  6910.000000   3060393   3062486   3064395   3066141   3067778  
  6900.000000   3069368   3070972   3072618   3074314   3076035  
  6890.000000   3077767   3079502   3081263   3083075   3084956  
  6880.000000   3086885   3088814   3090664   3092365   3093876  
  6870.000000   3095205   3096400   3097536   3098673   3099852  
  6860.000000   3101076   3102329   3103588   3104839   3106076  
  6850.000000   3107298   3108495   3109648   3110725   3111702  
  6840.000000   3112570   3113354   3114096   3114860   3115698  
  6830.000000   3116654   3117737   3118939   3120225   3121545  
  6820.000000   3122829   3124005   3124996   3125754   3126266  
  6810.000000   3126574   3126761   3126943   3127216   3127645  
  6800.000000   3128221   3128890   3129554   3130132   3130559  
  6790.000000   3130824   3130937   3130927   3130804   3130572  
  6780.000000   3130221   3129756   3129205   3128623   3128070  
  6770.000000   3127601   3127224   3126926   3126657   3126380  
  6760.000000   3126068   3125728   3125373   3125014   3124636  
  6750.000000   3124201   3123661   3122989   3122198   3121344  
  6740.000000   3120503   3119751   3119118   3118595   3118125  
  6730.000000   3117649   3117122   3116543   3115939   3115357  
  6720.000000   3114825   3114339   3113862   3113340   3112728  
  6710.000000   3112008   3111194   3110321   3109426   3108541  
  6700.000000   3107678   3106845   3106047   3105302   3104625  
  6690.000000   3104027   3103493   3102987   3102453   3101834  
  6680.000000   3101087   3100201   3099186   3098078   3096912  
  6670.000000   3095722   3094534   3093376   3092267   3091233  
  6660.000000   3090278   3089393   3088534   3087644   3086658  
  6650.000000   3085532   3084251   3082837   3081325   3079758  
  6640.000000   3078152   3076512   3074827   3073102   3071352  
  6630.000000   3069628   3067973   3066428   3064988   3063615  
  6620.000000   3062240   3060795   3059232   3057541   3055742  
  6610.000000   3053875   3051975   3050062   3048139   3046200  
  6600.000000   3044245   3042279   3040315   3038358   3036401  
  6590.000000   3034428   3032419   3030376   3028322   3026306  
  6580.000000   3024382   3022590   3020936   3019390   3017896  
  6570.000000   3016397   3014860   3013281   3011688   3010114  
  6560.000000   3008588   3007112   3005675   3004253   3002831  
  6550.000000   3001405   2999986   2998582   2997197   2995823  
  6540.000000   2994450   2993078   2991723   2990413   2989178  
  6530.000000   2988029   2986948   2985890   2984799   2983636  
  6520.000000   2982397   2981116   2979857   2978676   2977606  
  6510.000000   2976636   2975718   2974790   2973799   2972722  
  6500.000000   2971572   2970382   2969192   2968031   2966916  
  6490.000000   2965847   2964824   2963843   2962905   2962002  
  6480.000000   2961115   2960218   2959281   2958294   2957264  
  6470.000000   2956226   2955222   2954285   2953424   2952613  
  6460.000000   2951806   2950954   2950027   2949026   2947975  
  6450.000000   2946913   2945870   2944858   2943871   2942892  
  6440.000000   2941911   2940931   2939971   2939052   2938188  
  6430.000000   2937374   2936590   2935806   2934998   2934154  
  6420.000000   2933278   2932381   2931480   2930580   2929692  
  6410.000000   2928819   2927978   2927193   2926494   2925903  
  6400.000000   2925433   2925078   2924822   2924635   2924495  
  6390.000000   2924376   2924258   2924112   2923914   2923640  
  6380.000000   2923287   2922873   2922448   2922075   2921818  
  6370.000000   2921711   2921747   2921872   2922003   2922059  
  6360.000000   2921975   2921731   2921339   2920845   2920295  
  6350.000000   2919735   2919190   2918677   2918192   2917731  
  6340.000000   2917267   2916771   2916194   2915495   2914643  
  6330.000000   2913639   2912510   2911316   2910116   2908964  
  6320.000000   2907877   2906849   2905845   2904840   2903813  
  6310.000000   2902771   2901721   2900677   2899622   2898527  
  6300.000000   2897346   2896049   2894623   2893095   2891510  
  6290.000000   2889921   2888361   2886845   2885355   2883871  
  6280.000000   2882369   2880842   2879288   2877713   2876109  
  6270.000000   2874463   2872748   2870953   2869076   2867144  
  6260.000000   2865196   2863276   2861411   2859609   2857853  
  6250.000000   2856120   2854385   2852639   2850887   2849141  
  6240.000000   2847414   2845714   2844038   2842384   2840743  
  6230.000000   2839110   2837475   2835822   2834128   2832372  
  6220.000000   2830539   2828631   2826669   2824687   2822716  
  6210.000000   2820775   2818858   2816945   2815006   2813026  
  6200.000000   2811006   2808971   2806949   2804964   2803016  
  6190.000000   2801092   2799167   2797229   2795285   2793365  
  6180.000000   2791506   2789737   2788063   2786463   2784895  
  6170.000000   2783320   2781711   2780064   2778391   2776706  
  6160.000000   2775021   2773325   2771608   2769856   2768074  
  6150.000000   2766282   2764512   2762794   2761148   2759575  
  6140.000000   2758063   2756598   2755173   2753789   2752452  
  6130.000000   2751156   2749886   2748613   2747310   2745959  
  6120.000000   2744572   2743179   2741824   2740537   2739330  
  6110.000000   2738183   2737062   2735931   2734776   2733610  
  6100.000000   2732472   2731403   2730442   2729598   2728865  
  6090.000000   2728212   2727615   2727045   2726488   2725925  
  6080.000000   2725341   2724714   2724033   2723297   2722536  
  6070.000000   2721791   2721122   2720570   2720161   2719883  
  6060.000000   2719709   2719595   2719519   2719467   2719457  
  6050.000000   2719504   2719634   2719847   2720148   2720522  
  6040.000000   2720978   2721522   2722185   2722981   2723927  
  6030.000000   2725004   2726193   2727454   2728767   2730115  
  6020.000000   2731509   2732953   2734461   2736016   2737603  
  6010.000000   2739184   2740736   2742236   2743692   2745110  
  6000.000000   2746520   2747937   2749392   2750898   2752484  
  5990.000000   2754161   2755948   2757841   2759836   2761911  
  5980.000000   2764058   2766267   2768559   2770955   2773496  
  5970.000000   2776189   2779040   2782005   2785050   2788121  
  5960.000000   2791206   2794298   2797433   2800633   2803926  
  5950.000000   2807303   2810746   2814221   2817711   2821212  
  5940.000000   2824751   2828357   2832059   2835857   2839728  
  5930.000000   2843627   2847497   2851296   2855000   2858605  
  5920.000000   2862120   2865559   2868926   2872222   2875437  
  5910.000000   2878563   2881585   2884495   2887276   2889920  
  5900.000000   2892418   2894784   2897042   2899245   2901449  
  5890.000000   2903716   2906079   2908549   2911102   2913699  
  5880.000000   2916287   2918826   2921288   2923665   2925958  
  5870.000000   2928170   2930314   2932397   2934439   2936462  
  5860.000000   2938499   2940576   2942719   2944939   2947243  
  5850.000000   2949631   2952108   2954682   2957368   2960170  
  5840.000000   2963086   2966097   2969175   2972289   2975416  
  5830.000000   2978545   2981676   2984808   2987935   2991038  
  5820.000000   2994082   2997037   2999871   3002580   3005164  
  5810.000000   3007646   3010035   3012352   3014588   3016749  
  5800.000000   3018815   3020796   3022674   3024460   3026124  
  5790.000000   3027659   3029021   3030196   3031149   3031878  
  5780.000000   3032365   3032613   3032601   3032329   3031781  
  5770.000000   3030981   3029960   3028790   3027539   3026287  
  5760.000000   3025078   3023944   3022883   3021897   3020983  
  5750.000000   3020156   3019432   3018825   3018330   3017917  
  5740.000000   3017544   3017160   3016741   3016279   3015797  
  5730.000000   3015325   3014899   3014532   3014230   3013981  
  5720.000000   3013781   3013624   3013519   3013472   3013484  
  5710.000000   3013544   3013637   3013749   3013879   3014039  
  5700.000000   3014253   3014538   3014896   3015309   3015739  
  5690.000000   3016152   3016519   3016842   3017128   3017400  
  5680.000000   3017655   3017879   3018026   3018054   3017922  
  5670.000000   3017622   3017160   3016570   3015874   3015091  
  5660.000000   3014216   3013240   3012155   3010975   3009726  
  5650.000000   3008455   3007201   3005999   3004856   3003776  
  5640.000000   3002748   3001772   3000849   2999983   2999174  
  5630.000000   2998411   2997676   2996948   2996216   2995482  
  5620.000000   2994761   2994069   2993414   2992790   2992177  
  5610.000000   2991550   2990889   2990192   2989471   2988746  
  5600.000000   2988033   2987333   2986631   2985905   2985133  
  5590.000000   2984307   2983428   2982512   2981570   2980611  
  5580.000000   2979628   2978619   2977577   2976511   2975432  
  5570.000000   2974357   2973292   2972233   2971161   2970057  
  5560.000000   2968902   2967698   2966450   2965177   2963891  
  5550.000000   2962596   2961286   2959954   2958597   2957226  
  5540.000000   2955859   2954519   2953220   2951965   2950748  
  5530.000000   2949557   2948385   2947236   2946117   2945033  
  5520.000000   2943976   2942925   2941845   2940703   2939480  
  5510.000000   2938177   2936815   2935426   2934035   2932663  
  5500.000000   2931310   2929979   2928663   2927371   2926107  
  5490.000000   2924876   2923662   2922439   2921162   2919795  
  5480.000000   2918309   2916705   2915001   2913234   2911435  
  5470.000000   2909628   2907816   2905998   2904161   2902303  
  5460.000000   2900415   2898494   2896530   2894510   2892426  
  5450.000000   2890279   2888094   2885909   2883773   2881721  
  5440.000000   2879771   2877907   2876109   2874346   2872614  
  5430.000000   2870920   2869293   2867748   2866292   2864902  
  5420.000000   2863561   2862243   2860967   2859765   2858703  
  5410.000000   2857824   2857160   2856683   2856361   2856127  
  5400.000000   2855961   2855843   2855810   2855885   2856112  
  5390.000000   2856486   2857012   2857656   2858428   2859322  
  5380.000000   2860389   2861646   2863135   2864832   2866733  
  5370.000000   2868779   2870968   2873269   2875733   2878363  
  5360.000000   2881231   2884330   2887715   2891361   2895335  
  5350.000000   2899631   2904346   2909485   2915131   2921244  
  5340.000000   2927860   2934903   2942417   2950348   2958780  
  5330.000000   2967682   2977141   2987100   2997617   3008617  
  5320.000000   3020173   3032245   3044961   3058318   3072464  
  5310.000000   3087378   3103169   3119769   3137251   3155533  
  5300.000000   3174697   3194686   3215609   3237431   3260261  
  5290.000000   3284039   3308813   3334448   3360900   3387986  
  5280.000000   3415657   3443811   3472514   3501801   3531820  
  5270.000000   3562614   3594202   3626444   3659126   3691979  
  5260.000000   3724764   3757348   3789689   3821852   3853869  
  5250.000000   3885766   3917406   3948643   3979196   4008933  
  5240.000000   4037689   4065547   4092530   4118854   4144551  
  5230.000000   4169756   4194350   4218310   4241401   4263572  
  5220.000000   4284645   4304692   4323679   4341799   4359085  
  5210.000000   4375726   4391681   4407022   4421592   4435391  
  5200.000000   4448259   4460270   4471370   4481722   4491322  
  5190.000000   4500309   4508621   4516315   4523283   4529573  
  5180.000000   4535115   4540006   4544217   4547849   4550850  
  5170.000000   4553283   4555084   4556328   4556992   4557191  
  5160.000000   4556927   4556294   4555248   4553824   4551948  
  5150.000000   4549650   4546898   4543770   4540278   4536509  
  5140.000000   4532460   4528182   4523652   4518908   4513947  
  5130.000000   4508827   4503564   4498210   4492762   4487242  
  5120.000000   4481633   4475954   4470210   4464439   4458658  
  5110.000000   4452899   4447157   4441436   4435719   4430012  
  5100.000000   4424317   4418660   4413050   4407503   4401998  
  5090.000000   4396517   4391015   4385472   4379854   4374163  
  5080.000000   4368379   4362505   4356505   4350361   4344028  
  5070.000000   4337492   4330731   4323761   4316587   4309244  
  5060.000000   4301740   4294111   4286363   4278535   4270639  
  5050.000000   4262715   4254771   4246827   4238869   4230895  
  5040.000000   4222880   4214826   4206722   4198585   4190415  
  5030.000000   4182221   4173991   4165716   4157380   4148977  
  5020.000000   4140515   4132015   4123511   4115035   4106622  
  5010.000000   4098290   4090059   4081932   4073929   4066051  
  5000.000000   4058327   4050762   4043391   4036218   4029279  
  4990.000000   4022574   4016139   4009968   4004093   3998489  
  4980.000000   3993181   3988134   3983374   3978876   3974688  
  4970.000000   3970804   3967285   3964121   3961353   3958939  
  4960.000000   3956889   3955137   3953687   3952486   3951564  
  4950.000000   3950895   3950531   3950453   3950710   3951270  
  4940.000000   3952174   3953383   3954942   3956824   3959083  
  4930.000000   3961704   3964738   3968162   3972013   3976247  
  4920.000000   3980883   3985864   3991202   3996840   4002795  
  4910.000000   4009028   4015564   4022376   4029488   4036869  
  4900.000000   4044523   4052408   4060510   4068785   4077215  
  4890.000000   4085765   4094418   4103140   4111902   4120666  
  4880.000000   4129388   4138032   4146557   4154937   4163137  
  4870.000000   4171134   4178888   4186376   4193557   4200425  
  4860.000000   4206961   4213191   4219124   4224807   4230258  
  4850.000000   4235526   4240622   4245597   4250463   4255273  
  4840.000000   4260040   4264806   4269564   4274328   4279064  
  4830.000000   4283761   4288371   4292874   4297229   4301421  
  4820.000000   4305421   4309229   4312836   4316265   4319532  
  4810.000000   4322671   4325704   4328656   4331530   4334335  
  4800.000000   4337063   4339728   4342333   4344910   4347475  
  4790.000000   4350058   4352661   4355290   4357927   4360564  
  4780.000000   4363180   4365771   4368322   4370831   4373274  
  4770.000000   4375638   4377890   4380016   4381990   4383813  
  4760.000000   4385474   4386988   4388348   4389569   4390644  
  4750.000000   4391590   4392408   4393123   4393736   4394269  
  4740.000000   4394708   4395054   4395283   4395391   4395364  
  4730.000000   4395217   4394953   4394597   4394153   4393635  
  4720.000000   4393036   4392363   4391609   4390792   4389920  
  4710.000000   4389019   4388100   4387182   4386266   4385357  
  4700.000000   4384452   4383554   4382660   4381772   4380880  
  4690.000000   4379978   4379051   4378087   4377080   4376032  
  4680.000000   4374953   4373854   4372748   4371639   4370531  
  4670.000000   4369416   4368301   4367189   4366108   4365080  
  4660.000000   4364147   4363333   4362670   4362167   4361838  
  4650.000000   4361679   4361697   4361881   4362233   4362735  
  4640.000000   4363382   4364148   4365021   4365979   4367015  
  4630.000000   4368115   4369275   4370478   4371715   4372957  
  4620.000000   4374184   4375366   4376482   4377511   4378445  
  4610.000000   4379275   4380004   4380639   4381194   4381692  
  4600.000000   4382156   4382619   4383101   4383624   4384189  
  4590.000000   4384796   4385424   4386054   4386659   4387223  
  4580.000000   4387726   4388165   4388531   4388832   4389067  
  4570.000000   4389246   4389369   4389441   4389456   4389412  
  4560.000000   4389295   4389103   4388827   4388472   4388044  
  4550.000000   4387563   4387043   4386505   4385962   4385420  
  4540.000000   4384885   4384352   4383821   4383283   4382744  
  4530.000000   4382196   4381660   4381135   4380665   4380261  
  4520.000000   4379986   4379851   4379921   4380191   4380720  
  4510.000000   4381488   4382563   4383943   4385725   4387941  
  4500.000000   4390715   4394097   4398211   4403098   4408856  
  4490.000000   4415498   4423081   4431561   4440910   4450985  
  4480.000000   4461648   4472658   4483813   4494866   4505670  
  4470.000000   4516088   4526113   4535755   4545116   4554283  
  4460.000000   4563368   4572433   4581527   4590648   4599780  
  4450.000000   4608889   4617943   4626930   4635852   4644741  
  4440.000000   4653641   4662620   4671734   4681048   4690592  
  4430.000000   4700392   4710426   4720677   4731076   4741580  
  4420.000000   4752098   4762581   4772933   4783103   4792986  
  4410.000000   4802521   4811588   4820119   4828001   4835196  
  4400.000000   4841638   4847355   4852349   4856706   4860472  
  4390.000000   4863749   4866588   4869086   4871290   4873301  
  4380.000000   4875177   4877021   4878895   4880888   4883045  
  4370.000000   4885420   4888034   4890907   4894040   4897429  
  4360.000000   4901057   4904894   4908901   4913032   4917231  
  4350.000000   4921462   4925681   4929888   4934070   4938264  
  4340.000000   4942473   4946723   4950971   4955154   4959117  
  4330.000000   4962675   4965578   4967608   4968570   4968398  
  4320.000000   4967129   4964958   4962159   4959086   4956050  
  4310.000000   4953325   4951053   4949301   4948018   4947129  
  4300.000000   4946516   4946094   4945789   4945558   4945379  
  4290.000000   4945240   4945145   4945104   4945151   4945326  
  4280.000000   4945684   4946275   4947126   4948239   4949562  
  4270.000000   4951018   4952476   4953798   4954819   4955392  
  4260.000000   4955381   4954696   4953287   4951179   4948445  
  4250.000000   4945229   4941696   4938046   4934439   4931030  
  4240.000000   4927891   4925070   4922538   4920255   4918143  
  4230.000000   4916132   4914152   4912142   4910059   4907867  
  4220.000000   4905559   4903134   4900637   4898119   4895676  
  4210.000000   4893392   4891365   4889648   4888271   4887197  
  4200.000000   4886369   4885678   4885038   4884347   4883572  
  4190.000000   4882683   4881736   4880771   4879896   4879166  
  4180.000000   4878685   4878482   4878628   4879122   4880016  
  4170.000000   4881299   4883023   4885175   4887804   4890878  
  4160.000000   4894431   4898404   4902818   4907609   4912810  
  4150.000000   4918377   4924372   4930768   4937636   4944948  
  4140.000000   4952763   4961036   4969816   4979055   4988801  
  4130.000000   4999017   5009756   5020987   5032760   5045038  
  4120.000000   5057857   5071170   5084997   5099280   5114031  
  4110.000000   5129194   5144778   5160728   5177042   5193654  
  4100.000000   5210541   5227632   5244898   5262286   5279789  
  4090.000000   5297392   5315105   5332931   5350868   5368913  
  4080.000000   5387042   5405250   5423502   5441799   5460086  
  4070.000000   5478346   5496490   5514477   5532196   5549624  
  4060.000000   5566667   5583339   5599563   5615366   5630659  
  4050.000000   5645471   5659713   5673439   5686572   5699174  
  4040.000000   5711142   5722496   5733077   5742887   5751779  
  4030.000000   5759815   5766923   5773223   5778676   5783369  
  4020.000000   5787189   5790184   5792281   5793535   5793861  
  4010.000000   5793401   5792234   5790403   5787687   5784191  
  4000.000000   5780305  
##END= 
