##TITLE= Sample 046 By ssteindl date Dienstag, November 20 2018
##JCAMP-DX= 4.24
##DATA TYPE= INFRARED SPECTRUM
##ORIGIN= Exported PE Spectrum Data File
##OWNER= Sandra Steindl
##DATE= 18/11/20
##TIME= 12:10:20.00
##SPECTROMETER/DATA SYSTEM= PERKIN-ELMER Frontier FT-IR/NIR IR
##INSTRUMENT PARAMETERS=
  APODIZATION=stark
  DETECTOR=INGAAS
##RESOLUTION= 16.000000
##DELTAX= -2.000000
##XUNITS= 1/CM
##YUNITS= A
##XFACTOR= 1.00
##YFACTOR= 0.00000011920928955078
##FIRSTX= 10000.00
##LASTX= 4000.00
##NPOINTS= 3001
##FIRSTY= 0.206260
##MAXY= 0.632460
##MINY= 0.178898
##XYDATA= (X++(Y..Y))
 10000.000000   1730236   1732170   1733778   1734949   1736178  
  9990.000000   1738204   1741341   1745499   1750432   1755713  
  9980.000000   1760528   1763816   1764658   1762641   1757982  
  9970.000000   1751629   1744939   1739369   1735890   1734837  
  9960.000000   1735831   1738085   1740691   1742925   1744257  
  9950.000000   1744344   1742839   1739463   1734060   1726883  
  9940.000000   1718697   1710748   1704478   1701000   1700746  
  9930.000000   1703140   1706860   1710174   1711583   1710239  
  9920.000000   1706142   1700010   1692957   1686153   1680646  
  9910.000000   1677281   1676733   1679427   1685366   1693922  
  9900.000000   1703739   1712950   1719644   1722501   1721239  
  9890.000000   1716756   1710764   1705159   1701288   1699509  
  9880.000000   1699201   1699185   1698404   1696405   1693490  
  9870.000000   1690409   1687788   1685691   1683474   1680173  
  9860.000000   1675069   1668237   1660705   1654148   1650253  
  9850.000000   1650053   1653500   1659548   1666535   1672847  
  9840.000000   1677401   1679816   1680340   1679391   1677424  
  9830.000000   1674602   1671090   1667017   1662755   1658732  
  9820.000000   1655338   1652736   1650804   1649407   1648523  
  9810.000000   1648613   1650398   1654686   1661813   1671288  
  9800.000000   1681750   1691206   1697733   1700014   1697836  
  9790.000000   1692040   1684204   1676082   1669124   1664236  
  9780.000000   1661777   1661751   1663909   1667837   1672796  
  9770.000000   1677763   1681422   1682595   1680555   1675497  
  9760.000000   1668537   1661473   1656166   1653865   1654805  
  9750.000000   1658119   1662284   1665677   1667155   1666329  
  9740.000000   1663477   1659256   1654314   1649124   1643977  
  9730.000000   1639163   1635129   1632455   1631686   1633007  
  9720.000000   1636067   1639967   1643528   1645698   1645907  
  9710.000000   1644247   1641372   1638169   1635429   1633572  
  9700.000000   1632668   1632563   1633097   1634217   1635926  
  9690.000000   1638161   1640614   1642766   1643978   1643785  
  9680.000000   1642071   1639182   1635787   1632618   1630203  
  9670.000000   1628653   1627735   1626987   1626032   1624674  
  9660.000000   1622982   1621127   1619249   1617362   1615368  
  9650.000000   1613215   1611042   1609255   1608485   1609340  
  9640.000000   1612216   1617015   1623174   1629709   1635530  
  9630.000000   1639683   1641633   1641357   1639366   1636565  
  9620.000000   1634029   1632790   1633537   1636530   1641428  
  9610.000000   1647456   1653486   1658426   1661415   1662118  
  9600.000000   1660667   1657609   1653568   1649052   1644285  
  9590.000000   1639241   1633844   1628107   1622296   1616838  
  9580.000000   1612186   1608607   1606024   1604084   1602258  
  9570.000000   1600169   1597741   1595324   1593572   1593186  
  9560.000000   1594696   1598191   1603359   1609453   1615535  
  9550.000000   1620585   1623758   1624495   1622711   1618806  
  9540.000000   1613699   1608613   1604854   1603427   1604723  
  9530.000000   1608353   1613147   1617578   1620155   1620068  
  9520.000000   1617378   1613110   1608805   1606001   1605641  
  9510.000000   1607735   1611397   1615138   1617432   1617162  
  9500.000000   1613971   1608292   1601165   1593900   1587720  
  9490.000000   1583485   1581559   1581795   1583652   1586332  
  9480.000000   1588967   1590828   1591450   1590833   1589363  
  9470.000000   1587796   1586944   1587437   1589500   1592810  
  9460.000000   1596679   1600140   1602346   1602652   1600861  
  9450.000000   1597125   1591910   1585827   1579525   1573650  
  9440.000000   1568808   1565610   1564556   1565982   1569831  
  9430.000000   1575677   1582645   1589672   1595664   1599782  
  9420.000000   1601631   1601276   1599246   1596212   1592869  
  9410.000000   1589622   1586623   1583762   1580838   1577728  
  9400.000000   1574454   1571306   1568684   1567092   1566862  
  9390.000000   1568110   1570589   1573771   1576963   1579450  
  9380.000000   1580712   1580464   1578778   1575975   1572611  
  9370.000000   1569288   1566561   1564803   1564165   1564575  
  9360.000000   1565766   1567387   1569042   1570440   1571391  
  9350.000000   1571898   1572069   1572083   1572084   1572110  
  9340.000000   1572106   1571906   1571360   1570331   1568791  
  9330.000000   1566792   1564461   1561960   1559443   1557064  
  9320.000000   1554997   1553460   1552694   1552901   1554103  
  9310.000000   1556128   1558539   1560809   1562419   1563095  
  9300.000000   1562914   1562313   1561943   1562349   1563720  
  9290.000000   1565721   1567601   1568410   1567366   1564124  
  9280.000000   1558978   1552804   1546797   1542094   1539377  
  9270.000000   1538760   1539785   1541678   1543602   1544950  
  9260.000000   1545510   1545433   1545092   1544834   1544846  
  9250.000000   1545031   1545120   1544747   1543712   1542031  
  9240.000000   1540028   1538195   1537037   1536924   1537931  
  9230.000000   1539880   1542371   1544978   1547366   1549380  
  9220.000000   1551009   1552297   1553229   1553689   1553475  
  9210.000000   1552417   1550498   1547926   1545129   1542615  
  9200.000000   1540795   1539796   1539409   1539180   1538600  
  9190.000000   1537308   1535212   1532534   1529717   1527263  
  9180.000000   1525543   1524729   1524807   1525662   1527151  
  9170.000000   1529146   1531494   1533982   1536296   1538065  
  9160.000000   1538974   1538886   1537952   1536525   1535057  
  9150.000000   1533864   1533023   1532312   1531326   1529711  
  9140.000000   1527359   1524542   1521796   1519785   1518986  
  9130.000000   1519529   1521101   1523091   1524825   1525772  
  9120.000000   1525707   1524691   1523023   1521039   1519028  
  9110.000000   1517149   1515510   1514202   1513349   1513068  
  9100.000000   1513404   1514291   1515525   1516855   1518054  
  9090.000000   1519037   1519885   1520775   1521866   1523158  
  9080.000000   1524448   1525386   1525612   1524935   1523453  
  9070.000000   1521559   1519827   1518792   1518754   1519649  
  9060.000000   1521075   1522404   1522996   1522418   1520595  
  9050.000000   1517827   1514696   1511910   1510121   1509756  
  9040.000000   1510902   1513298   1516411   1519568   1522131  
  9030.000000   1523655   1524004   1523370   1522185   1520983  
  9020.000000   1520210   1520109   1520637   1521532   1522406  
  9010.000000   1522915   1522875   1522312   1521431   1520487  
  9000.000000   1519683   1519044   1518416   1517483   1515924  
  8990.000000   1513544   1510428   1506948   1503715   1501433  
  8980.000000   1500707   1501865   1504813   1509067   1513868  
  8970.000000   1518396   1521976   1524245   1525224   1525238  
  8960.000000   1524767   1524259   1524015   1524109   1524449  
  8950.000000   1524828   1525053   1524988   1524569   1523800  
  8940.000000   1522687   1521275   1519618   1517864   1516214  
  8930.000000   1514931   1514243   1514269   1514959   1516085  
  8920.000000   1517324   1518352   1518952   1519055   1518734  
  8910.000000   1518134   1517408   1516666   1515968   1515371  
  8900.000000   1514960   1514868   1515221   1516078   1517359  
  8890.000000   1518829   1520152   1520964   1521026   1520255  
  8880.000000   1518795   1516879   1514811   1512811   1511048  
  8870.000000   1509603   1508535   1507948   1507970   1508777  
  8860.000000   1510456   1513029   1516392   1520348   1524621  
  8850.000000   1528870   1532764   1535920   1538003   1538685  
  8840.000000   1537819   1535448   1531931   1527884   1524105  
  8830.000000   1521403   1520377   1521292   1523977   1527955  
  8820.000000   1532547   1537103   1541090   1544208   1546369  
  8810.000000   1547648   1548221   1548290   1548104   1547894  
  8800.000000   1547911   1548324   1549220   1550520   1551993  
  8790.000000   1553325   1554200   1554439   1554042   1553216  
  8780.000000   1552306   1551686   1551651   1552317   1553622  
  8770.000000   1555354   1557248   1559072   1560673   1562017  
  8760.000000   1563160   1564234   1565375   1566694   1568250  
  8750.000000   1570016   1571914   1573781   1575437   1576677  
  8740.000000   1577343   1577344   1576685   1575503   1574048  
  8730.000000   1572686   1571808   1571787   1572853   1575061  
  8720.000000   1578212   1581912   1585611   1588755   1590926  
  8710.000000   1591946   1591930   1591192   1590167   1589210  
  8700.000000   1588552   1588192   1588007   1587807   1587499  
  8690.000000   1587141   1586929   1587160   1588082   1589858  
  8680.000000   1592468   1595783   1599595   1603687   1607884  
  8670.000000   1612009   1615905   1619351   1622123   1623975  
  8660.000000   1624771   1624518   1623442   1621942   1620525  
  8650.000000   1619694   1619829   1621136   1623571   1626900  
  8640.000000   1630702   1634509   1637870   1640450   1642101  
  8630.000000   1642874   1643031   1642936   1642978   1643424  
  8620.000000   1644399   1645839   1647579   1649437   1651298  
  8610.000000   1653178   1655161   1657379   1659864   1662565  
  8600.000000   1665299   1667870   1670133   1672067   1673771  
  8590.000000   1675383   1676984   1678499   1679697   1680263  
  8580.000000   1679950   1678704   1676728   1674459   1672427  
  8570.000000   1671113   1670773   1671410   1672785   1674559  
  8560.000000   1676406   1678116   1679621   1680945   1682139  
  8550.000000   1683215   1684144   1684876   1685416   1685836  
  8540.000000   1686306   1687014   1688122   1689686   1691620  
  8530.000000   1693735   1695774   1697518   1698819   1699654  
  8520.000000   1700109   1700344   1700546   1700867   1701398  
  8510.000000   1702132   1702984   1703802   1704423   1704723  
  8500.000000   1704672   1704360   1703974   1703764   1703953  
  8490.000000   1704678   1705934   1707591   1709456   1711320  
  8480.000000   1713047   1714569   1715915   1717125   1718236  
  8470.000000   1719229   1720075   1720751   1721296   1721829  
  8460.000000   1722541   1723643   1725285   1727512   1730226  
  8450.000000   1733222   1736227   1738972   1741240   1742902  
  8440.000000   1743926   1744366   1744342   1744033   1743653  
  8430.000000   1743426   1743534   1744091   1745093   1746432  
  8420.000000   1747887   1749229   1750252   1750870   1751092  
  8410.000000   1751039   1750857   1750685   1750585   1750556  
  8400.000000   1750555   1750542   1750509   1750479   1750495  
  8390.000000   1750581   1750718   1750837   1750846   1750676  
  8380.000000   1750319   1749845   1749370   1749036   1748954  
  8370.000000   1749197   1749773   1750648   1751766   1753059  
  8360.000000   1754443   1755791   1756930   1757652   1757780  
  8350.000000   1757215   1756010   1754374   1752659   1751252  
  8340.000000   1750473   1750472   1751183   1752377   1753725  
  8330.000000   1754944   1755870   1756508   1756996   1757520  
  8320.000000   1758220   1759106   1760064   1760877   1761326  
  8310.000000   1761270   1760707   1759785   1758745   1757864  
  8300.000000   1757360   1757366   1757871   1758750   1759783  
  8290.000000   1760713   1761294   1761337   1760743   1759528  
  8280.000000   1757834   1755906   1754036   1752501   1751488  
  8270.000000   1751069   1751170   1751628   1752227   1752794  
  8260.000000   1753225   1753515   1753707   1753844   1753923  
  8250.000000   1753859   1753516   1752745   1751475   1749751  
  8240.000000   1747759   1745780   1744107   1742974   1742465  
  8230.000000   1742523   1742946   1743478   1743874   1743972  
  8220.000000   1743720   1743158   1742388   1741514   1740610  
  8210.000000   1739701   1738773   1737807   1736802   1735802  
  8200.000000   1734872   1734098   1733530   1733185   1733012  
  8190.000000   1732917   1732769   1732428   1731772   1730712  
  8180.000000   1729220   1727319   1725103   1722710   1720319  
  8170.000000   1718114   1716252   1714828   1713841   1713213  
  8160.000000   1712793   1712432   1712004   1711472   1710867  
  8150.000000   1710283   1709818   1709527   1709386   1709281  
  8140.000000   1709060   1708557   1707666   1706356   1704677  
  8130.000000   1702739   1700670   1698595   1696609   1694795  
  8120.000000   1693215   1691930   1690975   1690354   1690001  
  8110.000000   1689794   1689561   1689129   1688382   1687286  
  8100.000000   1685918   1684420   1682971   1681704   1680685  
  8090.000000   1679878   1679182   1678469   1677639   1676652  
  8080.000000   1675538   1674386   1673302   1672386   1671694  
  8070.000000   1671233   1670965   1670810   1670673   1670447  
  8060.000000   1670040   1669384   1668449   1667260   1665887  
  8050.000000   1664445   1663059   1661841   1660861   1660124  
  8040.000000   1659574   1659113   1658617   1657986   1657147  
  8030.000000   1656093   1654865   1653551   1652263   1651106  
  8020.000000   1650164   1649462   1648981   1648634   1648308  
  8010.000000   1647866   1647198   1646238   1644992   1643547  
  8000.000000   1642048   1640691   1639666   1639129   1639154  
  7990.000000   1639718   1640682   1641817   1642838   1643464  
  7980.000000   1643487   1642811   1641499   1639730   1637778  
  7970.000000   1635908   1634324   1633109   1632231   1631577  
  7960.000000   1631024   1630501   1630015   1629655   1629523  
  7950.000000   1629694   1630143   1630752   1631336   1631708  
  7940.000000   1631758   1631478   1630976   1630407   1629922  
  7930.000000   1629587   1629376   1629178   1628865   1628346  
  7920.000000   1627619   1626769   1625929   1625235   1624754  
  7910.000000   1624489   1624367   1624303   1624229   1624134  
  7900.000000   1624051   1624026   1624085   1624190   1624259  
  7890.000000   1624177   1623859   1623269   1622458   1621525  
  7880.000000   1620598   1619780   1619126   1618653   1618347  
  7870.000000   1618202   1618229   1618455   1618886   1619485  
  7860.000000   1620145   1620705   1620993   1620876   1620325  
  7850.000000   1619411   1618309   1617220   1616325   1615717  
  7840.000000   1615393   1615273   1615237   1615189   1615073  
  7830.000000   1614904   1614723   1614599   1614575   1614679  
  7820.000000   1614901   1615214   1615566   1615889   1616096  
  7810.000000   1616085   1615762   1615066   1613999   1612636  
  7800.000000   1611121   1609620   1608275   1607157   1606244  
  7790.000000   1605438   1604608   1603658   1602565   1601404  
  7780.000000   1600317   1599471   1598981   1598889   1599131  
  7770.000000   1599577   1600068   1600468   1600696   1600723  
  7760.000000   1600566   1600242   1599755   1599077   1598168  
  7750.000000   1596994   1595561   1593939   1592255   1590677  
  7740.000000   1589372   1588468   1588004   1587929   1588096  
  7730.000000   1588305   1588349   1588069   1587402   1586385  
  7720.000000   1585158   1583903   1582807   1581998   1581525  
  7710.000000   1581347   1581364   1581452   1581505   1581459  
  7700.000000   1581296   1581040   1580729   1580408   1580110  
  7690.000000   1579852   1579643   1579478   1579354   1579249  
  7680.000000   1579140   1578992   1578769   1578448   1578028  
  7670.000000   1577538   1577035   1576592   1576284   1576164  
  7660.000000   1576243   1576489   1576822   1577139   1577337  
  7650.000000   1577344   1577138   1576756   1576280   1575812  
  7640.000000   1575441   1575215   1575128   1575123   1575121  
  7630.000000   1575044   1574857   1574558   1574189   1573795  
  7620.000000   1573411   1573044   1572687   1572328   1571990  
  7610.000000   1571726   1571621   1571754   1572166   1572834  
  7600.000000   1573674   1574566   1575403   1576122   1576729  
  7590.000000   1577278   1577847   1578482   1579189   1579908  
  7580.000000   1580568   1581096   1581480   1581754   1582000  
  7570.000000   1582304   1582727   1583289   1583961   1584703  
  7560.000000   1585481   1586289   1587151   1588095   1589140  
  7550.000000   1590263   1591412   1592501   1593456   1594221  
  7540.000000   1594801   1595232   1595604   1596013   1596565  
  7530.000000   1597334   1598367   1599661   1601175   1602838  
  7520.000000   1604567   1606290   1607964   1609582   1611166  
  7510.000000   1612746   1614338   1615921   1617457   1618884  
  7500.000000   1620175   1621328   1622403   1623475   1624619  
  7490.000000   1625869   1627214   1628610   1630020   1631451  
  7480.000000   1632980   1634729   1636827   1639347   1642264  
  7470.000000   1645441   1648674   1651743   1654507   1656919  
  7460.000000   1659054   1661036   1663014   1665066   1667208  
  7450.000000   1669378   1671502   1673517   1675421   1677265  
  7440.000000   1679141   1681148   1683358   1685813   1688518  
  7430.000000   1691457   1694594   1697869   1701204   1704489  
  7420.000000   1707612   1710462   1712981   1715171   1717111  
  7410.000000   1718929   1720774   1722774   1725006   1727493  
  7400.000000   1730203   1733078   1736043   1739029   1741959  
  7390.000000   1744767   1747386   1749770   1751906   1753827  
  7380.000000   1755610   1757360   1759170   1761098   1763142  
  7370.000000   1765249   1767342   1769359   1771279   1773133  
  7360.000000   1774991   1776923   1778974   1781137   1783356  
  7350.000000   1785552   1787659   1789663   1791613   1793614  
  7340.000000   1795787   1798232   1800984   1804002   1807170  
  7330.000000   1810325   1813300   1815957   1818222   1820085  
  7320.000000   1821603   1822869   1823985   1825046   1826127  
  7310.000000   1827286   1828558   1829978   1831557   1833303  
  7300.000000   1835188   1837173   1839183   1841148   1842999  
  7290.000000   1844703   1846257   1847686   1849027   1850298  
  7280.000000   1851499   1852602   1853572   1854396   1855094  
  7270.000000   1855730   1856395   1857178   1858136   1859274  
  7260.000000   1860545   1861869   1863160   1864359   1865452  
  7250.000000   1866463   1867454   1868482   1869610   1870861  
  7240.000000   1872256   1873778   1875422   1877153   1878960  
  7230.000000   1880810   1882700   1884624   1886616   1888711  
  7220.000000   1890981   1893471   1896232   1899260   1902546  
  7210.000000   1906028   1909662   1913378   1917143   1920912  
  7200.000000   1924676   1928416   1932149   1935884   1939682  
  7190.000000   1943589   1947681   1951990   1956529   1961238  
  7180.000000   1966040   1970824   1975525   1980105   1984606  
  7170.000000   1989091   1993657   1998357   2003227   2008233  
  7160.000000   2013341   2018498   2023695   2028943   2034293  
  7150.000000   2039786   2045470   2051345   2057406   2063606  
  7140.000000   2069920   2076296   2082719   2089147   2095575  
  7130.000000   2101975   2108364   2114760   2121238   2127873  
  7120.000000   2134767   2141976   2149530   2157382   2165456  
  7110.000000   2173631   2181810   2189905   2197892   2205765  
  7100.000000   2213572   2221348   2229149   2236997   2244920  
  7090.000000   2252915   2260992   2269145   2277387   2285726  
  7080.000000   2294176   2302738   2311402   2320137   2328891  
  7070.000000   2337599   2346203   2354661   2362967   2371152  
  7060.000000   2379277   2387406   2395591   2403850   2412157  
  7050.000000   2420455   2428666   2436732   2444615   2452332  
  7040.000000   2459927   2467476   2475041   2482672   2490363  
  7030.000000   2498085   2505761   2513321   2520693   2527854  
  7020.000000   2534804   2541596   2548279   2554913   2561507  
  7010.000000   2568055   2574501   2580804   2586921   2592863  
  7000.000000   2598654   2604356   2609994   2615588   2621090  
  6990.000000   2626450   2631595   2636510   2641200   2645740  
  6980.000000   2650195   2654636   2659063   2663448   2667703  
  6970.000000   2671759   2675554   2679101   2682439   2685657  
  6960.000000   2688827   2692017   2695240   2698496   2701744  
  6950.000000   2704956   2708085   2711111   2714001   2716751  
  6940.000000   2719345   2721800   2724120   2726330   2728430  
  6930.000000   2730424   2732291   2734022   2735612   2737093  
  6920.000000   2738505   2739910   2741338   2742791   2744220  
  6910.000000   2745563   2746753   2747781   2748683   2749558  
  6900.000000   2750511   2751628   2752926   2754355   2755808  
  6890.000000   2757171   2758355   2759331   2760129   2760819  
  6880.000000   2761481   2762183   2762964   2763844   2764823  
  6870.000000   2765892   2767030   2768201   2769351   2770426  
  6860.000000   2771380   2772207   2772940   2773653   2774423  
  6850.000000   2775297   2776269   2777272   2778202   2778957  
  6840.000000   2779481   2779781   2779924   2780016   2780153  
  6830.000000   2780408   2780805   2781344   2782003   2782769  
  6820.000000   2783623   2784550   2785509   2786447   2787295  
  6810.000000   2787996   2788518   2788869   2789081   2789201  
  6800.000000   2789258   2789265   2789211   2789090   2788902  
  6790.000000   2788680   2788455   2788262   2788095   2787931  
  6780.000000   2787714   2787414   2787020   2786578   2786149  
  6770.000000   2785799   2785543   2785351   2785135   2784802  
  6760.000000   2784279   2783551   2782659   2781684   2780702  
  6750.000000   2779764   2778867   2777983   2777068   2776104  
  6740.000000   2775098   2774088   2773112   2772202   2771358  
  6730.000000   2770566   2769793   2769015   2768211   2767361  
  6720.000000   2766436   2765397   2764201   2762828   2761291  
  6710.000000   2759658   2758027   2756509   2755174   2754045  
  6700.000000   2753069   2752159   2751208   2750148   2748948  
  6690.000000   2747629   2746232   2744793   2743323   2741806  
  6680.000000   2740210   2738516   2736728   2734887   2733049  
  6670.000000   2731281   2729622   2728092   2726671   2725324  
  6660.000000   2723993   2722629   2721181   2719615   2717911  
  6650.000000   2716074   2714132   2712135   2710137   2708192  
  6640.000000   2706326   2704538   2702796   2701056   2699268  
  6630.000000   2697410   2695477   2693497   2691498   2689520  
  6620.000000   2687579   2685683   2683820   2681968   2680097  
  6610.000000   2678178   2676184   2674099   2671923   2669674  
  6600.000000   2667387   2665104   2662858   2660667   2658524  
  6590.000000   2656405   2654286   2652161   2650050   2647993  
  6580.000000   2646040   2644220   2642532   2640934   2639363  
  6570.000000   2637754   2636071   2634308   2632496   2630675  
  6560.000000   2628884   2627134   2625419   2623718   2622022  
  6550.000000   2620341   2618706   2617155   2615718   2614398  
  6540.000000   2613171   2611993   2610816   2609600   2608331  
  6530.000000   2607008   2605645   2604261   2602879   2601520  
  6520.000000   2600210   2598970   2597816   2596738   2595708  
  6510.000000   2594670   2593568   2592358   2591031   2589622  
  6500.000000   2588197   2586835   2585599   2584516   2583573  
  6490.000000   2582722   2581906   2581076   2580201   2579277  
  6480.000000   2578310   2577308   2576272   2575194   2574062  
  6470.000000   2572866   2571602   2570273   2568891   2567475  
  6460.000000   2566048   2564643   2563293   2562030   2560871  
  6450.000000   2559811   2558816   2557838   2556823   2555732  
  6440.000000   2554559   2553329   2552088   2550877   2549720  
  6430.000000   2548603   2547493   2546341   2545123   2543837  
  6420.000000   2542522   2541233   2540032   2538954   2538013  
  6410.000000   2537190   2536454   2535773   2535120   2534480  
  6400.000000   2533848   2533219   2532597   2531983   2531384  
  6390.000000   2530806   2530250   2529705   2529150   2528549  
  6380.000000   2527871   2527097   2526236   2525321   2524401  
  6370.000000   2523520   2522697   2521923   2521159   2520359  
  6360.000000   2519490   2518547   2517553   2516550   2515578  
  6350.000000   2514661   2513794   2512957   2512120   2511261  
  6340.000000   2510372   2509463   2508548   2507648   2506773  
  6330.000000   2505934   2505129   2504358   2503609   2502867  
  6320.000000   2502098   2501270   2500343   2499300   2498137  
  6310.000000   2496887   2495587   2494285   2493000   2491735  
  6300.000000   2490456   2489126   2487702   2486167   2484515  
  6290.000000   2482765   2480928   2479023   2477049   2475010  
  6280.000000   2472905   2470752   2468562   2466360   2464147  
  6270.000000   2461922   2459660   2457346   2454965   2452532  
  6260.000000   2450069   2447614   2445185   2442790   2440405  
  6250.000000   2437998   2435534   2432998   2430395   2427751  
  6240.000000   2425095   2422448   2419811   2417170   2414497  
  6230.000000   2411778   2409012   2406223   2403445   2400722  
  6220.000000   2398082   2395539   2393076   2390660   2388245  
  6210.000000   2385788   2383255   2380633   2377930   2375176  
  6200.000000   2372413   2369682   2367020   2364443   2361952  
  6190.000000   2359527   2357146   2354784   2352428   2350072  
  6180.000000   2347720   2345374   2343039   2340713   2338401  
  6170.000000   2336106   2333844   2331629   2329474   2327378  
  6160.000000   2325327   2323290   2321236   2319142   2317004  
  6150.000000   2314841   2312689   2310591   2308579   2306668  
  6140.000000   2304848   2303091   2301359   2299613   2297827  
  6130.000000   2295985   2294096   2292177   2290267   2288404  
  6120.000000   2286635   2284990   2283488   2282117   2280855  
  6110.000000   2279657   2278486   2277310   2276127   2274942  
  6100.000000   2273784   2272674   2271638   2270677   2269800  
  6090.000000   2268997   2268274   2267628   2267065   2266574  
  6080.000000   2266149   2265764   2265408   2265065   2264745  
  6070.000000   2264459   2264239   2264096   2264048   2264086  
  6060.000000   2264205   2264387   2264635   2264948   2265347  
  6050.000000   2265838   2266435   2267125   2267904   2268750  
  6040.000000   2269661   2270632   2271679   2272810   2274045  
  6030.000000   2275380   2276822   2278356   2279980   2281679  
  6020.000000   2283450   2285274   2287142   2289031   2290933  
  6010.000000   2292836   2294746   2296669   2298614   2300574  
  6000.000000   2302535   2304461   2306324   2308093   2309766  
  5990.000000   2311357   2312902   2314439   2316004   2317614  
  5980.000000   2319281   2321005   2322791   2324649   2326597  
  5970.000000   2328649   2330809   2333062   2335379   2337721  
  5960.000000   2340059   2342367   2344647   2346903   2349150  
  5950.000000   2351392   2353633   2355860   2358069   2360255  
  5940.000000   2362429   2364608   2366817   2369080   2371415  
  5930.000000   2373829   2376321   2378880   2381488   2384120  
  5920.000000   2386750   2389350   2391900   2394389   2396823  
  5910.000000   2399215   2401585   2403946   2406305   2408656  
  5900.000000   2410987   2413287   2415555   2417806   2420060  
  5890.000000   2422343   2424668   2427036   2429428   2431820  
  5880.000000   2434182   2436492   2438742   2440931   2443064  
  5870.000000   2445146   2447183   2449176   2451134   2453063  
  5860.000000   2454985   2456913   2458868   2460864   2462918  
  5850.000000   2465043   2467264   2469601   2472081   2474723  
  5840.000000   2477533   2480504   2483614   2486835   2490134  
  5830.000000   2493481   2496848   2500206   2503523   2506766  
  5820.000000   2509893   2512879   2515697   2518344   2520815  
  5810.000000   2523125   2525270   2527260   2529078   2530733  
  5800.000000   2532211   2533540   2534717   2535778   2536716  
  5790.000000   2537548   2538246   2538809   2539198   2539402  
  5780.000000   2539382   2539122   2538587   2537772   2536676  
  5770.000000   2535339   2533820   2532210   2530595   2529052  
  5760.000000   2527620   2526312   2525108   2523985   2522928  
  5750.000000   2521943   2521051   2520281   2519654   2519164  
  5740.000000   2518797   2518515   2518295   2518111   2517969  
  5730.000000   2517870   2517828   2517839   2517901   2517996  
  5720.000000   2518118   2518260   2518437   2518659   2518945  
  5710.000000   2519300   2519730   2520227   2520789   2521407  
  5700.000000   2522078   2522791   2523525   2524255   2524949  
  5690.000000   2525588   2526168   2526711   2527249   2527820  
  5680.000000   2528443   2529117   2529806   2530462   2531024  
  5670.000000   2531452   2531715   2531817   2531766   2531593  
  5660.000000   2531320   2530977   2530585   2530171   2529748  
  5650.000000   2529332   2528918   2528504   2528073   2527619  
  5640.000000   2527134   2526631   2526118   2525610   2525111  
  5630.000000   2524618   2524119   2523606   2523082   2522560  
  5620.000000   2522060   2521603   2521198   2520840   2520513  
  5610.000000   2520199   2519884   2519570   2519263   2518974  
  5600.000000   2518700   2518427   2518123   2517759   2517309  
  5590.000000   2516769   2516150   2515479   2514777   2514059  
  5580.000000   2513322   2512556   2511742   2510871   2509935  
  5570.000000   2508938   2507880   2506762   2505582   2504341  
  5560.000000   2503045   2501715   2500374   2499052   2497769  
  5550.000000   2496535   2495350   2494206   2493094   2492010  
  5540.000000   2490952   2489919   2488903   2487891   2486867  
  5530.000000   2485819   2484744   2483653   2482564   2481496  
  5520.000000   2480461   2479459   2478476   2477499   2476514  
  5510.000000   2475516   2474503   2473476   2472429   2471354  
  5500.000000   2470238   2469081   2467891   2466694   2465518  
  5490.000000   2464386   2463296   2462229   2461143   2460000  
  5480.000000   2458764   2457430   2456001   2454501   2452946  
  5470.000000   2451344   2449688   2447971   2446185   2444335  
  5460.000000   2442432   2440495   2438531   2436545   2434529  
  5450.000000   2432484   2430414   2428339   2426285   2424277  
  5440.000000   2422323   2420413   2418526   2416636   2414733  
  5430.000000   2412817   2410910   2409026   2407188   2405393  
  5420.000000   2403652   2401967   2400375   2398908   2397623  
  5410.000000   2396543   2395681   2394996   2394451   2393983  
  5400.000000   2393577   2393219   2392949   2392787   2392784  
  5390.000000   2392942   2393284   2393791   2394483   2395356  
  5380.000000   2396449   2397754   2399286   2400998   2402873  
  5370.000000   2404850   2406938   2409116   2411442   2413924  
  5360.000000   2416630   2419549   2422736   2426168   2429916  
  5350.000000   2433984   2438475   2443399   2448845   2454775  
  5340.000000   2461237   2468164   2475612   2483530   2492005  
  5330.000000   2500992   2510569   2520665   2531334   2542502  
  5320.000000   2554258   2566571   2579586   2593299   2607855  
  5310.000000   2623211   2639459   2656505   2674413   2693094  
  5300.000000   2712644   2733026   2754384   2776719   2800176  
  5290.000000   2824720   2850406   2877089   2904693   2932994  
  5280.000000   2961898   2991266   3021138   3051542   3082621  
  5270.000000   3114420   3146947   3180047   3213479   3246953  
  5260.000000   3280203   3313098   3345586   3377753   3409627  
  5250.000000   3441257   3472492   3503200   3533085   3562025  
  5240.000000   3589832   3616592   3642296   3667154   3691172  
  5230.000000   3714495   3737009   3758740   3779491   3799268  
  5220.000000   3817919   3835545   3852095   3867762   3882546  
  5210.000000   3896629   3909952   3922591   3934380   3945326  
  5200.000000   3955260   3964259   3972265   3979456   3985837  
  5190.000000   3991571   3996611   4001033   4004727   4007742  
  5180.000000   4009990   4011559   4012406   4012632   4012188  
  5170.000000   4011145   4009448   4007179   4004322   4000997  
  5160.000000   3997215   3993082   3988574   3983743   3978536  
  5150.000000   3972999   3967107   3960936   3954489   3947830  
  5140.000000   3940940   3933844   3926505   3918954   3911190  
  5130.000000   3903278   3895248   3887158   3879008   3870812  
  5120.000000   3862538   3854190   3845760   3837286   3828794  
  5110.000000   3820332   3811918   3803567   3795265   3787009  
  5100.000000   3778788   3770610   3762480   3754410   3746393  
  5090.000000   3738422   3730469   3722519   3714549   3706560  
  5080.000000   3698547   3690518   3682467   3674393   3666280  
  5070.000000   3658128   3649931   3641700   3633444   3625182  
  5060.000000   3616916   3608652   3600382   3592106   3583814  
  5050.000000   3575511   3567194   3558868   3550530   3542181  
  5040.000000   3533824   3525467   3517130   3508834   3500603  
  5030.000000   3492450   3484384   3476397   3468487   3460645  
  5020.000000   3452886   3445221   3437687   3430298   3423084  
  5010.000000   3416032   3409146   3402391   3395767   3389250  
  5000.000000   3382868   3376625   3370576   3364733   3359153  
  4990.000000   3353834   3348815   3344078   3339651   3335506  
  4980.000000   3331672   3328120   3324890   3321962   3319388  
  4970.000000   3317154   3315315   3313846   3312782   3312075  
  4960.000000   3311742   3311728   3312059   3312698   3313699  
  4950.000000   3315042   3316782   3318889   3321399   3324263  
  4940.000000   3327505   3331080   3335021   3339296   3343938  
  4930.000000   3348904   3354209   3359788   3365643   3371716  
  4920.000000   3378021   3384528   3391272   3398236   3405454  
  4910.000000   3412904   3420604   3428522   3436665   3445000  
  4900.000000   3453524   3462204   3471031   3479975   3489025  
  4890.000000   3498162   3507375   3516647   3525955   3535270  
  4880.000000   3544550   3553757   3562844   3571785   3580545  
  4870.000000   3589113   3597464   3605598   3613493   3621158  
  4860.000000   3628579   3635780   3642758   3649544   3656136  
  4850.000000   3662563   3668816   3674924   3680883   3686730  
  4840.000000   3692461   3698106   3703646   3709086   3714387  
  4830.000000   3719546   3724531   3729355   3734010   3738525  
  4820.000000   3742894   3747135   3751222   3755154   3758895  
  4810.000000   3762446   3765783   3768925   3771866   3774637  
  4800.000000   3777244   3779724   3782088   3784376   3786598  
  4790.000000   3788783   3790925   3793030   3795071   3797046  
  4780.000000   3798932   3800738   3802462   3804125   3805727  
  4770.000000   3807277   3808755   3810153   3811435   3812596  
  4760.000000   3813610   3814486   3815216   3815818   3816284  
  4750.000000   3816629   3816836   3816915   3816840   3816616  
  4740.000000   3816214   3815637   3814859   3813892   3812727  
  4730.000000   3811394   3809903   3808292   3806570   3804761  
  4720.000000   3802859   3800867   3798768   3796560   3794234  
  4710.000000   3791803   3789275   3786675   3784025   3781356  
  4700.000000   3778694   3776071   3773510   3771035   3768657  
  4690.000000   3766382   3764201   3762100   3760055   3758042  
  4680.000000   3756036   3754010   3751944   3749811   3747596  
  4670.000000   3745281   3742868   3740362   3737794   3735197  
  4660.000000   3732623   3730115   3727726   3725485   3723427  
  4650.000000   3721562   3719904   3718449   3717196   3716127  
  4640.000000   3715230   3714478   3713855   3713334   3712907  
  4630.000000   3712550   3712255   3711996   3711755   3711495  
  4620.000000   3711192   3710812   3710341   3709767   3709098  
  4610.000000   3708345   3707533   3706687   3705832   3704998  
  4600.000000   3704209   3703486   3702846   3702295   3701828  
  4590.000000   3701432   3701085   3700763   3700440   3700097  
  4580.000000   3699722   3699308   3698855   3698372   3697869  
  4570.000000   3697357   3696846   3696339   3695827   3695295  
  4560.000000   3694716   3694064   3693317   3692466   3691514  
  4550.000000   3690480   3689389   3688264   3687129   3685993  
  4540.000000   3684872   3683769   3682708   3681700   3680781  
  4530.000000   3679959   3679268   3678703   3678295   3678034  
  4520.000000   3677966   3678090   3678475   3679124   3680113  
  4510.000000   3681435   3683168   3685298   3687913   3691005  
  4500.000000   3694669   3698890   3703754   3709222   3715361  
  4490.000000   3722121   3729565   3737652   3746449   3755916  
  4480.000000   3766107   3776961   3788502   3800649   3813401  
  4470.000000   3826670   3840440   3854612   3869151   3883952  
  4460.000000   3898964   3914086   3929274   3944452   3959588  
  4450.000000   3974630   3989556   4004337   4018960   4033431  
  4440.000000   4047751   4061959   4076059   4090095   4104040  
  4430.000000   4117918   4131662   4145274   4158655   4171801  
  4420.000000   4184594   4197022   4208950   4220356   4231091  
  4410.000000   4241128   4250320   4258649   4265984   4272330  
  4400.000000   4277596   4281827   4284997   4287210   4288507  
  4390.000000   4289043   4288907   4288271   4287237   4285964  
  4380.000000   4284551   4283136   4281819   4280726   4279956  
  4370.000000   4279611   4279768   4280475   4281763   4283620  
  4360.000000   4286037   4288964   4292374   4296202   4300409  
  4350.000000   4304923   4309693   4314654   4319766   4324997  
  4340.000000   4330340   4335789   4341328   4346898   4352383  
  4330.000000   4357605   4362342   4366368   4369499   4371658  
  4320.000000   4372881   4373348   4373311   4373091   4372948  
  4310.000000   4373108   4373656   4374619   4375910   4377447  
  4300.000000   4379100   4380799   4382459   4384045   4385506  
  4290.000000   4386815   4387932   4388839   4389518   4389987  
  4280.000000   4390262   4390394   4390412   4390373   4390293  
  4270.000000   4390217   4390138   4390064   4389944   4389728  
  4260.000000   4389307   4388582   4387432   4385785   4383606  
  4250.000000   4380937   4377870   4374559   4371159   4367833  
  4240.000000   4364691   4361813   4359210   4356872   4354744  
  4230.000000   4352779   4350915   4349102   4347292   4345438  
  4220.000000   4343504   4341452   4339274   4336965   4334562  
  4210.000000   4332102   4329655   4327272   4325015   4322910  
  4200.000000   4320980   4319215   4317611   4316136   4314784  
  4190.000000   4313521   4312358   4311263   4310263   4309334  
  4180.000000   4308525   4307830   4307328   4307044   4307088  
  4170.000000   4307508   4308427   4309883   4311978   4314701  
  4160.000000   4318108   4322137   4326806   4332029   4337823  
  4150.000000   4344114   4350940   4358242   4366077   4374396  
  4140.000000   4383264   4392638   4402583   4413055   4424107  
  4130.000000   4435676   4447788   4460366   4473424   4486894  
  4120.000000   4500804   4515116   4529871   4545040   4560658  
  4110.000000   4576684   4593130   4609941   4627109   4644567  
  4100.000000   4662290   4680206   4698285   4716473   4734765  
  4090.000000   4753152   4771659   4790304   4809108   4828079  
  4080.000000   4847198   4866446   4885773   4905154   4924533  
  4070.000000   4943895   4963181   4982389   5001457   5020397  
  4060.000000   5039144   5057715   5076020   5094051   5111676  
  4050.000000   5128868   5145481   5161519   5176865   5191565  
  4040.000000   5205512   5218753   5231156   5242753   5253408  
  4030.000000   5263181   5271959   5279822   5286665   5292538  
  4020.000000   5297290   5300972   5303518   5305031   5305461  
  4010.000000   5305004   5303768   5301839   5299020   5295440  
  4000.000000   5291477  
##END= 
