##TITLE= Sample 020 By ssteindl date Dienstag, November 20 2018
##JCAMP-DX= 4.24
##DATA TYPE= INFRARED SPECTRUM
##ORIGIN= Exported PE Spectrum Data File
##OWNER= Sandra Steindl
##DATE= 18/11/20
##TIME= 10:16:59.00
##SPECTROMETER/DATA SYSTEM= PERKIN-ELMER Frontier FT-IR/NIR IR
##INSTRUMENT PARAMETERS=
  APODIZATION=stark
  DETECTOR=INGAAS
##RESOLUTION= 16.000000
##DELTAX= -2.000000
##XUNITS= 1/CM
##YUNITS= A
##XFACTOR= 1.00
##YFACTOR= 0.00000011920928955078
##FIRSTX= 10000.00
##LASTX= 4000.00
##NPOINTS= 3001
##FIRSTY= 0.199534
##MAXY= 0.598321
##MINY= 0.172553
##XYDATA= (X++(Y..Y))
 10000.000000   1673815   1677749   1680889   1682173   1681430  
  9990.000000   1679341   1676731   1674311   1672673   1672132  
  9980.000000   1672425   1672910   1672877   1671926   1670014  
  9970.000000   1667563   1665227   1663678   1663300   1664094  
  9960.000000   1665727   1667652   1669342   1670352   1670422  
  9950.000000   1669415   1667340   1664364   1660836   1657343  
  9940.000000   1654596   1653314   1653959   1656575   1660706  
  9930.000000   1665492   1669932   1673136   1674596   1674197  
  9920.000000   1672218   1669075   1665266   1661193   1657257  
  9910.000000   1653863   1651446   1650441   1651090   1653414  
  9900.000000   1657083   1661632   1666525   1671419   1676136  
  9890.000000   1680628   1684787   1688264   1690520   1690877  
  9880.000000   1688942   1684733   1678914   1672568   1666888  
  9870.000000   1662776   1660507   1659823   1660079   1660756  
  9860.000000   1661610   1662864   1664876   1667945   1671922  
  9850.000000   1676226   1679951   1682234   1682585   1681030  
  9840.000000   1678108   1674517   1670875   1667397   1663967  
  9830.000000   1660266   1656064   1651384   1646494   1641794  
  9820.000000   1637618   1634164   1631508   1629722   1628957  
  9810.000000   1629432   1631292   1634422   1638328   1642210  
  9800.000000   1645223   1646816   1647014   1646414   1645982  
  9790.000000   1646583   1648607   1651717   1654980   1657207  
  9780.000000   1657462   1655402   1651407   1646391   1641431  
  9770.000000   1637403   1634711   1633314   1632819   1632774  
  9760.000000   1632802   1632738   1632581   1632451   1632479  
  9750.000000   1632781   1633390   1634266   1635237   1636014  
  9740.000000   1636247   1635609   1634004   1631601   1628894  
  9730.000000   1626489   1624908   1624295   1624338   1624340  
  9720.000000   1623529   1621410   1618016   1613998   1610360  
  9710.000000   1608154   1608044   1610137   1613967   1618730  
  9700.000000   1623555   1627739   1630831   1632604   1632948  
  9690.000000   1631837   1629364   1625818   1621753   1617863  
  9680.000000   1614827   1612978   1612214   1611934   1611322  
  9670.000000   1609655   1606607   1602428   1597792   1593616  
  9660.000000   1590654   1589381   1589869   1591974   1595432  
  9650.000000   1600012   1605438   1611293   1616887   1621284  
  9640.000000   1623536   1622966   1619529   1613808   1606938  
  9630.000000   1600094   1594178   1589482   1585778   1582559  
  9620.000000   1579389   1576225   1573386   1571480   1570988  
  9610.000000   1572104   1574569   1577846   1581355   1584678  
  9600.000000   1587701   1590431   1592894   1594889   1596047  
  9590.000000   1595948   1594412   1591680   1588432   1585584  
  9580.000000   1583940   1583883   1585206   1587234   1589046  
  9570.000000   1589869   1589256   1587217   1584081   1580340  
  9560.000000   1576480   1572886   1569871   1567658   1566420  
  9550.000000   1566159   1566670   1567484   1567989   1567640  
  9540.000000   1566187   1563861   1561312   1559431   1558999  
  9530.000000   1560387   1563416   1567408   1571464   1574763  
  9520.000000   1576803   1577478   1576970   1575602   1573660  
  9510.000000   1571365   1568887   1566425   1564255   1562648  
  9500.000000   1561796   1561634   1561820   1561773   1560854  
  9490.000000   1558634   1555043   1550510   1545794   1541843  
  9480.000000   1539467   1539168   1541013   1544658   1549447  
  9470.000000   1554535   1559009   1562018   1562881   1561250  
  9460.000000   1557226   1551397   1544788   1538582   1533869  
  9450.000000   1531272   1530815   1531882   1533412   1534244  
  9440.000000   1533458   1530714   1526336   1521230   1516574  
  9430.000000   1513441   1512511   1513877   1517099   1521289  
  9420.000000   1525419   1528550   1530142   1530140   1528981  
  9410.000000   1527382   1526093   1525650   1526237   1527670  
  9400.000000   1529511   1531241   1532464   1533044   1533118  
  9390.000000   1533018   1533062   1533422   1534019   1534578  
  9380.000000   1534732   1534163   1532722   1530491   1527778  
  9370.000000   1525049   1522783   1521366   1520957   1521494  
  9360.000000   1522693   1524137   1525361   1525970   1525727  
  9350.000000   1524618   1522839   1520739   1518706   1517068  
  9340.000000   1516007   1515542   1515540   1515791   1516079  
  9330.000000   1516246   1516216   1515962   1515490   1514785  
  9320.000000   1513833   1512594   1511044   1509174   1507042  
  9310.000000   1504786   1502641   1500911   1499896   1499850  
  9300.000000   1500878   1502910   1505655   1508651   1511355  
  9290.000000   1513289   1514150   1513883   1512649   1510764  
  9280.000000   1508601   1506491   1504686   1503309   1502409  
  9270.000000   1501947   1501801   1501737   1501391   1500373  
  9260.000000   1498390   1495421   1491788   1488122   1485200  
  9250.000000   1483696   1483951   1485784   1488550   1491345  
  9240.000000   1493383   1494228   1493938   1492953   1491893  
  9230.000000   1491274   1491321   1491937   1492838   1493748  
  9220.000000   1494557   1495352   1496311   1497563   1499032  
  9210.000000   1500478   1501530   1501886   1501394   1500148  
  9200.000000   1498413   1496504   1494643   1492911   1491279  
  9190.000000   1489692   1488101   1486498   1484855   1483110  
  9180.000000   1481140   1478813   1476086   1473093   1470182  
  9170.000000   1467796   1466307   1465814   1466096   1466648  
  9160.000000   1466926   1466546   1465521   1464203   1463166  
  9150.000000   1462907   1463649   1465223   1467175   1468983  
  9140.000000   1470318   1471166   1471811   1472653   1473981  
  9130.000000   1475807   1477831   1479577   1480607   1480684  
  9120.000000   1479869   1478451   1476829   1475336   1474136  
  9110.000000   1473241   1472556   1472006   1471551   1471219  
  9100.000000   1471041   1471040   1471192   1471468   1471830  
  9090.000000   1472263   1472734   1473171   1473452   1473415  
  9080.000000   1472954   1472062   1470902   1469743   1468879  
  9070.000000   1468467   1468437   1468503   1468280   1467474  
  9060.000000   1466013   1464154   1462362   1461164   1460889  
  9050.000000   1461586   1463009   1464702   1466196   1467120  
  9040.000000   1467342   1466839   1465661   1463804   1461301  
  9030.000000   1458217   1454783   1451430   1448780   1447477  
  9020.000000   1447948   1450287   1454173   1459016   1464048  
  9010.000000   1468625   1472327   1475039   1476848   1477924  
  9000.000000   1478429   1478428   1477933   1476896   1475305  
  8990.000000   1473178   1470597   1467668   1464514   1461288  
  8980.000000   1458155   1455326   1452980   1451272   1450252  
  8970.000000   1449882   1450036   1450575   1451413   1452527  
  8960.000000   1453949   1455668   1457594   1459491   1461066  
  8950.000000   1462037   1462294   1461943   1461303   1460797  
  8940.000000   1460791   1461468   1462736   1464313   1465813  
  8930.000000   1466915   1467434   1467364   1466820   1465947  
  8920.000000   1464838   1463512   1461961   1460201   1458326  
  8910.000000   1456503   1454933   1453790   1453155   1453006  
  8900.000000   1453220   1453650   1454167   1454697   1455230  
  8890.000000   1455769   1456333   1456895   1457435   1457905  
  8880.000000   1458290   1458581   1458809   1459020   1459304  
  8870.000000   1459762   1460504   1461611   1463098   1464892  
  8860.000000   1466814   1468629   1470102   1471095   1471620  
  8850.000000   1471837   1471996   1472321   1472933   1473781  
  8840.000000   1474684   1475395   1475729   1475635   1475235  
  8830.000000   1474768   1474495   1474603   1475149   1476081  
  8820.000000   1477293   1478685   1480218   1481894   1483736  
  8810.000000   1485722   1487756   1489690   1491368   1492712  
  8800.000000   1493753   1494642   1495596   1496813   1498391  
  8790.000000   1500283   1502300   1504169   1505604   1506405  
  8780.000000   1506500   1505978   1505050   1504008   1503134  
  8770.000000   1502659   1502683   1503185   1504030   1505031  
  8760.000000   1506019   1506888   1507611   1508223   1508763  
  8750.000000   1509243   1509628   1509854   1509901   1509819  
  8740.000000   1509784   1510017   1510736   1512024   1513769  
  8730.000000   1515674   1517353   1518486   1518952   1518898  
  8720.000000   1518684   1518766   1519502   1521031   1523216  
  8710.000000   1525701   1528064   1529938   1531156   1531731  
  8700.000000   1531833   1531654   1531341   1530955   1530500  
  8690.000000   1530011   1529593   1529469   1529919   1531205  
  8680.000000   1533455   1536607   1540385   1544348   1547984  
  8670.000000   1550813   1552519   1552989   1552374   1551016  
  8660.000000   1549410   1548069   1547438   1547794   1549182  
  8650.000000   1551435   1554215   1557144   1559886   1562240  
  8640.000000   1564140   1565645   1566862   1567894   1568799  
  8630.000000   1569584   1570258   1570839   1571415   1572091  
  8620.000000   1572980   1574122   1575471   1576891   1578199  
  8610.000000   1579238   1579930   1580315   1580556   1580884  
  8600.000000   1581545   1582730   1584527   1586902   1589697  
  8590.000000   1592679   1595597   1598234   1600468   1602281  
  8580.000000   1603781   1605127   1606488   1607952   1609517  
  8570.000000   1611079   1612501   1613682   1614628   1615480  
  8560.000000   1616465   1617840   1619767   1622269   1625167  
  8550.000000   1628175   1630966   1633302   1635087   1636391  
  8540.000000   1637408   1638355   1639391   1640547   1641729  
  8530.000000   1642751   1643408   1643568   1643219   1642511  
  8520.000000   1641700   1641125   1641098   1641843   1643400  
  8510.000000   1645613   1648155   1650594   1652515   1653620  
  8500.000000   1653836   1653319   1652405   1651518   1651047  
  8490.000000   1651245   1652171   1653716   1655681   1657838  
  8480.000000   1659990   1661987   1663731   1665136   1666119  
  8470.000000   1666606   1666593   1666167   1665524   1664940  
  8460.000000   1664711   1665085   1666176   1667959   1670269  
  8450.000000   1672872   1675506   1677946   1680011   1681576  
  8440.000000   1682575   1682986   1682868   1682354   1681677  
  8430.000000   1681110   1680922   1681297   1682262   1683703  
  8420.000000   1685350   1686925   1688193   1689087   1689688  
  8410.000000   1690205   1690857   1691779   1692939   1694136  
  8400.000000   1695058   1695389   1694932   1693691   1691888  
  8390.000000   1689910   1688163   1686988   1686534   1686753  
  8380.000000   1687408   1688186   1688802   1689084   1689003  
  8370.000000   1688647   1688153   1687637   1687143   1686635  
  8360.000000   1686045   1685330   1684542   1683816   1683338  
  8350.000000   1683265   1683643   1684376   1685215   1685861  
  8340.000000   1686045   1685647   1684727   1683508   1682291  
  8330.000000   1681351   1680845   1680748   1680879   1680964  
  8320.000000   1680741   1680038   1678810   1677156   1675270  
  8310.000000   1673409   1671808   1670643   1670000   1669871  
  8300.000000   1670160   1670691   1671243   1671581   1671519  
  8290.000000   1670952   1669887   1668433   1666789   1665182  
  8280.000000   1663822   1662843   1662284   1662090   1662139  
  8270.000000   1662292   1662415   1662423   1662271   1661971  
  8260.000000   1661555   1661066   1660529   1659953   1659326  
  8250.000000   1658628   1657847   1656983   1656058   1655105  
  8240.000000   1654149   1653195   1652211   1651137   1649902  
  8230.000000   1648461   1646817   1645047   1643287   1641700  
  8220.000000   1640416   1639505   1638934   1638599   1638342  
  8210.000000   1638021   1637536   1636866   1636046   1635148  
  8200.000000   1634226   1633297   1632333   1631264   1630016  
  8190.000000   1628527   1626770   1624753   1622519   1620137  
  8180.000000   1617694   1615293   1613036   1611027   1609338  
  8170.000000   1608006   1607007   1606276   1605713   1605216  
  8160.000000   1604706   1604130   1603458   1602660   1601702  
  8150.000000   1600532   1599113   1597448   1595618   1593776  
  8140.000000   1592117   1590815   1589949   1589469   1589190  
  8130.000000   1588854   1588211   1587107   1585534   1583624  
  8120.000000   1581601   1579693   1578065   1576764   1575735  
  8110.000000   1574851   1573980   1573031   1571978   1570854  
  8100.000000   1569724   1568664   1567732   1566963   1566371  
  8090.000000   1565947   1565666   1565471   1565297   1565052  
  8080.000000   1564662   1564071   1563275   1562305   1561230  
  8070.000000   1560122   1559041   1558034   1557129   1556366  
  8060.000000   1555787   1555447   1555375   1555563   1555926  
  8050.000000   1556326   1556585   1556549   1556129   1555332  
  8040.000000   1554249   1553018   1551775   1550607   1549544  
  8030.000000   1548552   1547584   1546585   1545524   1544382  
  8020.000000   1543143   1541796   1540340   1538818   1537339  
  8010.000000   1536084   1535266   1535063   1535542   1536603  
  8000.000000   1537984   1539326   1540277   1540600   1540251  
  7990.000000   1539367   1538216   1537077   1536147   1535470  
  7980.000000   1534956   1534429   1533726   1532765   1531576  
  7970.000000   1530285   1529047   1527991   1527169   1526566  
  7960.000000   1526117   1525750   1525429   1525139   1524896  
  7950.000000   1524702   1524542   1524368   1524132   1523798  
  7940.000000   1523382   1522938   1522569   1522375   1522439  
  7930.000000   1522790   1523408   1524224   1525144   1526069  
  7920.000000   1526915   1527620   1528156   1528519   1528734  
  7910.000000   1528842   1528891   1528922   1528957   1528992  
  7900.000000   1528998   1528934   1528755   1528441   1527998  
  7890.000000   1527474   1526942   1526501   1526242   1526238  
  7880.000000   1526518   1527054   1527760   1528502   1529128  
  7870.000000   1529501   1529542   1529255   1528743   1528183  
  7860.000000   1527785   1527726   1528096   1528864   1529883  
  7850.000000   1530940   1531813   1532356   1532529   1532415  
  7840.000000   1532172   1531969   1531920   1532033   1532213  
  7830.000000   1532293   1532107   1531558   1530662   1529560  
  7820.000000   1528473   1527646   1527264   1527404   1528006  
  7810.000000   1528901   1529853   1530637   1531087   1531145  
  7800.000000   1530853   1530338   1529755   1529248   1528906  
  7790.000000   1528748   1528724   1528737   1528675   1528444  
  7780.000000   1527992   1527329   1526515   1525661   1524878  
  7770.000000   1524272   1523892   1523737   1523744   1523828  
  7760.000000   1523896   1523887   1523780   1523594   1523361  
  7750.000000   1523095   1522774   1522334   1521694   1520784  
  7740.000000   1519599   1518206   1516746   1515399   1514332  
  7730.000000   1513653   1513379   1513443   1513713   1514042  
  7720.000000   1514308   1514433   1514403   1514233   1513967  
  7710.000000   1513641   1513288   1512926   1512578   1512271  
  7700.000000   1512046   1511946   1512012   1512271   1512716  
  7690.000000   1513314   1513995   1514663   1515215   1515552  
  7680.000000   1515611   1515372   1514872   1514197   1513462  
  7670.000000   1512790   1512273   1511968   1511878   1511969  
  7660.000000   1512174   1512420   1512630   1512742   1512703  
  7650.000000   1512479   1512057   1511449   1510706   1509903  
  7640.000000   1509142   1508520   1508116   1507966   1508057  
  7630.000000   1508333   1508709   1509090   1509395   1509568  
  7620.000000   1509590   1509474   1509278   1509080   1508977  
  7610.000000   1509046   1509324   1509778   1510308   1510771  
  7600.000000   1511030   1511005   1510715   1510279   1509889  
  7590.000000   1509738   1509956   1510549   1511397   1512285  
  7580.000000   1512995   1513367   1513369   1513089   1512704  
  7570.000000   1512412   1512366   1512638   1513210   1514001  
  7560.000000   1514915   1515864   1516794   1517669   1518462  
  7550.000000   1519144   1519684   1520060   1520281   1520381  
  7540.000000   1520432   1520504   1520669   1520966   1521405  
  7530.000000   1521965   1522613   1523314   1524039   1524770  
  7520.000000   1525500   1526228   1526970   1527747   1528592  
  7510.000000   1529521   1530541   1531622   1532717   1533759  
  7500.000000   1534703   1535535   1536301   1537078   1537959  
  7490.000000   1539013   1540267   1541693   1543228   1544796  
  7480.000000   1546348   1547865   1549364   1550875   1552420  
  7470.000000   1554000   1555601   1557198   1558784   1560365  
  7460.000000   1561963   1563589   1565235   1566853   1568377  
  7450.000000   1569742   1570919   1571932   1572861   1573821  
  7440.000000   1574931   1576274   1577878   1579714   1581713  
  7430.000000   1583787   1585856   1587851   1589739   1591500  
  7420.000000   1593143   1594687   1596174   1597652   1599186  
  7410.000000   1600823   1602604   1604536   1606599   1608750  
  7400.000000   1610932   1613095   1615196   1617216   1619149  
  7390.000000   1621010   1622825   1624629   1626453   1628329  
  7380.000000   1630268   1632262   1634280   1636277   1638204  
  7370.000000   1640025   1641722   1643295   1644755   1646112  
  7360.000000   1647365   1648507   1649536   1650469   1651356  
  7350.000000   1652280   1653343   1654639   1656216   1658069  
  7340.000000   1660131   1662306   1664492   1666613   1668639  
  7330.000000   1670567   1672415   1674190   1675888   1677481  
  7320.000000   1678948   1680277   1681496   1682664   1683869  
  7310.000000   1685196   1686702   1688395   1690230   1692123  
  7300.000000   1693976   1695712   1697294   1698736   1700096  
  7290.000000   1701452   1702876   1704403   1706027   1707698  
  7280.000000   1709346   1710904   1712329   1713623   1714823  
  7270.000000   1715996   1717209   1718513   1719931   1721449  
  7260.000000   1723035   1724638   1726215   1727728   1729160  
  7250.000000   1730503   1731777   1733006   1734241   1735529  
  7240.000000   1736927   1738462   1740150   1741969   1743901  
  7230.000000   1745916   1748019   1750227   1752588   1755134  
  7220.000000   1757886   1760814   1763865   1766952   1770010  
  7210.000000   1772986   1775887   1778732   1781576   1784448  
  7200.000000   1787370   1790331   1793329   1796356   1799439  
  7190.000000   1802608   1805899   1809320   1812848   1816425  
  7180.000000   1819984   1823472   1826875   1830220   1833568  
  7170.000000   1836974   1840485   1844089   1847756   1851411  
  7160.000000   1854997   1858459   1861785   1864978   1868090  
  7150.000000   1871179   1874343   1877683   1881313   1885315  
  7140.000000   1889735   1894539   1899643   1904905   1910196  
  7130.000000   1915402   1920483   1925442   1930344   1935248  
  7120.000000   1940221   1945278   1950425   1955627   1960865  
  7110.000000   1966109   1971350   1976576   1981786   1986972  
  7100.000000   1992154   1997357   2002636   2008038   2013596  
  7090.000000   2019298   2025088   2030882   2036599   2042198  
  7080.000000   2047698   2053169   2058703   2064363   2070150  
  7070.000000   2075988   2081758   2087333   2092645   2097696  
  7060.000000   2102568   2107379   2112243   2117234   2122366  
  7050.000000   2127619   2132950   2138333   2143758   2149229  
  7040.000000   2154738   2160256   2165719   2171059   2176221  
  7030.000000   2181188   2185991   2190693   2195361   2200042  
  7020.000000   2204740   2209428   2214057   2218596   2223033  
  7010.000000   2227402   2231742   2236106   2240513   2244963  
  7000.000000   2249406   2253782   2258009   2262029   2265797  
  6990.000000   2269316   2272615   2275761   2278825   2281876  
  6980.000000   2284943   2288026   2291075   2294039   2296867  
  6970.000000   2299559   2302149   2304721   2307349   2310097  
  6960.000000   2312965   2315914   2318864   2321747   2324510  
  6950.000000   2327147   2329672   2332111   2334464   2336714  
  6940.000000   2338822   2340766   2342548   2344214   2345825  
  6930.000000   2347450   2349118   2350828   2352535   2354199  
  6920.000000   2355793   2357331   2358851   2360397   2361984  
  6910.000000   2363584   2365128   2366542   2367769   2368815  
  6900.000000   2369743   2370660   2371678   2372882   2374293  
  6890.000000   2375880   2377562   2379250   2380858   2382335  
  6880.000000   2383658   2384838   2385900   2386885   2387830  
  6870.000000   2388767   2389709   2390643   2391540   2392360  
  6860.000000   2393072   2393674   2394200   2394720   2395311  
  6850.000000   2396042   2396936   2397973   2399093   2400224  
  6840.000000   2401303   2402297   2403198   2404018   2404765  
  6830.000000   2405438   2406029   2406532   2406959   2407347  
  6820.000000   2407750   2408220   2408783   2409437   2410139  
  6810.000000   2410839   2411487   2412066   2412580   2413058  
  6800.000000   2413527   2414003   2414476   2414920   2415299  
  6790.000000   2415585   2415759   2415815   2415756   2415595  
  6780.000000   2415353   2415062   2414766   2414516   2414352  
  6770.000000   2414299   2414348   2414466   2414613   2414751  
  6760.000000   2414871   2414981   2415108   2415270   2415468  
  6750.000000   2415676   2415862   2415998   2416089   2416171  
  6740.000000   2416305   2416551   2416951   2417506   2418188  
  6730.000000   2418947   2419732   2420508   2421251   2421948  
  6720.000000   2422584   2423145   2423617   2424004   2424332  
  6710.000000   2424647   2424997   2425410   2425875   2426346  
  6700.000000   2426753   2427040   2427179   2427200   2427163  
  6690.000000   2427145   2427193   2427320   2427486   2427640  
  6680.000000   2427725   2427721   2427635   2427502   2427353  
  6670.000000   2427206   2427042   2426835   2426543   2426149  
  6660.000000   2425645   2425046   2424367   2423622   2422813  
  6650.000000   2421946   2421029   2420089   2419151   2418245  
  6640.000000   2417375   2416530   2415678   2414796   2413870  
  6630.000000   2412924   2411991   2411118   2410327   2409614  
  6620.000000   2408943   2408267   2407536   2406725   2405828  
  6610.000000   2404855   2403814   2402709   2401533   2400286  
  6600.000000   2398978   2397646   2396327   2395061   2393850  
  6590.000000   2392672   2391467   2390179   2388766   2387227  
  6580.000000   2385599   2383942   2382312   2380742   2379236  
  6570.000000   2377773   2376331   2374900   2373490   2372127  
  6560.000000   2370835   2369627   2368490   2367403   2366337  
  6550.000000   2365282   2364239   2363220   2362229   2361252  
  6540.000000   2360255   2359189   2358010   2356694   2355246  
  6530.000000   2353693   2352079   2350445   2348823   2347235  
  6520.000000   2345697   2344224   2342832   2341534   2340332  
  6510.000000   2339213   2338148   2337104   2336053   2334982  
  6500.000000   2333893   2332797   2331704   2330613   2329512  
  6490.000000   2328383   2327214   2326008   2324780   2323555  
  6480.000000   2322351   2321170   2319994   2318794   2317538  
  6470.000000   2316209   2314807   2313356   2311884   2310422  
  6460.000000   2308990   2307597   2306239   2304908   2303592  
  6450.000000   2302282   2300973   2299662   2298359   2297074  
  6440.000000   2295831   2294646   2293534   2292488   2291490  
  6430.000000   2290505   2289508   2288484   2287456   2286462  
  6420.000000   2285561   2284790   2284165   2283654   2283206  
  6410.000000   2282749   2282241   2281657   2281019   2280361  
  6400.000000   2279734   2279164   2278667   2278240   2277878  
  6390.000000   2277582   2277365   2277243   2277228   2277315  
  6380.000000   2277481   2277684   2277879   2278027   2278103  
  6370.000000   2278096   2278003   2277826   2277570   2277241  
  6360.000000   2276859   2276453   2276057   2275707   2275421  
  6350.000000   2275201   2275021   2274850   2274649   2274401  
  6340.000000   2274094   2273735   2273329   2272875   2272362  
  6330.000000   2271773   2271089   2270309   2269448   2268542  
  6320.000000   2267633   2266767   2265970   2265257   2264613  
  6310.000000   2264016   2263423   2262796   2262096   2261303  
  6300.000000   2260406   2259417   2258357   2257256   2256135  
  6290.000000   2255003   2253850   2252656   2251395   2250055  
  6280.000000   2248641   2247178   2245701   2244246   2242833  
  6270.000000   2241471   2240149   2238857   2237584   2236334  
  6260.000000   2235113   2233931   2232785   2231665   2230548  
  6250.000000   2229408   2228228   2226996   2225712   2224374  
  6240.000000   2222981   2221522   2219992   2218394   2216750  
  6230.000000   2215103   2213509   2212017   2210660   2209440  
  6220.000000   2208333   2207294   2206279   2205249   2204190  
  6210.000000   2203099   2201991   2200880   2199781   2198703  
  6200.000000   2197656   2196646   2195684   2194774   2193918  
  6190.000000   2193109   2192340   2191601   2190888   2190202  
  6180.000000   2189542   2188906   2188279   2187635   2186947  
  6170.000000   2186190   2185353   2184445   2183491   2182520  
  6160.000000   2181556   2180608   2179666   2178708   2177710  
  6150.000000   2176654   2175537   2174377   2173200   2172039  
  6140.000000   2170925   2169881   2168914   2168019   2167178  
  6130.000000   2166361   2165539   2164687   2163797   2162871  
  6120.000000   2161935   2161016   2160147   2159345   2158622  
  6110.000000   2157971   2157391   2156880   2156449   2156108  
  6100.000000   2155871   2155732   2155673   2155655   2155644  
  6090.000000   2155604   2155531   2155432   2155338   2155271  
  6080.000000   2155252   2155273   2155321   2155366   2155395  
  6070.000000   2155398   2155395   2155404   2155464   2155595  
  6060.000000   2155827   2156169   2156639   2157234   2157963  
  6050.000000   2158810   2159769   2160812   2161937   2163129  
  6040.000000   2164412   2165800   2167333   2169023   2170886  
  6030.000000   2172896   2175035   2177260   2179550   2181879  
  6020.000000   2184247   2186642   2189065   2191495   2193927  
  6010.000000   2196342   2198753   2201167   2203624   2206144  
  6000.000000   2208759   2211464   2214265   2217142   2220101  
  5990.000000   2223144   2226306   2229608   2233092   2236765  
  5980.000000   2240636   2244679   2248878   2253195   2257613  
  5970.000000   2262101   2266651   2271240   2275869   2280526  
  5960.000000   2285229   2289981   2294804   2299696   2304659  
  5950.000000   2309666   2314703   2319748   2324805   2329893  
  5940.000000   2335049   2340308   2345689   2351189   2356774  
  5930.000000   2362397   2368003   2373550   2379005   2384354  
  5920.000000   2389573   2394645   2399531   2404202   2408625  
  5910.000000   2412800   2416732   2420462   2424021   2427456  
  5900.000000   2430784   2434036   2437217   2440357   2443463  
  5890.000000   2446567   2449665   2452766   2455839   2458864  
  5880.000000   2461803   2464640   2467354   2469944   2472396  
  5870.000000   2474705   2476856   2478842   2480671   2482376  
  5860.000000   2484006   2485624   2487288   2489038   2490892  
  5850.000000   2492850   2494901   2497039   2499264   2501582  
  5840.000000   2503994   2506494   2509060   2511660   2514265  
  5830.000000   2516851   2519415   2521957   2524490   2527010  
  5820.000000   2529514   2531983   2534401   2536764   2539079  
  5810.000000   2541371   2543660   2545972   2548304   2550660  
  5800.000000   2553010   2555360   2557684   2560006   2562305  
  5790.000000   2564590   2566805   2568909   2570792   2572364  
  5780.000000   2573494   2574086   2574042   2573325   2571922  
  5770.000000   2569902   2567364   2564474   2561394   2558306  
  5760.000000   2555330   2552567   2550040   2547759   2545685  
  5750.000000   2543796   2542052   2540438   2538920   2537473  
  5740.000000   2536059   2534636   2533175   2531652   2530067  
  5730.000000   2528424   2526746   2525048   2523352   2521671  
  5720.000000   2520028   2518443   2516939   2515532   2514231  
  5710.000000   2513028   2511907   2510843   2509817   2508815  
  5700.000000   2507836   2506881   2505952   2505047   2504155  
  5690.000000   2503273   2502389   2501516   2500655   2499825  
  5680.000000   2499018   2498227   2497407   2496514   2495476  
  5670.000000   2494232   2492712   2490875   2488685   2486146  
  5660.000000   2483285   2480172   2476898   2473576   2470305  
  5650.000000   2467170   2464206   2461421   2458786   2456268  
  5640.000000   2453835   2451474   2449188   2446982   2444867  
  5630.000000   2442836   2440882   2438989   2437159   2435390  
  5620.000000   2433704   2432109   2430618   2429221   2427908  
  5610.000000   2426654   2425453   2424294   2423187   2422133  
  5600.000000   2421137   2420185   2419266   2418362   2417472  
  5590.000000   2416604   2415778   2415013   2414323   2413699  
  5580.000000   2413121   2412558   2411980   2411367   2410713  
  5570.000000   2410021   2409294   2408535   2407735   2406887  
  5560.000000   2405980   2405015   2403995   2402936   2401851  
  5550.000000   2400755   2399658   2398572   2397505   2396464  
  5540.000000   2395453   2394469   2393498   2392526   2391537  
  5530.000000   2390530   2389516   2388518   2387566   2386678  
  5520.000000   2385860   2385094   2384350   2383594   2382794  
  5510.000000   2381936   2381011   2380021   2378967   2377851  
  5500.000000   2376676   2375456   2374209   2372966   2371748  
  5490.000000   2370567   2369403   2368223   2366977   2365631  
  5480.000000   2364168   2362605   2360974   2359324   2357686  
  5470.000000   2356081   2354503   2352938   2351373   2349803  
  5460.000000   2348228   2346653   2345074   2343480   2341853  
  5450.000000   2340184   2338475   2336748   2335038   2333378  
  5440.000000   2331792   2330281   2328840   2327450   2326108  
  5430.000000   2324811   2323569   2322379   2321237   2320119  
  5420.000000   2319010   2317899   2316812   2315784   2314874  
  5410.000000   2314115   2313523   2313060   2312684   2312335  
  5400.000000   2311995   2311663   2311393   2311229   2311234  
  5390.000000   2311420   2311796   2312322   2312990   2313775  
  5380.000000   2314705   2315788   2317061   2318513   2320152  
  5370.000000   2321930   2323842   2325846   2327967   2330190  
  5360.000000   2332566   2335089   2337818   2340750   2343958  
  5350.000000   2347451   2351313   2355541   2360199   2365250  
  5340.000000   2370733   2376593   2382884   2389574   2396737  
  5330.000000   2404336   2412431   2420955   2429949   2439347  
  5320.000000   2449229   2459579   2470535   2482106   2494434  
  5310.000000   2507493   2521373   2535996   2551415   2567547  
  5300.000000   2584457   2602092   2620545   2639786   2659909  
  5290.000000   2680865   2702693   2725272   2748555   2772365  
  5280.000000   2796636   2821248   2846235   2871605   2897480  
  5270.000000   2923900   2950905   2978398   3006230   3034193  
  5260.000000   3062108   3089875   3117481   3144998   3172492  
  5250.000000   3200014   3227484   3254786   3281684   3308029  
  5240.000000   3333644   3358543   3382718   3406323   3429397  
  5230.000000   3452064   3474265   3496000   3517103   3537529  
  5220.000000   3557135   3575969   3594000   3611387   3628160  
  5210.000000   3644471   3660277   3675610   3690304   3704314  
  5200.000000   3717473   3729815   3741295   3752066   3762152  
  5190.000000   3771705   3780694   3789184   3797078   3804408  
  5180.000000   3811087   3817184   3822655   3827582   3831914  
  5170.000000   3835710   3838909   3841573   3843676   3845313  
  5160.000000   3846480   3847262   3847619   3847590   3847106  
  5150.000000   3846200   3844834   3843082   3840945   3838504  
  5140.000000   3835748   3832728   3829414   3825845   3822012  
  5130.000000   3817973   3813740   3809366   3804847   3800207  
  5120.000000   3795424   3790512   3785464   3780315   3775081  
  5110.000000   3769801   3764485   3759156   3753816   3748485  
  5100.000000   3743176   3737920   3732736   3727641   3722633  
  5090.000000   3717702   3712827   3707992   3703183   3698400  
  5080.000000   3693640   3688906   3684189   3679482   3674768  
  5070.000000   3670041   3665289   3660512   3655697   3650840  
  5060.000000   3645911   3640898   3635768   3630518   3625136  
  5050.000000   3619633   3614004   3608258   3602376   3596355  
  5040.000000   3590179   3583861   3577412   3570872   3564272  
  5030.000000   3557651   3551020   3544393   3537762   3531130  
  5020.000000   3524497   3517879   3511298   3504773   3498325  
  5010.000000   3491958   3485681   3479484   3473377   3467356  
  5000.000000   3461440   3455634   3449965   3444432   3439065  
  4990.000000   3433860   3428847   3424024   3419421   3415028  
  4980.000000   3410867   3406917   3403195   3399676   3396385  
  4970.000000   3393300   3390457   3387835   3385467   3383327  
  4960.000000   3381451   3379815   3378470   3377404   3376680  
  4950.000000   3376285   3376274   3376616   3377349   3378427  
  4940.000000   3379885   3381685   3383872   3386412   3389351  
  4930.000000   3392651   3396350   3400406   3404862   3409685  
  4920.000000   3414933   3420583   3426689   3433221   3440212  
  4910.000000   3447614   3455437   3463625   3472172   3481024  
  4900.000000   3490160   3499527   3509096   3518825   3528681  
  4890.000000   3538638   3548651   3558687   3568667   3578529  
  4880.000000   3588156   3597477   3606365   3614773   3622596  
  4870.000000   3629814   3636335   3642156   3647191   3651456  
  4860.000000   3654888   3657544   3659404   3660563   3661031  
  4850.000000   3660916   3660233   3659081   3657467   3655481  
  4840.000000   3653136   3650522   3647670   3644674   3641583  
  4830.000000   3638489   3635441   3632507   3629716   3627096  
  4820.000000   3624650   3622373   3620264   3618314   3616533  
  4810.000000   3614922   3613497   3612250   3611188   3610284  
  4800.000000   3609541   3608934   3608478   3608171   3608042  
  4790.000000   3608093   3608342   3608770   3609366   3610090  
  4780.000000   3610924   3611833   3612813   3613847   3614939  
  4770.000000   3616075   3617253   3618453   3619669   3620886  
  4760.000000   3622104   3623319   3624542   3625775   3627030  
  4750.000000   3628312   3629635   3631003   3632425   3633896  
  4740.000000   3635409   3636940   3638467   3639966   3641429  
  4730.000000   3642855   3644268   3645686   3647139   3648631  
  4720.000000   3650169   3651730   3653314   3654902   3656519  
  4710.000000   3658183   3659948   3661846   3663933   3666225  
  4700.000000   3668753   3671519   3674546   3677838   3681422  
  4690.000000   3685302   3689493   3693974   3698726   3703692  
  4680.000000   3708825   3714046   3719303   3724522   3729666  
  4670.000000   3734683   3739565   3744302   3748926   3753471  
  4660.000000   3758004   3762580   3767270   3772119   3777163  
  4650.000000   3782411   3787855   3793471   3799223   3805078  
  4640.000000   3810997   3816955   3822921   3828882   3834809  
  4630.000000   3840687   3846478   3852157   3857670   3862986  
  4620.000000   3868045   3872820   3877262   3881365   3885100  
  4610.000000   3888486   3891516   3894232   3896643   3898805  
  4600.000000   3900732   3902483   3904068   3905541   3906898  
  4590.000000   3908176   3909349   3910423   3911350   3912114  
  4580.000000   3912664   3912992   3913071   3912924   3912561  
  4570.000000   3912028   3911347   3910561   3909679   3908726  
  4560.000000   3907699   3906616   3905476   3904302   3903099  
  4550.000000   3901891   3900676   3899465   3898243   3897006  
  4540.000000   3895731   3894411   3893026   3891569   3890031  
  4530.000000   3888405   3886686   3884869   3882955   3880940  
  4520.000000   3878842   3876666   3874453   3872223   3870041  
  4510.000000   3867939   3865994   3864238   3862754   3861561  
  4500.000000   3860740   3860295   3860303   3860753   3861720  
  4490.000000   3863185   3865228   3867830   3871082   3874965  
  4480.000000   3879575   3884889   3890992   3897844   3905504  
  4470.000000   3913908   3923089   3932959   3943525   3954687  
  4460.000000   3966431   3978647   3991308   4004303   4017599  
  4450.000000   4031102   4044792   4058611   4072564   4086626  
  4440.000000   4100806   4115085   4129437   4143821   4158169  
  4430.000000   4172428   4186515   4200397   4214004   4227330  
  4420.000000   4240316   4252962   4265201   4277024   4288355  
  4410.000000   4299180   4309426   4319093   4328135   4336584  
  4400.000000   4344436   4351771   4358634   4365141   4371371  
  4390.000000   4377458   4383483   4389566   4395761   4402139  
  4380.000000   4408702   4415462   4422367   4429391   4436468  
  4370.000000   4443572   4450660   4457725   4464740   4471707  
  4360.000000   4478590   4485388   4492044   4498563   4504867  
  4350.000000   4510968   4516761   4522266   4527373   4532131  
  4340.000000   4536469   4540462   4544027   4547133   4549521  
  4330.000000   4550898   4550782   4548743   4544387   4537594  
  4320.000000   4528502   4517609   4505611   4493347   4481566  
  4310.000000   4470869   4461570   4453763   4447331   4442074  
  4300.000000   4437777   4434262   4431430   4429202   4427569  
  4290.000000   4426469   4425911   4425832   4426256   4427152  
  4280.000000   4428550   4430418   4432729   4435406   4438348  
  4270.000000   4441448   4444575   4447609   4450381   4452702  
  4260.000000   4454313   4454946   4454322   4452258   4448675  
  4250.000000   4443686   4437532   4430611   4423330   4416120  
  4240.000000   4409275   4403021   4397394   4392373   4387815  
  4230.000000   4383582   4379507   4375470   4371384   4367205  
  4220.000000   4362948   4358643   4354380   4350226   4346295  
  4210.000000   4342643   4339356   4336443   4333937   4331801  
  4200.000000   4330026   4328556   4327377   4326437   4325739  
  4190.000000   4325243   4324967   4324870   4324968   4325210  
  4180.000000   4325606   4326106   4326733   4327466   4328365  
  4170.000000   4329447   4330805   4332469   4334529   4336996  
  4160.000000   4339926   4343298   4347139   4351403   4356101  
  4150.000000   4361173   4366625   4372391   4378480   4384836  
  4140.000000   4391490   4398410   4405649   4413182   4421060  
  4130.000000   4429238   4437744   4446520   4455594   4464932  
  4120.000000   4474595   4484593   4495018   4505905   4517344  
  4110.000000   4529351   4541977   4555190   4568977   4583252  
  4100.000000   4597948   4612945   4628161   4643499   4658915  
  4090.000000   4674374   4689877   4705432   4721046   4736729  
  4080.000000   4752452   4768205   4783916   4799551   4814997  
  4070.000000   4830193   4844993   4859330   4873063   4886168  
  4060.000000   4898552   4910248   4921201   4931466   4940990  
  4050.000000   4949837   4957967   4965475   4972349   4978698  
  4040.000000   4984498   4989820   4994599   4998881   5002606  
  4030.000000   5005857   5008624   5011020   5013053   5014803  
  4020.000000   5016223   5017357   5018193   5018770   5019044  
  4010.000000   5019084   5018923   5018511   5017621   5016235  
  4000.000000   5014596  
##END= 
