##TITLE= Sample 002 By ssteindl date Dienstag, November 20 2018
##JCAMP-DX= 4.24
##DATA TYPE= INFRARED SPECTRUM
##ORIGIN= Exported PE Spectrum Data File
##OWNER= Sandra Steindl
##DATE= 18/11/20
##TIME= 09:51:53.00
##SPECTROMETER/DATA SYSTEM= PERKIN-ELMER Frontier FT-IR/NIR IR
##INSTRUMENT PARAMETERS=
  APODIZATION=stark
  DETECTOR=INGAAS
##RESOLUTION= 16.000000
##DELTAX= -2.000000
##XUNITS= 1/CM
##YUNITS= A
##XFACTOR= 1.00
##YFACTOR= 0.00000011920928955078
##FIRSTX= 10000.00
##LASTX= 4000.00
##NPOINTS= 3001
##FIRSTY= 0.212140
##MAXY= 0.592141
##MINY= 0.183247
##XYDATA= (X++(Y..Y))
 10000.000000   1779557   1786167   1793286   1800692   1806343  
  9990.000000   1807722   1803661   1794930   1783446   1771825  
  9980.000000   1762723   1758100   1758292   1762205   1767843  
  9970.000000   1773204   1776741   1777800   1776479   1773365  
  9960.000000   1769122   1764349   1759513   1755096   1751624  
  9950.000000   1749605   1749331   1750653   1752942   1755222  
  9940.000000   1756517   1756185   1754121   1750658   1746331  
  9930.000000   1741503   1736263   1730467   1724055   1717365  
  9920.000000   1711210   1706758   1705039   1706546   1710936  
  9910.000000   1717094   1723517   1728740   1731792   1732266  
  9900.000000   1730301   1726266   1720667   1714012   1707026  
  9890.000000   1700661   1696139   1694591   1696660   1702075  
  9880.000000   1709574   1717200   1722949   1725479   1724611  
  9870.000000   1721346   1717442   1714684   1714237   1716314  
  9860.000000   1720295   1725193   1730134   1734754   1739098  
  9850.000000   1743461   1747879   1752046   1755236   1756692  
  9840.000000   1755957   1753091   1748713   1743582   1738366  
  9830.000000   1733233   1727965   1722139   1715523   1708370  
  9820.000000   1701392   1695645   1692038   1691177   1693072  
  9810.000000   1697370   1703434   1710653   1718494   1726472  
  9800.000000   1734080   1740590   1745236   1747210   1746141  
  9790.000000   1742098   1735829   1728403   1721008   1714569  
  9780.000000   1709567   1706137   1704121   1703473   1704189  
  9770.000000   1706505   1710508   1716100   1722689   1729323  
  9760.000000   1734861   1738274   1739028   1737095   1733049  
  9750.000000   1727681   1721835   1716080   1710683   1705683  
  9740.000000   1701072   1697008   1693840   1692057   1692003  
  9730.000000   1693709   1696701   1700129   1702972   1704419  
  9720.000000   1704135   1702400   1699981   1697858   1696847  
  9710.000000   1697326   1699170   1701826   1704622   1706913  
  9700.000000   1708286   1708447   1707192   1704291   1699564  
  9690.000000   1693032   1685116   1676760   1669297   1664191  
  9680.000000   1662518   1664655   1670011   1677282   1684791  
  9670.000000   1691081   1695272   1697202   1697272   1696061  
  9660.000000   1694075   1691493   1688348   1684614   1680504  
  9650.000000   1676459   1673030   1670670   1669442   1669077  
  9640.000000   1669026   1668866   1668461   1668097   1668247  
  9630.000000   1669229   1670892   1672499   1673031   1671581  
  9620.000000   1667902   1662558   1656828   1652192   1649751  
  9610.000000   1649820   1651817   1654609   1656987   1658207  
  9600.000000   1658212   1657555   1657015   1657123   1657896  
  9590.000000   1658806   1659135   1658300   1656214   1653253  
  9580.000000   1650109   1647443   1645624   1644686   1644398  
  9570.000000   1644541   1645048   1646061   1647790   1650296  
  9560.000000   1653320   1656262   1658361   1658970   1657858  
  9550.000000   1655293   1652033   1648979   1646939   1646302  
  9540.000000   1646984   1648511   1650187   1651409   1651772  
  9530.000000   1651272   1650223   1649233   1648978   1650022  
  9520.000000   1652590   1656415   1660764   1664519   1666559  
  9510.000000   1666030   1662719   1657117   1650323   1643741  
  9500.000000   1638637   1635858   1635580   1637455   1640731  
  9490.000000   1644638   1648511   1651961   1654744   1656709  
  9480.000000   1657681   1657476   1656002   1653281   1649575  
  9470.000000   1645216   1640625   1636079   1631768   1627753  
  9460.000000   1624096   1620939   1618483   1616999   1616617  
  9450.000000   1617347   1618961   1621187   1623770   1626636  
  9440.000000   1629859   1633540   1637633   1641760   1645280  
  9430.000000   1647367   1647389   1645059   1640669   1634937  
  9420.000000   1628827   1623201   1618566   1615034   1612402  
  9410.000000   1610449   1609064   1608411   1608717   1610208  
  9400.000000   1612788   1616075   1619389   1622020   1623487  
  9390.000000   1623660   1622854   1621512   1620083   1618684  
  9380.000000   1617145   1615037   1611942   1607696   1602562  
  9370.000000   1597269   1592793   1590103   1589777   1591881  
  9360.000000   1595896   1600886   1605763   1609520   1611547  
  9350.000000   1611648   1610102   1607454   1604382   1601511  
  9340.000000   1599321   1598125   1598063   1599186   1601439  
  9330.000000   1604702   1608690   1612970   1616938   1619926  
  9320.000000   1621349   1620808   1618239   1613881   1608302  
  9310.000000   1602212   1596363   1591393   1587770   1585784  
  9300.000000   1585509   1586867   1589552   1593114   1596940  
  9290.000000   1600408   1602986   1604371   1604588   1603934  
  9280.000000   1602918   1602007   1601506   1601429   1601576  
  9270.000000   1601654   1601454   1600968   1600368   1599939  
  9260.000000   1599878   1600198   1600652   1600845   1600389  
  9250.000000   1599069   1596974   1594439   1591961   1589973  
  9240.000000   1588720   1588199   1588205   1588461   1588718  
  9230.000000   1588906   1589109   1589548   1590405   1591776  
  9220.000000   1593588   1595633   1597614   1599172   1600000  
  9210.000000   1599830   1598542   1596099   1592608   1588280  
  9200.000000   1583461   1578610   1574231   1570820   1568725  
  9190.000000   1568144   1568993   1571003   1573676   1576481  
  9180.000000   1578935   1580719   1581737   1582031   1581762  
  9170.000000   1581005   1579763   1577876   1575199   1571656  
  9160.000000   1567431   1562986   1558996   1556174   1554975  
  9150.000000   1555518   1557450   1560151   1562876   1565058  
  9140.000000   1566473   1567220   1567630   1567959   1568295  
  9130.000000   1568406   1567911   1566412   1563762   1560181  
  9120.000000   1556258   1552814   1550611   1550172   1551584  
  9110.000000   1554572   1558547   1562785   1566544   1569211  
  9100.000000   1570401   1569951   1567960   1564750   1560892  
  9090.000000   1557026   1553761   1551485   1550327   1550093  
  9080.000000   1550374   1550716   1550808   1550604   1550265  
  9070.000000   1550103   1550381   1551227   1552550   1554121  
  9060.000000   1555706   1557178   1558582   1560048   1561700  
  9050.000000   1563510   1565266   1566596   1567108   1566537  
  9040.000000   1564884   1562419   1559620   1557012   1555007  
  9030.000000   1553807   1553353   1553447   1553814   1554265  
  9020.000000   1554686   1555106   1555600   1556267   1557144  
  9010.000000   1558189   1559295   1560279   1560954   1561109  
  9000.000000   1560604   1559350   1557378   1554828   1551963  
  8990.000000   1549147   1546774   1545210   1544682   1545260  
  8980.000000   1546793   1548981   1551390   1553597   1555252  
  8970.000000   1556173   1556354   1555928   1555124   1554128  
  8960.000000   1553076   1551961   1550724   1549258   1547494  
  8950.000000   1545453   1543251   1541099   1539223   1537859  
  8940.000000   1537189   1537325   1538269   1539903   1541994  
  8930.000000   1544186   1546068   1547234   1547454   1546719  
  8920.000000   1545341   1543826   1542764   1542600   1543473  
  8910.000000   1545165   1547186   1548994   1550218   1550831  
  8900.000000   1551135   1551604   1552606   1554208   1556072  
  8890.000000   1557592   1558146   1557386   1555450   1552925  
  8880.000000   1550643   1549326   1549285   1550294   1551676  
  8870.000000   1552592   1552380   1550808   1548173   1545144  
  8860.000000   1542515   1540911   1540608   1541502   1543209  
  8850.000000   1545260   1547287   1549108   1550728   1552253  
  8840.000000   1553790   1555392   1557018   1558589   1560019  
  8830.000000   1561242   1562240   1563005   1563555   1563883  
  8820.000000   1563964   1563762   1563240   1562386   1561210  
  8810.000000   1559764   1558157   1556548   1555130   1554085  
  8800.000000   1553533   1553506   1553927   1554656   1555539  
  8790.000000   1556475   1557458   1558557   1559881   1561480  
  8780.000000   1563327   1565262   1567078   1568551   1569562  
  8770.000000   1570096   1570270   1570261   1570275   1570485  
  8760.000000   1571015   1571948   1573307   1575074   1577143  
  8750.000000   1579346   1581445   1583213   1584492   1585271  
  8740.000000   1585699   1586021   1586474   1587154   1587972  
  8730.000000   1588662   1588911   1588518   1587513   1586201  
  8720.000000   1585059   1584580   1585078   1586581   1588832  
  8710.000000   1591383   1593781   1595685   1596977   1597709  
  8700.000000   1598052   1598189   1598268   1598408   1598732  
  8690.000000   1599396   1600567   1602376   1604837   1607805  
  8680.000000   1610970   1613946   1616368   1618020   1618870  
  8670.000000   1619056   1618811   1618375   1617931   1617588  
  8660.000000   1617384   1617342   1617485   1617844   1618434  
  8650.000000   1619219   1620108   1620963   1621631   1621986  
  8640.000000   1621953   1621526   1620773   1619843   1618980  
  8630.000000   1618488   1618700   1619876   1622119   1625265  
  8620.000000   1628883   1632327   1634951   1636281   1636229  
  8610.000000   1635094   1633505   1632179   1631693   1632300  
  8600.000000   1633906   1636171   1638710   1641266   1643780  
  8590.000000   1646366   1649144   1652116   1655055   1657597  
  8580.000000   1659385   1660255   1660353   1660078   1659960  
  8570.000000   1660414   1661580   1663264   1665027   1666398  
  8560.000000   1667059   1666993   1666458   1665878   1665645  
  8550.000000   1665988   1666909   1668237   1669743   1671241  
  8540.000000   1672652   1673979   1675251   1676460   1677540  
  8530.000000   1678410   1679041   1679497   1679962   1680645  
  8520.000000   1681715   1683182   1684883   1686527   1687801  
  8510.000000   1688520   1688694   1688566   1688515   1688929  
  8500.000000   1690055   1691916   1694299   1696818   1699036  
  8490.000000   1700595   1701326   1701267   1700637   1699756  
  8480.000000   1698963   1698531   1698609   1699226   1700311  
  8470.000000   1701741   1703364   1705048   1706675   1708174  
  8460.000000   1709491   1710613   1711556   1712361   1713100  
  8450.000000   1713832   1714596   1715368   1716075   1716604  
  8440.000000   1716847   1716759   1716391   1715908   1715542  
  8430.000000   1715527   1716010   1717003   1718360   1719829  
  8420.000000   1721126   1722037   1722476   1722510   1722313  
  8410.000000   1722109   1722089   1722365   1722937   1723730  
  8400.000000   1724618   1725477   1726194   1726697   1726947  
  8390.000000   1726942   1726702   1726275   1725717   1725096  
  8380.000000   1724466   1723858   1723282   1722732   1722210  
  8370.000000   1721734   1721336   1721059   1720924   1720917  
  8360.000000   1720980   1721029   1720992   1720840   1720608  
  8350.000000   1720384   1720267   1720326   1720562   1720907  
  8340.000000   1721247   1721471   1721521   1721401   1721180  
  8330.000000   1720928   1720682   1720410   1720024   1719426  
  8320.000000   1718552   1717441   1716222   1715119   1714357  
  8310.000000   1714111   1714415   1715169   1716148   1717072  
  8300.000000   1717671   1717750   1717231   1716154   1714656  
  8290.000000   1712919   1711130   1709441   1707949   1706702  
  8280.000000   1705703   1704939   1704384   1704021   1703819  
  8270.000000   1703740   1703718   1703651   1703424   1702917  
  8260.000000   1702067   1700860   1699392   1697812   1696322  
  8250.000000   1695110   1694308   1693970   1694055   1694481  
  8240.000000   1695129   1695915   1696765   1697654   1698550  
  8230.000000   1699409   1700141   1700609   1700657   1700138  
  8220.000000   1698969   1697150   1694777   1692023   1689100  
  8210.000000   1686234   1683604   1681345   1679501   1678076  
  8200.000000   1676998   1676188   1675525   1674913   1674250  
  8190.000000   1673476   1672558   1671499   1670338   1669105  
  8180.000000   1667835   1666512   1665104   1663533   1661737  
  8170.000000   1659673   1657368   1654923   1652501   1650300  
  8160.000000   1648490   1647190   1646425   1646147   1646238  
  8150.000000   1646562   1646973   1647351   1647593   1647605  
  8140.000000   1647317   1646663   1645627   1644220   1642521  
  8130.000000   1640624   1638641   1636658   1634721   1632863  
  8120.000000   1631100   1629500   1628160   1627214   1626760  
  8110.000000   1626815   1627262   1627852   1628262   1628178  
  8100.000000   1627398   1625887   1623797   1621413   1619065  
  8090.000000   1617032   1615479   1614430   1613802   1613450  
  8080.000000   1613208   1612924   1612462   1611720   1610630  
  8070.000000   1609193   1607488   1605679   1603997   1602655  
  8060.000000   1601802   1601435   1601407   1601450   1601284  
  8050.000000   1600709   1599687   1598349   1596945   1595740  
  8040.000000   1594926   1594554   1594547   1594736   1594955  
  8030.000000   1595077   1595056   1594897   1594620   1594236  
  8020.000000   1593731   1593113   1592428   1591797   1591378  
  8010.000000   1591321   1591689   1592412   1593279   1593990  
  8000.000000   1594255   1593865   1592769   1591063   1588956  
  7990.000000   1586696   1584510   1582572   1580995   1579859  
  7980.000000   1579217   1579103   1579505   1580335   1581413  
  7970.000000   1582487   1583278   1583556   1583205   1582257  
  7960.000000   1580892   1579379   1578023   1577069   1576666  
  7950.000000   1576830   1577452   1578328   1579204   1579830  
  7940.000000   1580010   1579652   1578785   1577560   1576212  
  7930.000000   1574998   1574131   1573720   1573749   1574097  
  7920.000000   1574589   1575066   1575430   1575669   1575830  
  7910.000000   1575981   1576160   1576351   1576498   1576525  
  7900.000000   1576397   1576119   1575761   1575406   1575128  
  7890.000000   1574957   1574868   1574813   1574739   1574635  
  7880.000000   1574524   1574468   1574521   1574708   1575003  
  7870.000000   1575334   1575603   1575718   1575619   1575289  
  7860.000000   1574758   1574088   1573364   1572677   1572113  
  7850.000000   1571726   1571537   1571501   1571530   1571493  
  7840.000000   1571274   1570801   1570093   1569259   1568475  
  7830.000000   1567935   1567779   1568062   1568728   1569645  
  7820.000000   1570645   1571583   1572359   1572935   1573309  
  7810.000000   1573489   1573474   1573237   1572757   1572019  
  7800.000000   1571046   1569892   1568634   1567357   1566137  
  7790.000000   1565045   1564142   1563502   1563181   1563227  
  7780.000000   1563630   1564320   1565158   1565958   1566545  
  7770.000000   1566785   1566639   1566148   1565429   1564618  
  7760.000000   1563839   1563172   1562651   1562291   1562088  
  7750.000000   1562055   1562195   1562506   1562938   1563411  
  7740.000000   1563801   1563989   1563879   1563426   1562645  
  7730.000000   1561586   1560321   1558916   1557428   1555908  
  7720.000000   1554423   1553059   1551921   1551114   1550704  
  7710.000000   1550692   1551002   1551496   1552002   1552366  
  7700.000000   1552492   1552357   1552023   1551593   1551199  
  7690.000000   1550933   1550848   1550921   1551080   1551211  
  7680.000000   1551207   1550984   1550518   1549855   1549098  
  7670.000000   1548399   1547910   1547765   1548028   1548688  
  7660.000000   1549649   1550746   1551785   1552580   1553000  
  7650.000000   1552989   1552576   1551859   1550973   1550058  
  7640.000000   1549234   1548580   1548138   1547920   1547921  
  7630.000000   1548123   1548495   1548988   1549521   1549993  
  7620.000000   1550295   1550340   1550094   1549598   1548975  
  7610.000000   1548397   1548050   1548067   1548498   1549277  
  7600.000000   1550251   1551212   1551959   1552340   1552292  
  7590.000000   1551850   1551137   1550340   1549666   1549304  
  7580.000000   1549378   1549921   1550866   1552048   1553244  
  7570.000000   1554209   1554749   1554757   1554256   1553379  
  7560.000000   1552337   1551348   1550596   1550188   1550159  
  7550.000000   1550478   1551090   1551934   1552948   1554072  
  7540.000000   1555229   1556320   1557247   1557927   1558343  
  7530.000000   1558535   1558624   1558743   1559013   1559484  
  7520.000000   1560137   1560894   1561663   1562387   1563075  
  7510.000000   1563793   1564632   1565664   1566899   1568274  
  7500.000000   1569672   1570955   1572028   1572851   1573468  
  7490.000000   1573962   1574452   1575038   1575794   1576746  
  7480.000000   1577887   1579174   1580554   1581966   1583356  
  7470.000000   1584692   1585973   1587231   1588525   1589923  
  7460.000000   1591477   1593195   1595040   1596922   1598739  
  7450.000000   1600394   1601838   1603070   1604140   1605131  
  7440.000000   1606135   1607232   1608473   1609884   1611467  
  7430.000000   1613207   1615072   1617012   1618973   1620898  
  7420.000000   1622740   1624467   1626072   1627565   1628974  
  7410.000000   1630325   1631650   1632982   1634364   1635847  
  7400.000000   1637485   1639320   1641359   1643562   1645841  
  7390.000000   1648077   1650157   1652003   1653596   1654976  
  7380.000000   1656226   1657443   1658706   1660061   1661521  
  7370.000000   1663084   1664740   1666486   1668311   1670193  
  7360.000000   1672076   1673886   1675535   1676957   1678129  
  7350.000000   1679090   1679935   1680788   1681767   1682947  
  7340.000000   1684341   1685899   1687529   1689128   1690606  
  7330.000000   1691906   1693017   1693971   1694843   1695728  
  7320.000000   1696723   1697902   1699299   1700893   1702613  
  7310.000000   1704353   1706013   1707528   1708891   1710153  
  7300.000000   1711403   1712721   1714151   1715671   1717207  
  7290.000000   1718652   1719921   1720977   1721854   1722646  
  7280.000000   1723469   1724433   1725598   1726967   1728485  
  7270.000000   1730057   1731589   1733002   1734263   1735365  
  7260.000000   1736337   1737208   1738015   1738778   1739522  
  7250.000000   1740273   1741085   1742030   1743200   1744677  
  7240.000000   1746517   1748708   1751182   1753801   1756418  
  7230.000000   1758885   1761126   1763118   1764925   1766631  
  7220.000000   1768349   1770152   1772105   1774224   1776538  
  7210.000000   1779058   1781813   1784803   1788008   1791352  
  7200.000000   1794728   1798010   1801112   1804003   1806751  
  7190.000000   1809475   1812340   1815467   1818916   1822641  
  7180.000000   1826526   1830411   1834167   1837711   1841048  
  7170.000000   1844229   1847355   1850508   1853766   1857156  
  7160.000000   1860699   1864381   1868205   1872154   1876226  
  7150.000000   1880397   1884653   1888972   1893357   1897816  
  7140.000000   1902391   1907110   1912015   1917099   1922350  
  7130.000000   1927706   1933112   1938485   1943774   1948927  
  7120.000000   1953943   1958835   1963669   1968521   1973497  
  7110.000000   1978676   1984119   1989829   1995775   2001881  
  7100.000000   2008077   2014294   2020509   2026720   2032949  
  7090.000000   2039205   2045481   2051741   2057946   2064057  
  7080.000000   2070078   2076035   2081986   2087976   2094033  
  7070.000000   2100139   2106247   2112300   2118257   2124109  
  7060.000000   2129883   2135625   2141382   2147178   2153013  
  7050.000000   2158865   2164706   2170516   2176289   2182032  
  7040.000000   2187751   2193453   2199131   2204781   2210391  
  7030.000000   2215962   2221494   2226993   2232454   2237875  
  7020.000000   2243246   2248565   2253828   2259043   2264199  
  7010.000000   2269284   2274262   2279097   2283757   2288243  
  7000.000000   2292579   2296826   2301037   2305258   2309486  
  6990.000000   2313699   2317842   2321887   2325821   2329681  
  6980.000000   2333510   2337361   2341238   2345120   2348940  
  6970.000000   2352636   2356156   2359497   2362681   2365766  
  6960.000000   2368789   2371789   2374761   2377707   2380603  
  6950.000000   2383447   2386220   2388903   2391447   2393799  
  6940.000000   2395892   2397703   2399244   2400597   2401871  
  6930.000000   2403195   2404656   2406302   2408105   2410012  
  6920.000000   2411944   2413848   2415687   2417459   2419162  
  6910.000000   2420798   2422355   2423818   2425175   2426434  
  6900.000000   2427615   2428751   2429870   2430993   2432125  
  6890.000000   2433269   2434428   2435620   2436856   2438147  
  6880.000000   2439473   2440799   2442065   2443215   2444210  
  6870.000000   2445047   2445749   2446356   2446903   2447414  
  6860.000000   2447887   2448322   2448719   2449102   2449506  
  6850.000000   2449976   2450534   2451178   2451863   2452536  
  6840.000000   2453131   2453616   2453986   2454278   2454545  
  6830.000000   2454845   2455217   2455677   2456210   2456780  
  6820.000000   2457333   2457815   2458177   2458396   2458470  
  6810.000000   2458435   2458343   2458269   2458271   2458389  
  6800.000000   2458620   2458933   2459267   2459564   2459769  
  6790.000000   2459854   2459803   2459616   2459296   2458850  
  6780.000000   2458297   2457673   2457035   2456452   2455988  
  6770.000000   2455683   2455532   2455502   2455531   2455566  
  6760.000000   2455574   2455559   2455545   2455561   2455618  
  6750.000000   2455696   2455752   2455731   2455596   2455335  
  6740.000000   2454972   2454547   2454110   2453700   2453338  
  6730.000000   2453042   2452818   2452678   2452628   2452667  
  6720.000000   2452770   2452896   2452986   2452988   2452868  
  6710.000000   2452627   2452291   2451908   2451518   2451149  
  6700.000000   2450797   2450442   2450048   2449588   2449042  
  6690.000000   2448410   2447703   2446948   2446170   2445399  
  6680.000000   2444651   2443937   2443243   2442549   2441817  
  6670.000000   2441024   2440160   2439249   2438335   2437479  
  6660.000000   2436718   2436060   2435464   2434861   2434172  
  6650.000000   2433345   2432367   2431273   2430118   2428958  
  6640.000000   2427815   2426678   2425505   2424253   2422897  
  6630.000000   2421453   2419960   2418478   2417053   2415716  
  6620.000000   2414464   2413287   2412163   2411083   2410035  
  6610.000000   2409007   2407970   2406884   2405699   2404383  
  6600.000000   2402928   2401363   2399740   2398116   2396530  
  6590.000000   2394999   2393507   2392036   2390565   2389100  
  6580.000000   2387650   2386234   2384851   2383484   2382096  
  6570.000000   2380650   2379125   2377527   2375887   2374240  
  6560.000000   2372613   2371004   2369390   2367736   2366021  
  6550.000000   2364254   2362476   2360755   2359159   2357731  
  6540.000000   2356481   2355379   2354367   2353381   2352366  
  6530.000000   2351283   2350122   2348891   2347612   2346317  
  6520.000000   2345039   2343803   2342622   2341493   2340395  
  6510.000000   2339295   2338163   2336980   2335747   2334483  
  6500.000000   2333218   2331980   2330776   2329599   2328422  
  6490.000000   2327224   2325994   2324747   2323511   2322324  
  6480.000000   2321209   2320169   2319176   2318190   2317162  
  6470.000000   2316055   2314854   2313563   2312203   2310805  
  6460.000000   2309400   2308019   2306688   2305425   2304238  
  6450.000000   2303119   2302051   2301001   2299938   2298838  
  6440.000000   2297694   2296519   2295342   2294199   2293126  
  6430.000000   2292144   2291271   2290502   2289832   2289238  
  6420.000000   2288696   2288168   2287620   2287019   2286351  
  6410.000000   2285623   2284866   2284125   2283451   2282874  
  6400.000000   2282411   2282047   2281755   2281504   2281266  
  6390.000000   2281026   2280774   2280510   2280230   2279935  
  6380.000000   2279631   2279331   2279056   2278822   2278636  
  6370.000000   2278476   2278300   2278051   2277678   2277159  
  6360.000000   2276507   2275774   2275028   2274336   2273737  
  6350.000000   2273237   2272812   2272428   2272047   2271646  
  6340.000000   2271208   2270724   2270177   2269552   2268836  
  6330.000000   2268031   2267152   2266237   2265324   2264445  
  6320.000000   2263602   2262779   2261937   2261046   2260087  
  6310.000000   2259072   2258026   2256987   2255974   2254995  
  6300.000000   2254029   2253060   2252067   2251047   2250004  
  6290.000000   2248944   2247864   2246751   2245578   2244327  
  6280.000000   2242989   2241577   2240116   2238635   2237153  
  6270.000000   2235675   2234188   2232681   2231145   2229593  
  6260.000000   2228043   2226527   2225062   2223656   2222296  
  6250.000000   2220963   2219636   2218302   2216956   2215596  
  6240.000000   2214215   2212802   2211340   2209813   2208214  
  6230.000000   2206550   2204837   2203096   2201348   2199606  
  6220.000000   2197879   2196176   2194509   2192899   2191362  
  6210.000000   2189915   2188559   2187285   2186075   2184909  
  6200.000000   2183767   2182639   2181513   2180376   2179213  
  6190.000000   2178006   2176746   2175438   2174106   2172783  
  6180.000000   2171504   2170286   2169122   2167981   2166822  
  6170.000000   2165611   2164338   2163022   2161704   2160437  
  6160.000000   2159255   2158175   2157187   2156263   2155370  
  6150.000000   2154475   2153558   2152601   2151587   2150502  
  6140.000000   2149334   2148080   2146753   2145382   2144008  
  6130.000000   2142669   2141395   2140197   2139071   2138004  
  6120.000000   2136983   2135996   2135041   2134111   2133202  
  6110.000000   2132302   2131411   2130530   2129682   2128896  
  6100.000000   2128208   2127642   2127202   2126867   2126603  
  6090.000000   2126370   2126144   2125916   2125697   2125499  
  6080.000000   2125334   2125190   2125052   2124888   2124692  
  6070.000000   2124462   2124232   2124037   2123925   2123918  
  6060.000000   2124032   2124251   2124566   2124952   2125412  
  6050.000000   2125941   2126562   2127284   2128130   2129100  
  6040.000000   2130204   2131426   2132764   2134191   2135698  
  6030.000000   2137260   2138877   2140543   2142281   2144106  
  6020.000000   2146044   2148093   2150249   2152467   2154711  
  6010.000000   2156925   2159086   2161180   2163235   2165281  
  6000.000000   2167372   2169538   2171814   2174203   2176711  
  5990.000000   2179320   2182029   2184821   2187703   2190670  
  5980.000000   2193740   2196920   2200236   2203695   2207313  
  5970.000000   2211079   2214980   2218975   2223035   2227111  
  5960.000000   2231187   2235236   2239266   2243269   2247261  
  5950.000000   2251241   2255223   2259218   2263251   2267350  
  5940.000000   2271547   2275871   2280332   2284930   2289646  
  5930.000000   2294452   2299310   2304185   2309030   2313797  
  5920.000000   2318431   2322878   2327091   2331048   2334751  
  5910.000000   2338238   2341556   2344764   2347899   2350990  
  5900.000000   2354034   2357036   2359986   2362905   2365809  
  5890.000000   2368737   2371701   2374715   2377756   2380798  
  5880.000000   2383793   2386703   2389486   2392113   2394558  
  5870.000000   2396808   2398859   2400730   2402459   2404105  
  5860.000000   2405738   2407424   2409209   2411114   2413136  
  5850.000000   2415259   2417462   2419732   2422065   2424461  
  5840.000000   2426918   2429421   2431954   2434489   2437016  
  5830.000000   2439525   2442027   2444532   2447053   2449591  
  5820.000000   2452143   2454700   2457261   2459827   2462407  
  5810.000000   2465008   2467620   2470232   2472804   2475320  
  5800.000000   2477752   2480124   2482446   2484775   2487119  
  5790.000000   2489503   2491875   2494189   2496327   2498188  
  5780.000000   2499627   2500536   2500798   2500357   2499185  
  5770.000000   2497343   2494932   2492132   2489122   2486098  
  5760.000000   2483192   2480504   2478048   2475824   2473782  
  5750.000000   2471903   2470154   2468536   2467038   2465656  
  5740.000000   2464374   2463167   2462012   2460881   2459763  
  5730.000000   2458633   2457486   2456300   2455077   2453815  
  5720.000000   2452542   2451291   2450109   2449028   2448064  
  5710.000000   2447203   2446418   2445669   2444932   2444193  
  5700.000000   2443459   2442746   2442061   2441405   2440764  
  5690.000000   2440125   2439478   2438837   2438213   2437634  
  5680.000000   2437099   2436597   2436079   2435487   2434747  
  5670.000000   2433800   2432590   2431087   2429265   2427127  
  5660.000000   2424686   2421990   2419106   2416134   2413173  
  5650.000000   2410320   2407633   2405140   2402825   2400659  
  5640.000000   2398606   2396646   2394772   2392991   2391307  
  5630.000000   2389713   2388190   2386706   2385237   2383757  
  5620.000000   2382267   2380766   2379269   2377781   2376314  
  5610.000000   2374872   2373471   2372123   2370849   2369660  
  5600.000000   2368560   2367536   2366573   2365651   2364763  
  5590.000000   2363910   2363103   2362346   2361631   2360930  
  5580.000000   2360205   2359416   2358539   2357572   2356535  
  5570.000000   2355459   2354369   2353280   2352189   2351088  
  5560.000000   2349965   2348824   2347676   2346541   2345431  
  5550.000000   2344349   2343279   2342200   2341090   2339939  
  5540.000000   2338750   2337538   2336318   2335103   2333897  
  5530.000000   2332705   2331530   2330386   2329289   2328259  
  5520.000000   2327302   2326412   2325567   2324733   2323876  
  5510.000000   2322969   2321991   2320935   2319798   2318582  
  5500.000000   2317291   2315942   2314555   2313165   2311797  
  5490.000000   2310471   2309176   2307887   2306556   2305145  
  5480.000000   2303626   2302004   2300303   2298570   2296844  
  5470.000000   2295153   2293499   2291874   2290254   2288623  
  5460.000000   2286967   2285283   2283569   2281826   2280052  
  5450.000000   2278250   2276430   2274604   2272791   2271000  
  5440.000000   2269237   2267496   2265777   2264079   2262421  
  5430.000000   2260824   2259316   2257900   2256570   2255289  
  5420.000000   2254030   2252765   2251509   2250290   2249170  
  5410.000000   2248190   2247383   2246732   2246214   2245780  
  5400.000000   2245416   2245112   2244900   2244796   2244835  
  5390.000000   2245002   2245296   2245677   2246151   2246712  
  5380.000000   2247408   2248263   2249330   2250601   2252089  
  5370.000000   2253748   2255578   2257541   2259665   2261931  
  5360.000000   2264384   2267005   2269839   2272869   2276166  
  5350.000000   2279738   2283682   2288010   2292800   2298018  
  5340.000000   2303701   2309781   2316298   2323200   2330553  
  5330.000000   2338319   2346561   2355222   2364354   2373895  
  5320.000000   2383931   2394442   2405563   2417296   2429779  
  5310.000000   2442983   2456995   2471740   2487277   2503533  
  5300.000000   2520590   2538408   2557103   2576651   2597155  
  5290.000000   2618551   2640866   2663955   2687758   2712092  
  5280.000000   2736911   2762121   2787798   2813985   2840831  
  5270.000000   2868379   2896656   2925529   2954813   2984263  
  5260.000000   3013676   3042941   3072036   3101030   3129969  
  5250.000000   3158878   3187641   3216119   3244058   3271321  
  5240.000000   3297749   3323395   3348272   3372554   3396272  
  5230.000000   3419540   3442269   3464448   3485897   3506588  
  5220.000000   3526390   3545383   3563552   3581076   3597981  
  5210.000000   3614422   3630335   3645747   3660474   3674474  
  5200.000000   3687574   3699823   3711178   3721800   3731707  
  5190.000000   3741046   3749764   3757914   3765376   3772180  
  5180.000000   3778237   3783636   3788343   3792468   3795967  
  5170.000000   3798907   3801216   3802950   3804063   3804646  
  5160.000000   3804687   3804286   3803417   3802141   3800410  
  5150.000000   3798273   3795700   3792767   3789467   3785875  
  5140.000000   3781973   3777804   3773338   3768613   3763616  
  5130.000000   3758403   3752975   3747381   3741608   3735680  
  5120.000000   3729580   3723338   3716966   3710523   3704038  
  5110.000000   3697561   3691100   3684666   3678243   3671832  
  5100.000000   3665426   3659040   3652677   3646349   3640044  
  5090.000000   3633754   3627463   3621170   3614882   3608626  
  5080.000000   3602420   3596280   3590190   3584124   3578036  
  5070.000000   3571889   3565654   3559334   3552939   3546503  
  5060.000000   3540042   3533575   3527094   3520590   3514040  
  5050.000000   3507434   3500756   3494008   3487183   3480292  
  5040.000000   3473331   3466312   3459236   3452117   3444963  
  5030.000000   3437784   3430587   3423379   3416169   3408966  
  5020.000000   3401789   3394652   3387578   3380578   3373670  
  5010.000000   3366855   3360149   3353552   3347089   3340763  
  5000.000000   3334601   3328599   3322771   3317094   3311577  
  4990.000000   3306196   3300981   3295928   3291092   3286482  
  4980.000000   3282150   3278087   3274325   3270831   3267626  
  4970.000000   3264677   3262016   3259621   3257533   3255731  
  4960.000000   3254257   3253079   3252239   3251706   3251525  
  4950.000000   3251669   3252186   3253045   3254286   3255871  
  4940.000000   3257840   3260157   3262868   3265940   3269419  
  4930.000000   3273265   3277510   3282102   3287069   3292363  
  4920.000000   3298022   3304016   3310390   3317121   3324241  
  4910.000000   3331717   3339559   3347719   3356186   3364907  
  4900.000000   3373859   3382993   3392281   3401685   3411173  
  4890.000000   3420715   3430266   3439789   3449210   3458473  
  4880.000000   3467481   3476180   3484475   3492340   3499699  
  4870.000000   3506553   3512839   3518571   3523695   3528236  
  4860.000000   3532155   3535499   3538249   3540468   3542145  
  4850.000000   3543352   3544087   3544431   3544403   3544097  
  4840.000000   3543549   3542847   3542020   3541131   3540189  
  4830.000000   3539233   3538270   3537333   3536438   3535614  
  4820.000000   3534876   3534234   3533689   3533234   3532862  
  4810.000000   3532567   3532355   3532226   3532195   3532261  
  4800.000000   3532434   3532702   3533071   3533529   3534084  
  4790.000000   3534733   3535485   3536334   3537280   3538306  
  4780.000000   3539396   3540525   3541676   3542824   3543959  
  4770.000000   3545066   3546141   3547178   3548179   3549145  
  4760.000000   3550077   3550978   3551847   3552683   3553482  
  4750.000000   3554247   3554979   3555692   3556395   3557108  
  4740.000000   3557840   3558601   3559387   3560192   3561001  
  4730.000000   3561796   3562560   3563271   3563915   3564477  
  4720.000000   3564955   3565348   3565680   3565973   3566272  
  4710.000000   3566611   3567040   3567580   3568265   3569103  
  4700.000000   3570118   3571319   3572733   3574374   3576267  
  4690.000000   3578413   3580815   3583442   3586272   3589255  
  4680.000000   3592358   3595524   3598726   3601908   3605048  
  4670.000000   3608101   3611064   3613928   3616733   3619515  
  4660.000000   3622349   3625290   3628405   3631722   3635255  
  4650.000000   3638989   3642896   3646940   3651089   3655323  
  4640.000000   3659629   3664007   3668454   3672971   3677537  
  4630.000000   3682130   3686699   3691194   3695547   3699706  
  4620.000000   3703612   3707240   3710556   3713572   3716277  
  4610.000000   3718700   3720837   3722720   3724340   3725733  
  4600.000000   3726893   3727865   3728651   3729298   3729802  
  4590.000000   3730194   3730444   3730554   3730474   3730190  
  4580.000000   3729655   3728870   3727817   3726528   3725016  
  4570.000000   3723332   3721504   3719582   3717585   3715548  
  4560.000000   3713476   3711388   3709278   3707158   3705021  
  4550.000000   3702875   3700718   3698559   3696397   3694240  
  4540.000000   3692089   3689952   3687836   3685751   3683713  
  4530.000000   3681727   3679809   3677949   3676151   3674392  
  4520.000000   3672677   3670982   3669335   3667734   3666237  
  4510.000000   3664860   3663678   3662703   3662016   3661614  
  4500.000000   3661583   3661920   3662724   3664001   3665861  
  4490.000000   3668312   3671456   3675282   3679872   3685185  
  4480.000000   3691282   3698104   3705701   3714007   3723062  
  4470.000000   3732789   3743203   3754205   3765784   3777824  
  4460.000000   3790305   3803126   3816280   3829692   3843366  
  4450.000000   3857243   3871322   3885553   3899928   3914414  
  4440.000000   3929002   3943675   3958412   3973189   3987951  
  4430.000000   4002658   4017226   4031615   4045742   4059591  
  4420.000000   4073093   4086247   4098982   4111285   4123063  
  4410.000000   4134286   4144853   4154749   4163912   4172383  
  4400.000000   4180170   4187380   4194073   4200388   4206393  
  4390.000000   4212215   4217902   4223544   4229159   4234803  
  4380.000000   4240465   4246171   4251897   4257659   4263442  
  4370.000000   4269272   4275155   4281115   4287149   4293253  
  4360.000000   4299390   4305532   4311615   4317624   4323490  
  4350.000000   4329226   4334760   4340130   4345272   4350262  
  4340.000000   4355071   4359793   4364370   4368759   4372682  
  4330.000000   4375785   4377514   4377339   4374770   4369599  
  4320.000000   4361910   4352181   4341135   4329667   4318600  
  4310.000000   4308606   4300046   4293039   4287451   4283059  
  4300.000000   4279598   4276859   4274711   4273070   4271920  
  4290.000000   4271210   4270944   4271060   4271571   4272436  
  4280.000000   4273679   4275276   4277219   4279465   4281955  
  4270.000000   4284633   4287417   4290228   4292926   4295327  
  4260.000000   4297158   4298112   4297862   4296171   4292924  
  4250.000000   4288210   4282285   4275570   4268517   4261592  
  4240.000000   4255118   4249325   4244247   4239849   4235980  
  4230.000000   4232500   4229250   4226116   4223010   4219867  
  4220.000000   4216673   4213411   4210135   4206884   4203774  
  4210.000000   4200884   4198341   4196203   4194536   4193323  
  4200.000000   4192544   4192109   4191947   4191950   4192066  
  4190.000000   4192222   4192427   4192665   4192997   4193431  
  4180.000000   4194038   4194814   4195807   4196994   4198418  
  4170.000000   4200068   4202013   4204273   4206935   4210015  
  4160.000000   4213576   4217591   4222077   4226971   4232277  
  4150.000000   4237938   4243980   4250367   4257147   4264285  
  4140.000000   4271825   4279717   4287989   4296580   4305517  
  4130.000000   4314746   4324303   4334156   4344363   4354916  
  4120.000000   4365889   4377291   4389193   4401599   4414557  
  4110.000000   4428041   4442061   4456550   4471472   4486729  
  4100.000000   4502256   4517953   4533767   4549637   4565550  
  4090.000000   4581498   4597492   4613539   4629632   4645767  
  4080.000000   4661904   4678031   4694095   4710087   4725932  
  4070.000000   4741606   4756997   4772060   4786669   4800800  
  4060.000000   4814360   4827374   4839779   4851623   4862843  
  4050.000000   4873488   4883498   4892945   4901787   4910110  
  4040.000000   4917861   4925098   4931730   4937793   4943201  
  4030.000000   4948021   4952210   4955862   4958956   4961565  
  4020.000000   4963628   4965208   4966302   4966989   4967241  
  4010.000000   4967171   4966828   4966189   4965020   4963322  
  4000.000000   4961350  
##END= 
