##TITLE= Sample 015 By ssteindl date Dienstag, November 20 2018
##JCAMP-DX= 4.24
##DATA TYPE= INFRARED SPECTRUM
##ORIGIN= Exported PE Spectrum Data File
##OWNER= Sandra Steindl
##DATE= 18/11/20
##TIME= 10:09:29.00
##SPECTROMETER/DATA SYSTEM= PERKIN-ELMER Frontier FT-IR/NIR IR
##INSTRUMENT PARAMETERS=
  APODIZATION=stark
  DETECTOR=INGAAS
##RESOLUTION= 16.000000
##DELTAX= -2.000000
##XUNITS= 1/CM
##YUNITS= A
##XFACTOR= 1.00
##YFACTOR= 0.00000011920928955078
##FIRSTX= 10000.00
##LASTX= 4000.00
##NPOINTS= 3001
##FIRSTY= 0.197306
##MAXY= 0.650515
##MINY= 0.173860
##XYDATA= (X++(Y..Y))
 10000.000000   1655120   1657621   1659956   1661797   1662788  
  9990.000000   1662887   1662352   1661801   1661935   1663388  
  9980.000000   1666438   1670874   1675924   1680436   1683176  
  9970.000000   1683219   1680198   1674457   1666924   1658901  
  9960.000000   1651666   1646253   1643163   1642408   1643483  
  9950.000000   1645614   1647896   1649528   1649953   1648930  
  9940.000000   1646551   1643111   1639027   1634642   1630223  
  9930.000000   1625896   1621806   1618168   1615355   1613840  
  9920.000000   1614032   1616121   1619875   1624681   1629603  
  9910.000000   1633666   1636096   1636531   1635114   1632363  
  9900.000000   1629043   1625829   1623240   1621444   1620378  
  9890.000000   1619742   1619148   1618175   1616476   1613887  
  9880.000000   1610509   1606804   1603511   1601521   1601545  
  9870.000000   1603872   1608185   1613640   1619128   1623644  
  9860.000000   1626608   1627997   1628254   1628020   1627825  
  9850.000000   1627851   1627922   1627615   1626576   1624674  
  9840.000000   1622150   1619436   1616979   1614998   1613417  
  9830.000000   1611964   1610365   1608565   1606785   1605487  
  9820.000000   1605150   1606116   1608421   1611866   1616052  
  9810.000000   1620579   1625099   1629353   1633144   1636241  
  9800.000000   1638403   1639353   1638911   1637039   1633898  
  9790.000000   1629823   1625237   1620592   1616296   1612749  
  9780.000000   1610262   1609104   1609289   1610608   1612476  
  9770.000000   1614143   1614855   1614160   1612111   1609249  
  9760.000000   1606420   1604374   1603438   1603316   1603248  
  9750.000000   1602324   1600015   1596406   1592299   1588816  
  9740.000000   1586945   1587036   1588642   1590703   1592027  
  9730.000000   1591862   1590226   1587968   1586348   1586580  
  9720.000000   1589256   1594186   1600448   1606774   1611998  
  9710.000000   1615320   1616449   1615405   1612371   1607501  
  9700.000000   1600989   1593179   1584761   1576739   1570268  
  9690.000000   1566269   1565071   1566287   1568861   1571545  
  9680.000000   1573277   1573660   1573004   1572178   1572179  
  9670.000000   1573658   1576684   1580652   1584640   1587670  
  9660.000000   1589192   1589103   1587791   1585819   1583698  
  9650.000000   1581724   1579945   1578333   1576906   1575882  
  9640.000000   1575598   1576416   1578460   1581548   1585124  
  9630.000000   1588476   1590947   1592157   1592121   1591129  
  9620.000000   1589614   1587905   1586146   1584299   1582256  
  9610.000000   1580025   1577799   1575993   1575065   1575358  
  9600.000000   1576898   1579323   1581983   1584097   1585044  
  9590.000000   1584492   1582493   1579388   1575662   1571857  
  9580.000000   1568446   1565917   1564707   1565246   1567780  
  9570.000000   1572267   1578197   1584578   1590081   1593325  
  9560.000000   1593314   1589695   1582978   1574334   1565324  
  9550.000000   1557407   1551586   1548233   1547125   1547728  
  9540.000000   1549414   1551736   1554387   1557209   1559977  
  9530.000000   1562382   1563997   1564432   1563514   1561373  
  9520.000000   1558490   1555477   1552930   1551170   1550191  
  9510.000000   1549705   1549282   1548548   1547285   1545455  
  9500.000000   1543154   1540484   1537566   1534445   1531253  
  9490.000000   1528141   1525403   1523310   1522094   1521834  
  9480.000000   1522454   1523832   1525851   1528573   1532168  
  9470.000000   1536921   1543010   1550377   1558581   1566806  
  9460.000000   1574008   1579134   1581435   1580613   1576948  
  9450.000000   1571160   1564263   1557301   1551125   1546275  
  9440.000000   1542844   1540625   1539123   1537888   1536523  
  9430.000000   1534951   1533257   1531744   1530690   1530280  
  9420.000000   1530490   1531044   1531543   1531507   1530602  
  9410.000000   1528657   1525754   1522147   1518212   1514349  
  9400.000000   1510936   1508275   1506571   1505870   1506054  
  9390.000000   1506783   1507590   1507943   1507449   1505949  
  9380.000000   1503632   1500965   1498570   1497029   1496700  
  9370.000000   1497645   1499650   1502371   1505469   1508716  
  9360.000000   1511976   1515136   1517994   1520207   1521369  
  9350.000000   1521115   1519363   1516328   1512567   1508737  
  9340.000000   1505415   1502892   1501105   1499769   1498546  
  9330.000000   1497329   1496290   1495864   1496471   1498341  
  9320.000000   1501302   1504827   1508156   1510579   1511680  
  9310.000000   1511451   1510274   1508696   1507227   1506151  
  9300.000000   1505467   1504949   1504275   1503177   1501547  
  9290.000000   1499438   1497025   1494512   1492085   1489863  
  9280.000000   1487899   1486198   1484744   1483535   1482593  
  9270.000000   1481975   1481772   1482118   1483173   1485062  
  9260.000000   1487802   1491199   1494878   1498297   1500930  
  9250.000000   1502346   1502389   1501183   1499144   1496842  
  9240.000000   1494838   1493560   1493211   1493797   1495144  
  9230.000000   1496999   1499056   1501043   1502709   1503861  
  9220.000000   1504330   1504034   1502986   1501341   1499374  
  9210.000000   1497408   1495762   1494668   1494232   1494393  
  9200.000000   1494891   1495378   1495465   1494880   1493499  
  9190.000000   1491445   1489069   1486863   1485321   1484734  
  9180.000000   1485095   1486049   1487006   1487293   1486398  
  9170.000000   1484180   1480963   1477439   1474419   1472598  
  9160.000000   1472331   1473530   1475694   1478098   1480072  
  9150.000000   1481172   1481299   1480621   1479478   1478208  
  9140.000000   1477024   1475987   1475039   1474121   1473264  
  9130.000000   1472608   1472380   1472797   1473981   1475859  
  9120.000000   1478119   1480260   1481699   1481944   1480733  
  9110.000000   1478125   1474536   1470683   1467427   1465533  
  9100.000000   1465415   1467046   1469933   1473263   1476101  
  9090.000000   1477695   1477716   1476297   1473945   1471306  
  9080.000000   1468956   1467185   1465958   1465008   1464066  
  9070.000000   1463030   1462047   1461460   1461620   1462742  
  9060.000000   1464746   1467246   1469669   1471451   1472278  
  9050.000000   1472098   1471127   1469683   1468104   1466618  
  9040.000000   1465335   1464328   1463721   1463714   1464500  
  9030.000000   1466194   1468686   1471621   1474406   1476423  
  9020.000000   1477244   1476778   1475317   1473390   1471595  
  9010.000000   1470331   1469686   1469432   1469188   1468634  
  9000.000000   1467662   1466459   1465382   1464849   1465103  
  8990.000000   1466157   1467756   1469526   1471114   1472286  
  8980.000000   1472961   1473153   1472906   1472218   1471053  
  8970.000000   1469401   1467387   1465274   1463442   1462240  
  8960.000000   1461864   1462238   1463000   1463647   1463710  
  8950.000000   1462987   1461607   1460015   1458790   1458444  
  8940.000000   1459235   1461066   1463548   1466108   1468218  
  8930.000000   1469485   1469767   1469103   1467711   1465871  
  8920.000000   1463901   1462104   1460762   1460107   1460289  
  8910.000000   1461333   1463109   1465383   1467858   1470274  
  8900.000000   1472444   1474298   1475848   1477132   1478164  
  8890.000000   1478896   1479282   1479290   1478983   1478491  
  8880.000000   1477992   1477628   1477451   1477412   1477420  
  8870.000000   1477399   1477362   1477415   1477701   1478315  
  8860.000000   1479202   1480165   1480939   1481338   1481404  
  8850.000000   1481427   1481893   1483252   1485714   1489078  
  8840.000000   1492747   1495899   1497799   1498090   1496978  
  8830.000000   1495166   1493610   1493167   1494281   1496849  
  8820.000000   1500268   1503705   1506403   1507963   1508430  
  8810.000000   1508224   1507889   1507882   1508376   1509270  
  8800.000000   1510267   1511053   1511448   1511459   1511272  
  8790.000000   1511112   1511145   1511382   1511688   1511849  
  8780.000000   1511672   1511070   1510120   1509039   1508148  
  8770.000000   1507783   1508209   1509554   1511766   1514618  
  8760.000000   1517760   1520776   1523299   1525072   1526056  
  8750.000000   1526392   1526401   1526429   1526769   1527547  
  8740.000000   1528727   1530144   1531622   1533053   1534466  
  8730.000000   1536000   1537814   1539995   1542465   1544996  
  8720.000000   1547285   1549080   1550294   1551052   1551650  
  8710.000000   1552443   1553696   1555486   1557672   1559958  
  8700.000000   1562024   1563631   1564727   1565409   1565883  
  8690.000000   1566330   1566850   1567433   1568007   1568514  
  8680.000000   1568981   1569555   1570468   1571965   1574193  
  8670.000000   1577161   1580697   1584515   1588287   1591718  
  8660.000000   1594642   1597001   1598855   1600295   1601422  
  8650.000000   1602310   1603012   1603587   1604115   1604724  
  8640.000000   1605561   1606780   1608457   1610578   1612986  
  8630.000000   1615433   1617612   1619248   1620172   1620376  
  8620.000000   1620038   1619461   1619013   1619001   1619614  
  8610.000000   1620857   1622574   1624507   1626387   1628028  
  8600.000000   1629369   1630497   1631596   1632890   1634550  
  8590.000000   1636645   1639118   1641791   1644423   1646768  
  8580.000000   1648652   1650000   1650864   1651399   1651835  
  8570.000000   1652407   1653285   1654532   1656082   1657771  
  8560.000000   1659376   1660718   1661715   1662434   1663059  
  8550.000000   1663847   1665023   1666701   1668819   1671156  
  8540.000000   1673388   1675190   1676337   1676776   1676641  
  8530.000000   1676209   1675797   1675687   1676031   1676841  
  8520.000000   1677985   1679254   1680432   1681347   1681909  
  8510.000000   1682111   1682017   1681725   1681341   1680957  
  8500.000000   1680660   1680519   1680613   1681007   1681772  
  8490.000000   1682950   1684539   1686479   1688656   1690925  
  8480.000000   1693141   1695203   1697083   1698817   1700506  
  8470.000000   1702243   1704092   1706031   1707960   1709723  
  8460.000000   1711164   1712189   1712806   1713135   1713375  
  8450.000000   1713745   1714405   1715408   1716671   1718019  
  8440.000000   1719240   1720164   1720718   1720962   1721061  
  8430.000000   1721238   1721681   1722496   1723664   1725058  
  8420.000000   1726493   1727789   1728843   1729646   1730281  
  8410.000000   1730869   1731509   1732247   1733042   1733809  
  8400.000000   1734458   1734961   1735364   1735792   1736381  
  8390.000000   1737234   1738350   1739621   1740839   1741771  
  8380.000000   1742238   1742160   1741590   1740675   1739613  
  8370.000000   1738582   1737698   1737003   1736475   1736081  
  8360.000000   1735796   1735645   1735684   1735986   1736592  
  8350.000000   1737490   1738598   1739768   1740817   1741563  
  8340.000000   1741887   1741748   1741225   1740480   1739741  
  8330.000000   1739235   1739132   1739500   1740278   1741309  
  8320.000000   1742379   1743304   1743946   1744283   1744361  
  8310.000000   1744298   1744196   1744121   1744085   1744041  
  8300.000000   1743937   1743701   1743287   1742644   1741736  
  8290.000000   1740539   1739050   1737324   1735484   1733749  
  8280.000000   1732390   1731686   1731816   1732825   1734565  
  8270.000000   1736759   1739034   1741041   1742518   1743349  
  8260.000000   1743557   1743249   1742567   1741621   1740486  
  8250.000000   1739186   1737735   1736149   1734480   1732813  
  8240.000000   1731240   1729855   1728701   1727801   1727119  
  8230.000000   1726615   1726229   1725928   1725690   1725529  
  8220.000000   1725463   1725518   1725691   1725946   1726197  
  8210.000000   1726335   1726247   1725847   1725114   1724071  
  8200.000000   1722791   1721342   1719768   1718065   1716183  
  8190.000000   1714089   1711788   1709404   1707147   1705307  
  8180.000000   1704131   1703776   1704204   1705198   1706388  
  8170.000000   1707338   1707658   1707082   1705551   1703188  
  8160.000000   1700281   1697185   1694254   1691762   1689864  
  8150.000000   1688585   1687826   1687419   1687160   1686881  
  8140.000000   1686461   1685859   1685077   1684151   1683115  
  8130.000000   1681983   1680758   1679429   1678015   1676556  
  8120.000000   1675132   1673826   1672705   1671789   1671044  
  8110.000000   1670393   1669752   1669052   1668268   1667408  
  8100.000000   1666502   1665578   1664645   1663701   1662749  
  8090.000000   1661817   1660967   1660280   1659820   1659598  
  8080.000000   1659541   1659511   1659333   1658858   1658009  
  8070.000000   1656805   1655349   1653782   1652240   1650803  
  8060.000000   1649490   1648267   1647082   1645899   1644716  
  8050.000000   1643569   1642512   1641598   1640854   1640278  
  8040.000000   1639841   1639492   1639178   1638843   1638448  
  8030.000000   1637962   1637379   1636714   1636002   1635293  
  8020.000000   1634639   1634076   1633617   1633241   1632908  
  8010.000000   1632560   1632139   1631594   1630885   1629993  
  8000.000000   1628918   1627697   1626399   1625130   1624016  
  7990.000000   1623174   1622680   1622533   1622654   1622893  
  7980.000000   1623078   1623056   1622750   1622162   1621382  
  7970.000000   1620533   1619750   1619117   1618673   1618409  
  7960.000000   1618294   1618305   1618433   1618698   1619119  
  7950.000000   1619705   1620427   1621220   1621980   1622589  
  7940.000000   1622935   1622937   1622565   1621844   1620854  
  7930.000000   1619712   1618546   1617469   1616550   1615808  
  7920.000000   1615203   1614662   1614094   1613430   1612629  
  7910.000000   1611704   1610705   1609719   1608854   1608214  
  7900.000000   1607894   1607942   1608355   1609049   1609878  
  7890.000000   1610645   1611161   1611287   1610995   1610371  
  7880.000000   1609605   1608916   1608488   1608404   1608622  
  7870.000000   1609001   1609361   1609559   1609538   1609341  
  7860.000000   1609067   1608828   1608678   1608606   1608542  
  7850.000000   1608413   1608185   1607889   1607602   1607411  
  7840.000000   1607345   1607362   1607346   1607157   1606691  
  7830.000000   1605926   1604930   1603835   1602773   1601833  
  7820.000000   1601023   1600294   1599569   1598802   1598003  
  7810.000000   1597234   1596580   1596095   1595770   1595528  
  7800.000000   1595247   1594814   1594173   1593350   1592454  
  7790.000000   1591632   1591022   1590702   1590666   1590820  
  7780.000000   1591018   1591095   1590920   1590415   1589578  
  7770.000000   1588481   1587244   1586023   1584964   1584188  
  7760.000000   1583755   1583659   1583820   1584103   1584341  
  7750.000000   1584378   1584094   1583438   1582434   1581173  
  7740.000000   1579794   1578438   1577227   1576226   1575444  
  7730.000000   1574837   1574333   1573864   1573387   1572901  
  7720.000000   1572428   1572008   1571658   1571363   1571077  
  7710.000000   1570735   1570290   1569724   1569080   1568426  
  7700.000000   1567847   1567392   1567063   1566798   1566500  
  7690.000000   1566072   1565467   1564711   1563911   1563228  
  7680.000000   1562817   1562786   1563144   1563799   1564575  
  7670.000000   1565256   1565654   1565637   1565180   1564348  
  7660.000000   1563293   1562191   1561221   1560502   1560086  
  7650.000000   1559947   1560009   1560174   1560356   1560512  
  7640.000000   1560640   1560785   1561004   1561351   1561849  
  7630.000000   1562478   1563184   1563887   1564511   1564997  
  7620.000000   1565322   1565493   1565548   1565538   1565515  
  7610.000000   1565518   1565566   1565659   1565780   1565905  
  7600.000000   1566019   1566118   1566219   1566353   1566561  
  7590.000000   1566876   1567322   1567894   1568569   1569303  
  7580.000000   1570053   1570777   1571456   1572087   1572692  
  7570.000000   1573305   1573968   1574715   1575564   1576506  
  7560.000000   1577503   1578490   1579400   1580170   1580781  
  7550.000000   1581242   1581619   1581984   1582414   1582942  
  7540.000000   1583568   1584247   1584933   1585600   1586276  
  7530.000000   1587037   1587995   1589252   1590867   1592820  
  7520.000000   1595034   1597374   1599710   1601927   1603974  
  7510.000000   1605829   1607524   1609086   1610562   1611985  
  7500.000000   1613404   1614872   1616450   1618184   1620098  
  7490.000000   1622178   1624386   1626662   1628955   1631230  
  7480.000000   1633476   1635684   1637843   1639914   1641855  
  7470.000000   1643629   1645254   1646796   1648392   1650189  
  7460.000000   1652313   1654810   1657629   1660629   1663634  
  7450.000000   1666484   1669099   1671482   1673724   1675944  
  7440.000000   1678257   1680725   1683350   1686087   1688875  
  7430.000000   1691665   1694440   1697212   1700010   1702863  
  7420.000000   1705776   1708736   1711703   1714630   1717470  
  7410.000000   1720189   1722774   1725236   1727600   1729903  
  7400.000000   1732174   1734425   1736646   1738800   1740842  
  7390.000000   1742734   1744471   1746089   1747663   1749291  
  7380.000000   1751070   1753069   1755310   1757772   1760406  
  7370.000000   1763156   1765977   1768839   1771732   1774646  
  7360.000000   1777576   1780504   1783408   1786258   1789032  
  7350.000000   1791701   1794243   1796640   1798891   1801017  
  7340.000000   1803061   1805092   1807180   1809390   1811744  
  7330.000000   1814235   1816815   1819430   1822017   1824542  
  7320.000000   1826978   1829317   1831530   1833584   1835433  
  7310.000000   1837055   1838459   1839715   1840922   1842194  
  7300.000000   1843601   1845159   1846802   1848431   1849933  
  7290.000000   1851244   1852357   1853330   1854246   1855188  
  7280.000000   1856199   1857282   1858410   1859546   1860663  
  7270.000000   1861744   1862783   1863768   1864685   1865517  
  7260.000000   1866268   1866970   1867695   1868525   1869535  
  7250.000000   1870749   1872147   1873655   1875206   1876751  
  7240.000000   1878317   1879967   1881802   1883873   1886188  
  7230.000000   1888658   1891177   1893620   1895950   1898190  
  7220.000000   1900462   1902899   1905637   1908727   1912164  
  7210.000000   1915855   1919694   1923553   1927358   1931049  
  7200.000000   1934634   1938123   1941574   1945040   1948612  
  7190.000000   1952367   1956401   1960755   1965449   1970429  
  7180.000000   1975618   1980903   1986205   1991462   1996669  
  7170.000000   2001827   2006972   2012106   2017250   2022389  
  7160.000000   2027550   2032749   2038047   2043493   2049149  
  7150.000000   2055041   2061189   2067574   2074176   2080942  
  7140.000000   2087834   2094777   2101717   2108569   2115294  
  7130.000000   2121859   2128305   2134694   2141156   2147802  
  7120.000000   2154751   2162043   2169682   2177592   2185680  
  7110.000000   2193831   2201970   2210045   2218069   2226073  
  7100.000000   2234138   2242325   2250695   2259253   2267969  
  7090.000000   2276751   2285504   2294128   2302579   2310868  
  7080.000000   2319074   2327306   2335673   2344234   2352989  
  7070.000000   2361864   2370762   2379583   2388263   2396783  
  7060.000000   2405157   2413416   2421585   2429688   2437747  
  7050.000000   2445809   2453933   2462192   2470629   2479239  
  7040.000000   2487942   2496609   2505092   2513285   2521147  
  7030.000000   2528730   2536127   2543459   2550793   2558154  
  7020.000000   2565498   2572780   2579951   2587020   2594006  
  7010.000000   2600952   2607851   2614671   2621322   2627731  
  7000.000000   2633836   2639655   2645240   2650691   2656080  
  6990.000000   2661462   2666818   2672124   2677318   2682378  
  6980.000000   2687278   2692029   2696616   2701037   2705260  
  6970.000000   2709282   2713098   2716762   2720322   2723850  
  6960.000000   2727369   2730891   2734371   2737780   2741076  
  6950.000000   2744270   2747367   2750398   2753354   2756217  
  6940.000000   2758933   2761471   2763813   2765997   2768077  
  6930.000000   2770119   2772151   2774171   2776125   2777964  
  6920.000000   2779650   2781205   2782685   2784180   2785756  
  6910.000000   2787451   2789240   2791071   2792870   2794588  
  6900.000000   2796194   2797689   2799085   2800395   2801627  
  6890.000000   2802786   2803882   2804937   2805974   2807018  
  6880.000000   2808076   2809143   2810205   2811260   2812318  
  6870.000000   2813416   2814585   2815842   2817160   2818473  
  6860.000000   2819696   2820755   2821621   2822329   2822962  
  6850.000000   2823627   2824405   2825333   2826387   2827504  
  6840.000000   2828609   2829649   2830598   2831467   2832272  
  6830.000000   2833032   2833750   2834425   2835053   2835647  
  6820.000000   2836221   2836797   2837377   2837954   2838497  
  6810.000000   2838984   2839396   2839747   2840057   2840354  
  6800.000000   2840639   2840895   2841076   2841138   2841052  
  6790.000000   2840826   2840491   2840100   2839690   2839279  
  6780.000000   2838853   2838395   2837889   2837349   2836807  
  6770.000000   2836307   2835874   2835507   2835162   2834780  
  6760.000000   2834299   2833691   2832965   2832169   2831372  
  6750.000000   2830641   2830017   2829512   2829100   2828739  
  6740.000000   2828369   2827941   2827407   2826749   2825962  
  6730.000000   2825069   2824104   2823109   2822110   2821115  
  6720.000000   2820104   2819041   2817889   2816626   2815252  
  6710.000000   2813797   2812291   2810771   2809249   2807737  
  6700.000000   2806237   2804768   2803360   2802055   2800876  
  6690.000000   2799822   2798842   2797858   2796779   2795544  
  6680.000000   2794135   2792592   2790987   2789403   2787890  
  6670.000000   2786462   2785089   2783721   2782310   2780830  
  6660.000000   2779273   2777649   2775960   2774207   2772378  
  6650.000000   2770478   2768524   2766560   2764635   2762790  
  6640.000000   2761033   2759339   2757650   2755906   2754062  
  6630.000000   2752112   2750079   2748015   2745964   2743960  
  6620.000000   2742009   2740101   2738209   2736313   2734391  
  6610.000000   2732427   2730403   2728302   2726112   2723839  
  6600.000000   2721505   2719156   2716841   2714608   2712482  
  6590.000000   2710468   2708550   2706705   2704909   2703142  
  6580.000000   2701383   2699605   2697779   2695872   2693869  
  6570.000000   2691781   2689650   2687535   2685501   2683586  
  6560.000000   2681794   2680094   2678439   2676782   2675106  
  6550.000000   2673418   2671747   2670117   2668541   2667009  
  6540.000000   2665505   2664017   2662559   2661160   2659860  
  6530.000000   2658680   2657615   2656627   2655661   2654670  
  6520.000000   2653633   2652562   2651489   2650438   2649414  
  6510.000000   2648385   2647298   2646103   2644775   2643327  
  6500.000000   2641809   2640284   2638806   2637402   2636070  
  6490.000000   2634793   2633546   2632318   2631108   2629922  
  6480.000000   2628763   2627627   2626510   2625414   2624350  
  6470.000000   2623341   2622405   2621542   2620720   2619882  
  6460.000000   2618966   2617924   2616749   2615473   2614162  
  6450.000000   2612878   2611663   2610518   2609413   2608305  
  6440.000000   2607164   2605991   2604813   2603671   2602599  
  6430.000000   2601604   2600671   2599767   2598860   2597932  
  6420.000000   2596984   2596027   2595071   2594113   2593146  
  6410.000000   2592156   2591145   2590126   2589127   2588176  
  6400.000000   2587289   2586467   2585694   2584952   2584228  
  6390.000000   2583524   2582845   2582197   2581570   2580941  
  6380.000000   2580278   2579558   2578776   2577959   2577143  
  6370.000000   2576373   2575668   2575024   2574411   2573783  
  6360.000000   2573100   2572336   2571478   2570526   2569484  
  6350.000000   2568357   2567157   2565915   2564679   2563513  
  6340.000000   2562473   2561592   2560855   2560216   2559598  
  6330.000000   2558939   2558202   2557397   2556559   2555736  
  6320.000000   2554947   2554178   2553374   2552469   2551409  
  6310.000000   2550182   2548810   2547354   2545864   2544382  
  6300.000000   2542906   2541420   2539882   2538271   2536567  
  6290.000000   2534776   2532898   2530944   2528905   2526790  
  6280.000000   2524600   2522361   2520097   2517841   2515601  
  6270.000000   2513373   2511125   2508828   2506452   2503994  
  6260.000000   2501462   2498880   2496261   2493611   2490919  
  6250.000000   2488177   2485381   2482555   2479736   2476970  
  6240.000000   2474281   2471675   2469117   2466562   2463959  
  6230.000000   2461283   2458531   2455730   2452918   2450128  
  6220.000000   2447376   2444661   2441965   2439270   2436565  
  6210.000000   2433849   2431132   2428427   2425745   2423095  
  6200.000000   2420478   2417889   2415324   2412775   2410238  
  6190.000000   2407709   2405192   2402697   2400242   2397845  
  6180.000000   2395521   2393271   2391086   2388940   2386809  
  6170.000000   2384668   2382510   2380335   2378157   2375986  
  6160.000000   2373831   2371692   2369569   2367466   2365393  
  6150.000000   2363365   2361395   2359484   2357616   2355758  
  6140.000000   2353877   2351949   2349973   2347973   2345991  
  6130.000000   2344064   2342218   2340452   2338744   2337060  
  6120.000000   2335374   2333672   2331967   2330279   2328646  
  6110.000000   2327087   2325626   2324262   2322999   2321826  
  6100.000000   2320743   2319736   2318801   2317920   2317090  
  6090.000000   2316297   2315549   2314844   2314195   2313594  
  6080.000000   2313043   2312524   2312032   2311560   2311124  
  6070.000000   2310744   2310453   2310268   2310206   2310250  
  6060.000000   2310388   2310585   2310830   2311101   2311408  
  6050.000000   2311744   2312126   2312555   2313052   2313633  
  6040.000000   2314338   2315201   2316265   2317541   2319032  
  6030.000000   2320694   2322479   2324314   2326151   2327947  
  6020.000000   2329696   2331395   2333064   2334718   2336383  
  6010.000000   2338074   2339821   2341642   2343561   2345576  
  6000.000000   2347676   2349818   2351957   2354037   2356027  
  5990.000000   2357910   2359708   2361450   2363187   2364958  
  5980.000000   2366805   2368750   2370812   2372999   2375310  
  5970.000000   2377730   2380236   2382790   2385354   2387892  
  5960.000000   2390391   2392847   2395284   2397718   2400176  
  5950.000000   2402660   2405169   2407686   2410202   2412709  
  5940.000000   2415215   2417735   2420290   2422898   2425571  
  5930.000000   2428318   2431140   2434035   2436992   2439994  
  5920.000000   2443013   2446009   2448944   2451781   2454500  
  5910.000000   2457099   2459597   2462021   2464411   2466802  
  5900.000000   2469227   2471713   2474281   2476943   2479700  
  5890.000000   2482536   2485415   2488292   2491116   2493845  
  5880.000000   2496458   2498954   2501356   2503689   2505979  
  5870.000000   2508234   2510455   2512625   2514741   2516801  
  5860.000000   2518825   2520841   2522890   2525006   2527230  
  5850.000000   2529588   2532108   2534804   2537680   2540722  
  5840.000000   2543901   2547173   2550492   2553815   2557119  
  5830.000000   2560397   2563656   2566907   2570146   2573362  
  5820.000000   2576519   2579582   2582511   2585290   2587898  
  5810.000000   2590346   2592623   2594737   2596667   2598419  
  5800.000000   2599975   2601362   2602578   2603664   2604614  
  5790.000000   2605446   2606123   2606633   2606922   2606968  
  5780.000000   2606728   2606194   2605350   2604214   2602808  
  5770.000000   2601192   2599427   2597603   2595793   2594063  
  5760.000000   2592446   2590956   2589582   2588317   2587156  
  5750.000000   2586111   2585203   2584446   2583845   2583379  
  5740.000000   2583018   2582715   2582443   2582174   2581915  
  5730.000000   2581664   2581446   2581265   2581139   2581070  
  5720.000000   2581077   2581170   2581368   2581671   2582077  
  5710.000000   2582562   2583101   2583666   2584246   2584838  
  5700.000000   2585456   2586109   2586805   2587537   2588293  
  5690.000000   2589060   2589833   2590621   2591433   2592277  
  5680.000000   2593140   2593995   2594789   2595473   2595996  
  5670.000000   2596339   2596494   2596481   2596320   2596041  
  5660.000000   2595661   2595206   2594691   2594146   2593585  
  5650.000000   2593028   2592472   2591913   2591331   2590719  
  5640.000000   2590071   2589403   2588730   2588070   2587428  
  5630.000000   2586800   2586172   2585537   2584900   2584282  
  5620.000000   2583707   2583200   2582765   2582386   2582032  
  5610.000000   2581671   2581278   2580851   2580401   2579947  
  5600.000000   2579493   2579034   2578541   2577991   2577362  
  5590.000000   2576656   2575891   2575095   2574287   2573474  
  5580.000000   2572636   2571746   2570775   2569710   2568552  
  5570.000000   2567324   2566051   2564764   2563483   2562224  
  5560.000000   2560998   2559816   2558683   2557601   2556557  
  5550.000000   2555533   2554501   2553440   2552341   2551211  
  5540.000000   2550069   2548941   2547843   2546783   2545754  
  5530.000000   2544744   2543744   2542754   2541778   2540824  
  5520.000000   2539890   2538965   2538031   2537069   2536064  
  5510.000000   2535014   2533925   2532808   2531668   2530507  
  5500.000000   2529317   2528101   2526861   2525616   2524380  
  5490.000000   2523168   2521971   2520769   2519526   2518214  
  5480.000000   2516808   2515314   2513740   2512108   2510427  
  5470.000000   2508701   2506914   2505061   2503135   2501149  
  5460.000000   2499116   2497050   2494948   2492796   2490568  
  5450.000000   2488249   2485838   2483363   2480868   2478405  
  5440.000000   2476014   2473715   2471516   2469409   2467398  
  5430.000000   2465481   2463672   2461962   2460340   2458770  
  5420.000000   2457229   2455693   2454184   2452732   2451408  
  5410.000000   2450251   2449300   2448530   2447918   2447410  
  5400.000000   2446993   2446653   2446428   2446338   2446426  
  5390.000000   2446689   2447141   2447757   2448552   2449520  
  5380.000000   2450697   2452072   2453658   2455404   2457293  
  5370.000000   2459264   2461332   2463487   2465800   2468291  
  5360.000000   2471040   2474040   2477345   2480929   2484859  
  5350.000000   2489131   2493844   2498998   2504677   2510833  
  5340.000000   2517509   2524633   2532266   2540366   2549032  
  5330.000000   2558233   2568055   2578427   2589402   2600892  
  5320.000000   2612980   2625627   2638977   2653029   2667939  
  5310.000000   2683673   2700339   2717851   2736288   2755568  
  5300.000000   2775792   2796916   2819072   2842235   2866528  
  5290.000000   2891892   2918371   2945819   2974177   3003240  
  5280.000000   3032936   3063138   3093891   3125214   3157244  
  5270.000000   3190018   3223551   3257696   3292225   3326854  
  5260.000000   3361311   3395447   3429182   3462578   3495652  
  5250.000000   3528452   3560846   3592726   3623816   3654003  
  5240.000000   3683091   3711149   3738144   3764271   3789521  
  5230.000000   3814046   3837733   3860617   3882497   3903373  
  5220.000000   3923076   3941692   3959160   3975671   3991230  
  5210.000000   4006037   4020041   4033336   4045756   4057313  
  5200.000000   4067833   4077388   4085916   4093589   4100403  
  5190.000000   4106514   4111858   4116505   4120339   4123421  
  5180.000000   4125685   4127254   4128118   4128410   4128096  
  5170.000000   4127251   4125802   4123812   4121238   4118189  
  5160.000000   4114666   4110783   4106523   4101948   4097005  
  5150.000000   4091731   4086086   4080131   4073855   4067320  
  5140.000000   4060502   4053435   4046086   4038488   4030641  
  5130.000000   4022612   4014430   4006166   3997829   3989453  
  5120.000000   3981016   3972532   3963987   3955410   3946809  
  5110.000000   3938216   3929631   3921065   3912503   3903950  
  5100.000000   3895401   3886876   3878384   3869946   3861561  
  5090.000000   3853228   3844927   3836646   3828369   3820096  
  5080.000000   3811823   3803555   3795283   3787005   3778708  
  5070.000000   3770390   3762050   3753703   3745359   3737034  
  5060.000000   3728728   3720441   3712155   3703860   3695537  
  5050.000000   3687182   3678789   3670362   3661900   3653410  
  5040.000000   3644893   3636361   3627829   3619315   3610840  
  5030.000000   3602420   3594067   3585782   3577566   3569412  
  5020.000000   3561329   3553316   3545397   3537579   3529892  
  5010.000000   3522340   3514952   3507728   3500700   3493866  
  5000.000000   3487263   3480883   3474757   3468865   3463234  
  4990.000000   3457839   3452714   3447844   3443273   3438989  
  4980.000000   3435037   3431394   3428094   3425107   3422469  
  4970.000000   3420151   3418201   3416589   3415358   3414466  
  4960.000000   3413939   3413726   3413854   3414286   3415073  
  4950.000000   3416197   3417722   3419628   3421964   3424687  
  4940.000000   3427827   3431331   3435224   3439457   3444057  
  4930.000000   3448975   3454232   3459775   3465622   3471732  
  4920.000000   3478135   3484803   3491774   3499023   3506573  
  4910.000000   3514384   3522465   3530774   3539318   3548065  
  4900.000000   3557026   3566173   3575506   3584990   3594607  
  4890.000000   3604318   3614096   3623908   3633726   3643521  
  4880.000000   3653262   3662924   3672468   3681873   3691098  
  4870.000000   3700123   3708909   3717446   3725701   3733680  
  4860.000000   3741366   3748786   3755940   3762867   3769573  
  4850.000000   3776098   3782445   3788652   3794715   3800669  
  4840.000000   3806500   3812231   3817836   3823326   3828675  
  4830.000000   3833897   3838974   3843930   3848755   3853467  
  4820.000000   3858043   3862488   3866770   3870888   3874818  
  4810.000000   3878570   3882133   3885526   3888744   3891806  
  4800.000000   3894709   3897480   3900125   3902676   3905140  
  4790.000000   3907541   3909871   3912138   3914326   3916448  
  4780.000000   3918499   3920510   3922487   3924457   3926409  
  4770.000000   3928339   3930206   3931987   3933635   3935139  
  4760.000000   3936475   3937657   3938673   3939544   3940256  
  4750.000000   3940819   3941206   3941422   3941436   3941253  
  4740.000000   3940849   3940235   3939398   3938364   3937130  
  4730.000000   3935726   3934152   3932432   3930559   3928553  
  4720.000000   3926412   3924164   3921826   3919437   3917020  
  4710.000000   3914605   3912197   3909804   3907415   3905032  
  4700.000000   3902652   3900292   3897968   3895699   3893495  
  4690.000000   3891355   3889266   3887211   3885169   3883125  
  4680.000000   3881069   3878989   3876879   3874721   3872499  
  4670.000000   3870193   3867800   3865324   3862798   3860256  
  4660.000000   3857752   3855328   3853024   3850861   3848856  
  4650.000000   3847012   3845340   3843840   3842522   3841382  
  4640.000000   3840420   3839616   3838953   3838398   3837928  
  4630.000000   3837510   3837124   3836743   3836354   3835938  
  4620.000000   3835491   3835003   3834480   3833922   3833335  
  4610.000000   3832720   3832075   3831398   3830687   3829948  
  4600.000000   3829190   3828429   3827679   3826952   3826249  
  4590.000000   3825566   3824892   3824219   3823540   3822858  
  4580.000000   3822176   3821504   3820841   3820187   3819533  
  4570.000000   3818871   3818191   3817485   3816748   3815974  
  4560.000000   3815155   3814285   3813353   3812357   3811299  
  4550.000000   3810187   3809037   3807862   3806677   3805484  
  4540.000000   3804294   3803105   3801936   3800793   3799716  
  4530.000000   3798719   3797850   3797116   3796563   3796182  
  4520.000000   3796022   3796070   3796386   3796963   3797877  
  4510.000000   3799126   3800799   3802896   3805516   3808653  
  4500.000000   3812405   3816753   3821782   3827456   3833852  
  4490.000000   3840928   3848757   3857298   3866614   3876648  
  4480.000000   3887439   3898911   3911075   3923846   3937225  
  4470.000000   3951123   3965527   3980336   3995510   4010935  
  4460.000000   4026553   4042262   4058010   4073726   4089379  
  4450.000000   4104925   4120342   4135613   4150723   4165677  
  4440.000000   4180468   4195120   4209611   4223965   4238136  
  4430.000000   4252145   4265929   4279519   4292849   4305956  
  4420.000000   4318751   4331244   4343300   4354889   4365841  
  4410.000000   4376108   4385524   4394055   4401571   4408077  
  4400.000000   4413494   4417883   4421233   4423662   4425223  
  4390.000000   4426074   4426297   4426047   4425406   4424502  
  4380.000000   4423411   4422256   4421131   4420170   4419494  
  4370.000000   4419234   4419498   4420363   4421880   4424048  
  4360.000000   4426852   4430228   4434124   4438451   4443145  
  4350.000000   4448121   4453319   4458677   4464158   4469736  
  4340.000000   4475401   4481139   4486916   4492661   4498242  
  4330.000000   4503481   4508155   4512057   4515018   4516983  
  4320.000000   4518001   4518269   4518046   4517658   4517365  
  4310.000000   4517395   4517823   4518673   4519843   4521242  
  4300.000000   4522731   4524237   4525679   4527032   4528261  
  4290.000000   4529356   4530292   4531062   4531655   4532084  
  4280.000000   4532360   4532522   4532589   4532603   4532573  
  4270.000000   4532531   4532462   4532371   4532202   4531902  
  4260.000000   4531363   4530489   4529168   4527342   4524989  
  4250.000000   4522167   4518978   4515578   4512118   4508747  
  4240.000000   4505557   4502608   4499895   4497400   4495067  
  4230.000000   4492856   4490713   4488604   4486489   4484333  
  4220.000000   4482104   4479765   4477301   4474700   4471983  
  4210.000000   4469177   4466342   4463533   4460822   4458261  
  4200.000000   4455901   4453759   4451846   4450130   4448594  
  4190.000000   4447182   4445878   4444638   4443486   4442406  
  4180.000000   4441465   4440665   4440088   4439741   4439718  
  4170.000000   4440037   4440814   4442088   4443992   4446554  
  4160.000000   4449875   4453928   4458745   4464233   4470382  
  4150.000000   4477077   4484317   4492007   4500183   4508785  
  4140.000000   4517882   4527441   4537544   4548161   4559363  
  4130.000000   4571100   4583412   4596224   4609552   4623321  
  4120.000000   4637551   4652189   4667267   4682751   4698676  
  4110.000000   4715007   4731769   4748921   4766470   4784358  
  4100.000000   4802567   4821026   4839698   4858521   4877473  
  4090.000000   4896531   4915703   4935000   4954436   4974021  
  4080.000000   4993743   5013596   5033534   5053537   5073536  
  4070.000000   5093499   5113337   5133020   5152458   5171652  
  4060.000000   5190532   5209130   5227374   5245283   5262746  
  4050.000000   5279757   5296181   5312033   5327198   5341733  
  4040.000000   5355537   5368667   5380997   5392572   5403254  
  4030.000000   5413103   5421999   5430013   5437030   5443090  
  4020.000000   5448036   5451911   5454646   5456333   5456916  
  4010.000000   5456579   5455426   5453540   5450726   5447127  
  4000.000000   5443134  
##END= 
