##TITLE= Sample 028 By ssteindl date Dienstag, November 20 2018
##JCAMP-DX= 4.24
##DATA TYPE= INFRARED SPECTRUM
##ORIGIN= Exported PE Spectrum Data File
##OWNER= Sandra Steindl
##DATE= 18/11/20
##TIME= 11:46:28.00
##SPECTROMETER/DATA SYSTEM= PERKIN-ELMER Frontier FT-IR/NIR IR
##INSTRUMENT PARAMETERS=
  APODIZATION=stark
  DETECTOR=INGAAS
##RESOLUTION= 16.000000
##DELTAX= -2.000000
##XUNITS= 1/CM
##YUNITS= A
##XFACTOR= 1.00
##YFACTOR= 0.00000011920928955078
##FIRSTX= 10000.00
##LASTX= 4000.00
##NPOINTS= 3001
##FIRSTY= 0.237150
##MAXY= 0.581130
##MINY= 0.190549
##XYDATA= (X++(Y..Y))
 10000.000000   1989358   1978589   1968411   1960560   1957017  
  9990.000000   1958656   1964496   1972111   1978865   1982659  
  9980.000000   1982449   1978167   1970811   1961716   1952266  
  9970.000000   1943335   1935501   1928892   1923484   1919058  
  9960.000000   1915434   1912447   1910049   1908404   1907753  
  9950.000000   1908484   1910808   1914741   1919979   1925948  
  9940.000000   1932039   1937669   1942530   1946437   1949318  
  9930.000000   1950940   1950941   1948837   1944391   1937825  
  9920.000000   1930044   1922479   1916642   1913654   1913700  
  9910.000000   1916083   1919375   1922156   1923480   1923297  
  9900.000000   1922318   1921615   1922032   1923736   1926111  
  9890.000000   1927981   1928187   1926054   1921772   1916296  
  9880.000000   1910974   1907022   1905027   1904876   1905838  
  9870.000000   1907009   1907658   1907458   1906484   1905024  
  9860.000000   1903338   1901506   1899383   1896749   1893499  
  9850.000000   1889792   1886107   1883070   1881250   1880899  
  9840.000000   1881836   1883488   1885082   1885909   1885571  
  9830.000000   1884053   1881731   1879148   1876863   1875228  
  9820.000000   1874353   1874117   1874305   1874731   1875312  
  9810.000000   1876097   1877145   1878484   1880004   1881501  
  9800.000000   1882768   1883642   1884113   1884202   1883944  
  9790.000000   1883233   1881841   1879504   1876088   1871819  
  9780.000000   1867322   1863592   1861653   1862249   1865484  
  9770.000000   1870728   1876770   1882146   1885617   1886457  
  9760.000000   1884667   1880831   1875894   1870835   1866438  
  9750.000000   1863240   1861534   1861505   1863195   1866525  
  9740.000000   1871143   1876431   1881513   1885448   1887453  
  9730.000000   1887099   1884461   1879993   1874451   1868563  
  9720.000000   1862986   1858168   1854441   1852077   1851250  
  9710.000000   1852080   1854397   1857870   1861887   1865875  
  9700.000000   1869355   1872172   1874420   1876317   1877987  
  9690.000000   1879227   1879564   1878317   1875009   1869543  
  9680.000000   1862424   1854575   1847071   1840771   1836064  
  9670.000000   1832878   1830800   1829415   1828468   1828017  
  9660.000000   1828282   1829512   1831730   1834697   1837927  
  9650.000000   1840885   1843186   1844675   1845477   1845785  
  9640.000000   1845792   1845491   1844749   1843337   1841086  
  9630.000000   1837977   1834151   1829909   1825586   1821558  
  9620.000000   1818128   1815588   1814125   1813818   1814553  
  9610.000000   1815965   1817510   1818514   1818438   1816969  
  9600.000000   1814219   1810627   1806881   1803660   1801479  
  9590.000000   1800587   1801007   1802645   1805368   1809062  
  9580.000000   1813537   1818493   1823421   1827685   1830631  
  9570.000000   1831782   1831015   1828582   1825114   1821340  
  9560.000000   1817950   1815299   1813416   1812010   1810657  
  9550.000000   1809017   1806918   1804512   1802112   1800236  
  9540.000000   1799354   1799905   1802093   1805894   1810969  
  9530.000000   1816686   1822211   1826603   1829042   1828964  
  9520.000000   1826248   1821212   1814588   1807321   1800392  
  9510.000000   1794579   1790347   1787784   1786636   1786463  
  9500.000000   1786700   1786890   1786643   1785826   1784465  
  9490.000000   1782840   1781376   1780559   1780814   1782268  
  9480.000000   1784741   1787629   1790124   1791304   1790468  
  9470.000000   1787274   1781955   1775268   1768379   1762547  
  9460.000000   1758802   1757676   1759072   1762367   1766599  
  9450.000000   1770814   1774277   1776689   1778131   1778988  
  9440.000000   1779705   1780573   1781658   1782722   1783466  
  9430.000000   1783541   1782783   1781138   1778704   1775640  
  9420.000000   1772153   1768536   1765156   1762513   1761108  
  9410.000000   1761373   1763451   1767135   1771825   1776690  
  9400.000000   1780893   1783843   1785361   1785670   1785232  
  9390.000000   1784518   1783803   1783128   1782377   1781449  
  9380.000000   1780381   1779400   1778794   1778768   1779212  
  9370.000000   1779701   1779548   1778140   1775175   1770861  
  9360.000000   1765841   1760987   1757089   1754601   1753507  
  9350.000000   1753412   1753715   1753898   1753656   1752971  
  9340.000000   1751975   1750835   1749648   1748412   1747126  
  9330.000000   1745787   1744491   1743289   1742189   1741040  
  9320.000000   1739593   1737576   1734859   1731627   1728402  
  9310.000000   1725932   1724920   1725746   1728316   1732036  
  9300.000000   1736001   1739223   1740938   1740800   1738957  
  9290.000000   1735938   1732468   1729257   1726873   1725668  
  9280.000000   1725764   1727009   1729034   1731286   1733164  
  9270.000000   1734122   1733796   1732088   1729222   1725709  
  9260.000000   1722247   1719524   1718061   1718099   1719590  
  9250.000000   1722261   1725667   1729352   1732882   1735973  
  9240.000000   1738446   1740258   1741438   1742050   1742161  
  9230.000000   1741764   1740816   1739219   1736948   1734059  
  9220.000000   1730762   1727382   1724290   1721812   1720099  
  9210.000000   1719137   1718726   1718631   1718634   1718679  
  9200.000000   1718829   1719261   1720094   1721352   1722910  
  9190.000000   1724535   1725983   1727030   1727561   1727498  
  9180.000000   1726807   1725398   1723165   1720016   1716011  
  9170.000000   1711433   1706796   1702733   1699799   1698330  
  9160.000000   1698296   1699339   1700854   1702248   1703128  
  9150.000000   1703407   1703272   1703046   1703051   1703421  
  9140.000000   1704081   1704763   1705189   1705160   1704685  
  9130.000000   1703926   1703150   1702597   1702365   1702392  
  9120.000000   1702461   1702350   1701911   1701172   1700312  
  9110.000000   1699611   1699321   1699551   1700190   1700934  
  9100.000000   1701400   1701230   1700238   1698437   1696070  
  9090.000000   1693488   1691051   1689008   1687479   1686472  
  9080.000000   1685945   1685872   1686253   1687125   1688487  
  9070.000000   1690273   1692305   1694350   1696188   1697672  
  9060.000000   1698763   1699493   1699916   1700032   1699763  
  9050.000000   1698989   1697630   1695749   1693567   1691433  
  9040.000000   1689678   1688511   1687889   1687553   1687094  
  9030.000000   1686155   1684563   1682412   1680009   1677734  
  9020.000000   1675898   1674613   1673802   1673232   1672685  
  9010.000000   1672023   1671277   1670571   1670071   1669877  
  9000.000000   1670013   1670425   1671047   1671852   1672866  
  8990.000000   1674131   1675641   1677302   1678951   1680385  
  8980.000000   1681459   1682117   1682430   1682507   1682431  
  8970.000000   1682182   1681652   1680706   1679262   1677420  
  8960.000000   1675448   1673757   1672715   1672579   1673363  
  8950.000000   1674865   1676701   1678455   1679781   1680465  
  8940.000000   1680425   1679675   1678317   1676492   1674392  
  8930.000000   1672241   1670304   1668813   1667906   1667576  
  8920.000000   1667663   1667921   1668084   1667990   1667616  
  8910.000000   1667089   1666596   1666293   1666233   1666342  
  8900.000000   1666473   1666481   1666304   1665991   1665663  
  8890.000000   1665465   1665474   1665678   1665974   1666210  
  8880.000000   1666266   1666043   1665532   1664709   1663581  
  8870.000000   1662109   1660276   1658113   1655758   1653477  
  8860.000000   1651611   1650553   1650618   1651987   1654610  
  8850.000000   1658252   1662515   1666921   1670970   1674208  
  8840.000000   1676318   1677108   1676590   1674916   1672442  
  8830.000000   1669593   1666841   1664559   1662967   1662102  
  8820.000000   1661810   1661872   1662052   1662264   1662551  
  8810.000000   1663107   1664141   1665776   1667957   1670400  
  8800.000000   1672687   1674336   1675034   1674685   1673529  
  8790.000000   1672006   1670659   1669933   1670052   1670970  
  8780.000000   1672411   1674020   1675511   1676799   1677985  
  8770.000000   1679318   1681001   1683117   1685519   1687892  
  8760.000000   1689858   1691111   1691559   1691297   1690589  
  8750.000000   1689690   1688769   1687821   1686717   1685306  
  8740.000000   1683541   1681577   1679758   1678530   1678275  
  8730.000000   1679194   1681210   1684002   1687083   1689970  
  8720.000000   1692310   1693970   1695037   1695741   1696378  
  8710.000000   1697188   1698311   1699740   1701358   1702965  
  8700.000000   1704332   1705264   1705633   1705421   1704708  
  8690.000000   1703673   1702538   1701522   1700788   1700391  
  8680.000000   1700290   1700359   1700447   1700425   1700219  
  8670.000000   1699846   1699395   1699032   1698938   1699304  
  8660.000000   1700268   1701895   1704130   1706786   1709570  
  8650.000000   1712109   1714053   1715120   1715212   1714401  
  8640.000000   1712939   1711156   1709390   1707910   1706878  
  8630.000000   1706364   1706358   1706837   1707769   1709117  
  8620.000000   1710794   1712638   1714422   1715878   1716795  
  8610.000000   1717050   1716705   1715941   1715058   1714346  
  8600.000000   1714035   1714245   1715001   1716270   1718006  
  8590.000000   1720186   1722788   1725757   1728950   1732127  
  8580.000000   1734991   1737251   1738732   1739420   1739519  
  8570.000000   1739356   1739302   1739639   1740478   1741755  
  8560.000000   1743250   1744731   1746010   1747051   1747909  
  8550.000000   1748733   1749631   1750641   1751672   1752559  
  8540.000000   1753130   1753272   1752986   1752366   1751559  
  8530.000000   1750697   1749843   1748998   1748140   1747281  
  8520.000000   1746512   1745998   1745930   1746430   1747484  
  8510.000000   1748913   1750430   1751733   1752627   1753092  
  8500.000000   1753303   1753541   1754083   1755088   1756554  
  8490.000000   1758328   1760195   1761965   1763555   1764979  
  8480.000000   1766297   1767535   1768638   1769462   1769852  
  8470.000000   1769718   1769135   1768330   1767625   1767316  
  8460.000000   1767552   1768294   1769323   1770366   1771207  
  8450.000000   1771803   1772279   1772882   1773836   1775247  
  8440.000000   1777020   1778911   1780611   1781877   1782626  
  8430.000000   1782939   1783019   1783078   1783240   1783491  
  8420.000000   1783691   1783661   1783274   1782528   1781554  
  8410.000000   1780572   1779805   1779417   1779441   1779818  
  8400.000000   1780413   1781102   1781806   1782512   1783255  
  8390.000000   1784079   1784997   1785967   1786893   1787655  
  8380.000000   1788151   1788330   1788201   1787851   1787411  
  8370.000000   1787042   1786872   1786983   1787364   1787931  
  8360.000000   1788513   1788899   1788870   1788277   1787075  
  8350.000000   1785356   1783325   1781261   1779460   1778148  
  8340.000000   1777433   1777267   1777479   1777829   1778074  
  8330.000000   1778051   1777701   1777111   1776450   1775940  
  8320.000000   1775761   1776019   1776719   1777761   1778958  
  8310.000000   1780075   1780875   1781168   1780832   1779842  
  8300.000000   1778273   1776295   1774152   1772094   1770336  
  8290.000000   1768987   1768044   1767385   1766815   1766132  
  8280.000000   1765192   1763990   1762646   1761404   1760532  
  8270.000000   1760268   1760748   1761965   1763762   1765847  
  8260.000000   1767866   1769461   1770349   1770369   1769512  
  8250.000000   1767933   1765919   1763835   1762025   1760734  
  8240.000000   1760033   1759825   1759858   1759831   1759465  
  8230.000000   1758616   1757284   1755622   1753839   1752140  
  8220.000000   1750637   1749350   1748218   1747161   1746134  
  8210.000000   1745152   1744283   1743594   1743094   1742704  
  8200.000000   1742259   1741564   1740462   1738895   1736931  
  8190.000000   1734755   1732604   1730718   1729256   1728284  
  8180.000000   1727745   1727499   1727347   1727066   1726453  
  8170.000000   1725333   1723611   1721265   1718392   1715172  
  8160.000000   1711865   1708742   1706044   1703938   1702482  
  8150.000000   1701651   1701340   1701434   1701812   1702391  
  8140.000000   1703091   1703821   1704461   1704847   1704816  
  8130.000000   1704221   1703007   1701202   1698963   1696509  
  8120.000000   1694104   1691981   1690295   1689098   1688325  
  8110.000000   1687844   1687473   1687063   1686512   1685803  
  8100.000000   1684984   1684149   1683394   1682774   1682297  
  8090.000000   1681895   1681474   1680915   1680138   1679099  
  8080.000000   1677819   1676373   1674873   1673454   1672243  
  8070.000000   1671352   1670842   1670728   1670955   1671412  
  8060.000000   1671943   1672377   1672567   1672415   1671894  
  8050.000000   1671040   1669936   1668673   1667333   1665976  
  8040.000000   1664651   1663406   1662307   1661423   1660807  
  8030.000000   1660458   1660298   1660178   1659908   1659327  
  8020.000000   1658367   1657089   1655687   1654429   1653572  
  8010.000000   1653287   1653591   1654360   1655362   1656348  
  8000.000000   1657114   1657550   1657642   1657428   1656964  
  7990.000000   1656262   1655309   1654060   1652501   1650668  
  7980.000000   1648681   1646711   1644954   1643573   1642655  
  7970.000000   1642202   1642131   1642323   1642650   1643021  
  7960.000000   1643393   1643762   1644156   1644589   1645060  
  7950.000000   1645523   1645904   1646110   1646064   1645721  
  7940.000000   1645096   1644260   1643337   1642470   1641788  
  7930.000000   1641372   1641226   1641276   1641378   1641361  
  7920.000000   1641070   1640417   1639411   1638160   1636857  
  7910.000000   1635725   1634966   1634696   1634922   1635536  
  7900.000000   1636346   1637137   1637724   1638007   1637985  
  7890.000000   1637746   1637423   1637150   1637017   1637044  
  7880.000000   1637200   1637406   1637590   1637689   1637673  
  7870.000000   1637531   1637254   1636843   1636290   1635621  
  7860.000000   1634889   1634202   1633692   1633488   1633661  
  7850.000000   1634189   1634939   1635701   1636237   1636362  
  7840.000000   1636000   1635208   1634158   1633074   1632169  
  7830.000000   1631575   1631325   1631353   1631545   1631778  
  7820.000000   1631965   1632073   1632108   1632105   1632093  
  7810.000000   1632093   1632111   1632144   1632192   1632254  
  7800.000000   1632327   1632393   1632415   1632347   1632143  
  7790.000000   1631784   1631279   1630679   1630049   1629462  
  7780.000000   1628961   1628559   1628232   1627932   1627611  
  7770.000000   1627229   1626764   1626213   1625578   1624862  
  7760.000000   1624069   1623208   1622305   1621411   1620600  
  7750.000000   1619959   1619560   1619444   1619594   1619935  
  7740.000000   1620341   1620672   1620798   1620646   1620215  
  7730.000000   1619575   1618848   1618165   1617628   1617270  
  7720.000000   1617054   1616872   1616599   1616123   1615393  
  7710.000000   1614435   1613335   1612223   1611221   1610423  
  7700.000000   1609870   1609558   1609455   1609509   1609672  
  7690.000000   1609880   1610069   1610146   1610020   1609611  
  7680.000000   1608889   1607896   1606757   1605654   1604787  
  7670.000000   1604329   1604367   1604906   1605852   1607053  
  7660.000000   1608327   1609494   1610400   1610918   1610973  
  7650.000000   1610525   1609606   1608298   1606754   1605159  
  7640.000000   1603704   1602548   1601777   1601402   1601352  
  7630.000000   1601523   1601793   1602073   1602302   1602445  
  7620.000000   1602484   1602394   1602155   1601744   1601176  
  7610.000000   1600488   1599769   1599120   1598652   1598441  
  7600.000000   1598528   1598905   1599519   1600299   1601157  
  7590.000000   1602012   1602795   1603463   1604003   1604428  
  7580.000000   1604775   1605085   1605389   1605684   1605943  
  7570.000000   1606104   1606115   1605940   1605597   1605141  
  7560.000000   1604653   1604210   1603857   1603604   1603434  
  7550.000000   1603335   1603322   1603450   1603793   1604411  
  7540.000000   1605312   1606433   1607652   1608813   1609792  
  7530.000000   1610515   1611000   1611318   1611574   1611845  
  7520.000000   1612180   1612575   1613016   1613489   1614009  
  7510.000000   1614601   1615294   1616088   1616944   1617799  
  7500.000000   1618590   1619285   1619910   1620536   1621253  
  7490.000000   1622126   1623173   1624348   1625571   1626749  
  7480.000000   1627827   1628793   1629684   1630550   1631437  
  7470.000000   1632355   1633290   1634206   1635077   1635899  
  7460.000000   1636692   1637490   1638325   1639214   1640159  
  7450.000000   1641151   1642191   1643283   1644444   1645676  
  7440.000000   1646970   1648284   1649571   1650784   1651911  
  7430.000000   1652984   1654080   1655299   1656729   1658417  
  7420.000000   1660347   1662444   1664588   1666650   1668525  
  7410.000000   1670146   1671508   1672645   1673630   1674542  
  7400.000000   1675461   1676443   1677526   1678725   1680039  
  7390.000000   1681463   1682988   1684614   1686332   1688144  
  7380.000000   1690036   1691991   1693977   1695959   1697901  
  7370.000000   1699768   1701530   1703158   1704628   1705921  
  7360.000000   1707031   1707975   1708792   1709550   1710323  
  7350.000000   1711189   1712199   1713372   1714684   1716087  
  7340.000000   1717514   1718910   1720235   1721471   1722618  
  7330.000000   1723690   1724709   1725702   1726706   1727756  
  7320.000000   1728886   1730111   1731426   1732807   1734210  
  7310.000000   1735599   1736952   1738276   1739594   1740935  
  7300.000000   1742311   1743700   1745056   1746314   1747429  
  7290.000000   1748383   1749196   1749919   1750608   1751313  
  7280.000000   1752058   1752862   1753736   1754702   1755788  
  7270.000000   1757009   1758355   1759763   1761134   1762342  
  7260.000000   1763294   1763948   1764356   1764629   1764933  
  7250.000000   1765412   1766174   1767245   1768597   1770151  
  7240.000000   1771831   1773571   1775346   1777142   1778966  
  7230.000000   1780806   1782664   1784525   1786401   1788299  
  7220.000000   1790259   1792297   1794447   1796708   1799092  
  7210.000000   1801590   1804207   1806936   1809766   1812668  
  7200.000000   1815603   1818530   1821435   1824330   1827275  
  7190.000000   1830337   1833586   1837027   1840617   1844234  
  7180.000000   1847741   1851007   1853979   1856675   1859197  
  7170.000000   1861672   1864237   1866970   1869914   1873047  
  7160.000000   1876341   1879751   1883262   1886867   1890579  
  7150.000000   1894402   1898350   1902426   1906650   1911035  
  7140.000000   1915607   1920354   1925260   1930258   1935287  
  7130.000000   1940264   1945151   1949921   1954603   1959227  
  7120.000000   1963848   1968499   1973227   1978060   1983044  
  7110.000000   1988212   1993599   1999202   2004994   2010906  
  7100.000000   2016863   2022797   2028690   2034554   2040444  
  7090.000000   2046398   2052433   2058503   2064533   2070431  
  7080.000000   2076150   2081698   2087164   2092669   2098345  
  7070.000000   2104265   2110436   2116782   2123186   2129520  
  7060.000000   2135694   2141669   2147462   2153128   2158743  
  7050.000000   2164381   2170099   2175933   2181893   2187970  
  7040.000000   2194127   2200318   2206483   2212571   2218532  
  7030.000000   2224336   2229961   2235403   2240661   2245754  
  7020.000000   2250711   2255582   2260427   2265307   2270253  
  7010.000000   2275268   2280300   2285281   2290131   2294810  
  7000.000000   2299321   2303728   2308110   2312548   2317063  
  6990.000000   2321639   2326194   2330653   2334949   2339079  
  6980.000000   2343071   2346988   2350869   2354724   2358505  
  6970.000000   2362148   2365573   2368744   2371654   2374349  
  6960.000000   2376880   2379314   2381684   2384025   2386339  
  6950.000000   2388646   2390945   2393249   2395547   2397828  
  6940.000000   2400060   2402226   2404310   2406326   2408286  
  6930.000000   2410216   2412117   2413983   2415795   2417544  
  6920.000000   2419236   2420909   2422599   2424338   2426110  
  6910.000000   2427868   2429531   2431030   2432327   2433450  
  6900.000000   2434469   2435482   2436563   2437738   2438969  
  6890.000000   2440181   2441294   2442263   2443090   2443831  
  6880.000000   2444552   2445314   2446133   2446995   2447856  
  6870.000000   2448684   2449462   2450209   2450957   2451736  
  6860.000000   2452553   2453388   2454197   2454936   2455569  
  6850.000000   2456087   2456504   2456847   2457148   2457438  
  6840.000000   2457735   2458060   2458424   2458841   2459312  
  6830.000000   2459832   2460377   2460918   2461417   2461842  
  6820.000000   2462166   2462379   2462477   2462470   2462373  
  6810.000000   2462211   2462008   2461796   2461594   2461420  
  6800.000000   2461269   2461134   2460996   2460852   2460701  
  6790.000000   2460563   2460453   2460382   2460336   2460288  
  6780.000000   2460193   2460018   2459746   2459392   2458992  
  6770.000000   2458586   2458204   2457848   2457495   2457117  
  6760.000000   2456686   2456202   2455691   2455197   2454765  
  6750.000000   2454418   2454149   2453923   2453685   2453380  
  6740.000000   2452974   2452456   2451847   2451189   2450536  
  6730.000000   2449942   2449449   2449080   2448827   2448658  
  6720.000000   2448517   2448346   2448091   2447726   2447259  
  6710.000000   2446726   2446176   2445657   2445190   2444771  
  6700.000000   2444368   2443942   2443457   2442901   2442278  
  6690.000000   2441613   2440927   2440244   2439570   2438908  
  6680.000000   2438252   2437601   2436946   2436280   2435580  
  6670.000000   2434820   2433968   2432998   2431899   2430682  
  6660.000000   2429374   2428013   2426638   2425282   2423966  
  6650.000000   2422709   2421516   2420397   2419345   2418354  
  6640.000000   2417397   2416450   2415481   2414476   2413427  
  6630.000000   2412343   2411231   2410096   2408925   2407695  
  6620.000000   2406376   2404954   2403433   2401842   2400226  
  6610.000000   2398635   2397098   2395625   2394193   2392771  
  6600.000000   2391315   2389800   2388212   2386561   2384868  
  6590.000000   2383169   2381497   2379885   2378351   2376894  
  6580.000000   2375490   2374095   2372655   2371124   2369480  
  6570.000000   2367736   2365936   2364143   2362416   2360784  
  6560.000000   2359241   2357747   2356252   2354718   2353137  
  6550.000000   2351536   2349966   2348481   2347113   2345867  
  6540.000000   2344718   2343627   2342556   2341476   2340374  
  6530.000000   2339243   2338080   2336874   2335623   2334323  
  6520.000000   2332988   2331640   2330307   2329014   2327771  
  6510.000000   2326581   2325436   2324336   2323284   2322294  
  6500.000000   2321373   2320512   2319681   2318828   2317900  
  6490.000000   2316859   2315703   2314464   2313199   2311970  
  6480.000000   2310820   2309755   2308753   2307769   2306761  
  6470.000000   2305703   2304591   2303440   2302274   2301113  
  6460.000000   2299972   2298859   2297780   2296738   2295739  
  6450.000000   2294781   2293858   2292954   2292054   2291149  
  6440.000000   2290240   2289342   2288475   2287654   2286885  
  6430.000000   2286157   2285459   2284774   2284100   2283441  
  6420.000000   2282812   2282219   2281664   2281137   2280627  
  6410.000000   2280126   2279641   2279184   2278771   2278406  
  6400.000000   2278078   2277759   2277420   2277044   2276632  
  6390.000000   2276207   2275802   2275437   2275115   2274816  
  6380.000000   2274503   2274143   2273725   2273261   2272783  
  6370.000000   2272328   2271920   2271561   2271230   2270903  
  6360.000000   2270556   2270186   2269802   2269421   2269049  
  6350.000000   2268684   2268304   2267885   2267405   2266856  
  6340.000000   2266235   2265549   2264797   2263978   2263090  
  6330.000000   2262146   2261167   2260200   2259288   2258473  
  6320.000000   2257760   2257131   2256536   2255922   2255237  
  6310.000000   2254462   2253593   2252650   2251650   2250607  
  6300.000000   2249519   2248384   2247201   2245981   2244740  
  6290.000000   2243498   2242264   2241039   2239807   2238560  
  6280.000000   2237289   2236007   2234730   2233482   2232269  
  6270.000000   2231086   2229906   2228705   2227457   2226158  
  6260.000000   2224814   2223444   2222058   2220656   2219225  
  6250.000000   2217742   2216189   2214563   2212874   2211148  
  6240.000000   2209413   2207699   2206026   2204413   2202872  
  6230.000000   2201414   2200040   2198737   2197478   2196221  
  6220.000000   2194922   2193544   2192076   2190532   2188953  
  6210.000000   2187387   2185878   2184450   2183105   2181827  
  6200.000000   2180590   2179374   2178165   2176956   2175743  
  6190.000000   2174521   2173284   2172027   2170754   2169478  
  6180.000000   2168221   2167005   2165845   2164743   2163688  
  6170.000000   2162660   2161645   2160631   2159620   2158612  
  6160.000000   2157609   2156603   2155576   2154506   2153379  
  6150.000000   2152191   2150955   2149698   2148452   2147246  
  6140.000000   2146098   2145016   2143996   2143026   2142092  
  6130.000000   2141179   2140272   2139359   2138430   2137476  
  6120.000000   2136494   2135483   2134448   2133396   2132340  
  6110.000000   2131296   2130286   2129332   2128460   2127682  
  6100.000000   2127003   2126405   2125867   2125351   2124838  
  6090.000000   2124311   2123785   2123278   2122824   2122441  
  6080.000000   2122147   2121931   2121791   2121710   2121693  
  6070.000000   2121739   2121863   2122057   2122315   2122607  
  6060.000000   2122907   2123186   2123443   2123685   2123955  
  6050.000000   2124287   2124730   2125305   2126035   2126913  
  6040.000000   2127937   2129085   2130350   2131706   2133143  
  6030.000000   2134636   2136179   2137761   2139393   2141079  
  6020.000000   2142839   2144668   2146572   2148524   2150513  
  6010.000000   2152513   2154523   2156540   2158580   2160650  
  6000.000000   2162765   2164919   2167116   2169350   2171635  
  5990.000000   2173975   2176398   2178908   2181517   2184212  
  5980.000000   2186984   2189809   2192687   2195609   2198592  
  5970.000000   2201638   2204760   2207948   2211202   2214509  
  5960.000000   2217877   2221305   2224812   2228397   2232062  
  5950.000000   2235787   2239552   2243333   2247123   2250927  
  5940.000000   2254767   2258665   2262639   2266685   2270786  
  5930.000000   2274907   2279009   2283064   2287045   2290945  
  5920.000000   2294752   2298468   2302086   2305608   2309032  
  5910.000000   2312367   2315612   2318772   2321828   2324769  
  5900.000000   2327568   2330226   2332744   2335163   2337520  
  5890.000000   2339869   2342236   2344631   2347029   2349398  
  5880.000000   2351696   2353897   2355987   2357973   2359869  
  5870.000000   2361691   2363454   2365171   2366862   2368549  
  5860.000000   2370266   2372046   2373914   2375885   2377958  
  5850.000000   2380121   2382362   2384669   2387040   2389471  
  5840.000000   2391962   2394499   2397067   2399637   2402190  
  5830.000000   2404705   2407176   2409602   2411990   2414345  
  5820.000000   2416676   2418986   2421287   2423588   2425897  
  5810.000000   2428222   2430556   2432896   2435220   2437530  
  5800.000000   2439814   2442097   2444379   2446685   2448991  
  5790.000000   2451284   2453495   2455571   2457418   2458972  
  5780.000000   2460138   2460857   2461052   2460689   2459740  
  5770.000000   2458243   2456263   2453928   2451366   2448731  
  5760.000000   2446125   2443640   2441303   2439141   2437146  
  5750.000000   2435332   2433694   2432242   2430958   2429813  
  5740.000000   2428757   2427737   2426709   2425644   2424543  
  5730.000000   2423410   2422270   2421127   2419993   2418864  
  5720.000000   2417752   2416666   2415630   2414667   2413793  
  5710.000000   2413011   2412310   2411669   2411071   2410502  
  5700.000000   2409959   2409444   2408955   2408488   2408026  
  5690.000000   2407559   2407074   2406578   2406074   2405578  
  5680.000000   2405087   2404594   2404067   2403473   2402761  
  5670.000000   2401894   2400829   2399540   2397997   2396195  
  5660.000000   2394134   2391851   2389400   2386864   2384324  
  5650.000000   2381858   2379510   2377297   2375203   2373207  
  5640.000000   2371280   2369414   2367610   2365875   2364216  
  5630.000000   2362626   2361092   2359590   2358113   2356652  
  5620.000000   2355221   2353828   2352493   2351216   2350003  
  5610.000000   2348850   2347759   2346736   2345788   2344914  
  5600.000000   2344109   2343347   2342602   2341848   2341071  
  5590.000000   2340269   2339456   2338642   2337831   2337017  
  5580.000000   2336184   2335322   2334426   2333513   2332601  
  5570.000000   2331712   2330847   2329994   2329119   2328191  
  5560.000000   2327185   2326100   2324955   2323783   2322614  
  5550.000000   2321472   2320359   2319270   2318192   2317116  
  5540.000000   2316039   2314958   2313869   2312766   2311637  
  5530.000000   2310478   2309292   2308101   2306930   2305805  
  5520.000000   2304739   2303725   2302741   2301754   2300734  
  5510.000000   2299661   2298524   2297324   2296063   2294746  
  5500.000000   2293376   2291970   2290551   2289158   2287825  
  5490.000000   2286577   2285408   2284287   2283157   2281964  
  5480.000000   2280664   2279245   2277719   2276126   2274503  
  5470.000000   2272884   2271280   2269694   2268115   2266530  
  5460.000000   2264928   2263296   2261618   2259878   2258058  
  5450.000000   2256156   2254188   2252190   2250212   2248303  
  5440.000000   2246496   2244799   2243204   2241685   2240224  
  5430.000000   2238805   2237422   2236066   2234730   2233392  
  5420.000000   2232047   2230689   2229349   2228065   2226902  
  5410.000000   2225898   2225077   2224413   2223877   2223413  
  5400.000000   2223005   2222638   2222346   2222148   2222084  
  5390.000000   2222151   2222359   2222682   2223133   2223709  
  5380.000000   2224450   2225362   2226475   2227758   2229202  
  5370.000000   2230755   2232416   2234163   2236039   2238048  
  5360.000000   2240248   2242627   2245228   2248025   2251070  
  5350.000000   2254359   2257976   2261926   2266287   2271034  
  5340.000000   2276207   2281757   2287733   2294100   2300935  
  5330.000000   2308209   2315987   2324207   2332907   2342008  
  5320.000000   2351573   2361564   2372103   2383190   2394963  
  5310.000000   2407401   2420605   2434507   2449176   2464539  
  5300.000000   2480680   2497559   2515290   2533853   2553358  
  5290.000000   2573755   2595084   2617215   2640099   2663555  
  5280.000000   2687531   2711916   2736767   2762099   2788051  
  5270.000000   2814655   2841946   2869805   2898070   2926514  
  5260.000000   2954953   2983281   3011486   3039637   3067789  
  5250.000000   3095975   3124088   3151985   3179405   3206186  
  5240.000000   3232144   3257302   3281660   3305386   3328530  
  5230.000000   3351227   3373421   3395123   3416164   3436511  
  5220.000000   3456017   3474737   3492635   3509872   3526468  
  5210.000000   3542575   3558138   3573191   3587564   3601222  
  5200.000000   3614007   3625971   3637080   3647496   3657238  
  5190.000000   3666446   3675063   3683133   3690531   3697281  
  5180.000000   3703298   3708667   3713365   3717502   3721046  
  5170.000000   3724069   3726508   3728427   3729783   3730665  
  5160.000000   3731056   3731034   3730555   3729657   3728273  
  5150.000000   3726445   3724148   3721470   3718428   3715112  
  5140.000000   3711518   3707691   3703589   3699234   3694593  
  5130.000000   3689708   3684576   3679247   3673719   3668028  
  5120.000000   3662166   3656168   3650047   3643858   3637627  
  5110.000000   3631402   3625190   3619003   3612827   3606662  
  5100.000000   3600499   3594355   3588237   3582161   3576126  
  5090.000000   3570134   3564173   3558240   3552334   3546465  
  5080.000000   3540635   3534851   3529097   3523356   3517596  
  5070.000000   3511796   3505932   3499999   3493987   3487901  
  5060.000000   3481729   3475474   3469122   3462681   3456151  
  5050.000000   3449550   3442883   3436161   3429372   3422512  
  5040.000000   3415558   3408511   3401371   3394161   3386907  
  5030.000000   3379643   3372392   3365173   3357987   3350835  
  5020.000000   3343711   3336614   3329549   3322520   3315542  
  5010.000000   3308620   3301775   3295011   3288356   3281816  
  5000.000000   3275424   3269185   3263133   3257268   3251619  
  4990.000000   3246182   3240987   3236023   3231319   3226857  
  4980.000000   3222661   3218699   3214994   3211512   3208283  
  4970.000000   3205280   3202542   3200048   3197842   3195905  
  4960.000000   3194284   3192960   3191988   3191351   3191104  
  4950.000000   3191226   3191761   3192675   3194000   3195691  
  4940.000000   3197777   3200213   3203027   3206173   3209676  
  4930.000000   3213483   3217619   3222035   3226763   3231768  
  4920.000000   3237092   3242711   3248662   3254920   3261515  
  4910.000000   3268419   3275652   3283185   3291019   3299113  
  4900.000000   3307438   3315938   3324568   3333281   3342042  
  4890.000000   3350832   3359630   3368420   3377159   3385807  
  4880.000000   3394280   3402519   3410428   3417965   3425054  
  4870.000000   3431688   3437813   3443447   3448552   3453163  
  4860.000000   3457260   3460895   3464057   3466805   3469122  
  4850.000000   3471057   3472592   3473776   3474611   3475163  
  4840.000000   3475460   3475579   3475555   3475452   3475293  
  4830.000000   3475126   3474966   3474848   3474786   3474804  
  4820.000000   3474905   3475095   3475372   3475734   3476184  
  4810.000000   3476725   3477367   3478108   3478949   3479869  
  4800.000000   3480854   3481879   3482935   3484013   3485125  
  4790.000000   3486276   3487483   3488743   3490053   3491398  
  4780.000000   3492765   3494137   3495508   3496873   3498231  
  4770.000000   3499582   3500922   3502252   3503566   3504865  
  4760.000000   3506141   3507391   3508600   3509759   3510852  
  4750.000000   3511875   3512823   3513709   3514541   3515333  
  4740.000000   3516082   3516785   3517420   3517975   3518437  
  4730.000000   3518813   3519118   3519378   3519616   3519848  
  4720.000000   3520082   3520315   3520551   3520793   3521067  
  4710.000000   3521393   3521806   3522323   3522961   3523714  
  4700.000000   3524583   3525562   3526664   3527902   3529310  
  4690.000000   3530902   3532698   3534687   3536856   3539163  
  4680.000000   3541577   3544048   3546547   3549031   3551481  
  4670.000000   3553863   3556175   3558409   3560590   3562740  
  4660.000000   3564911   3567140   3569475   3571941   3574560  
  4650.000000   3577335   3580269   3583353   3586582   3589944  
  4640.000000   3593425   3597007   3600666   3604377   3608108  
  4630.000000   3611834   3615523   3619152   3622688   3626105  
  4620.000000   3629364   3632437   3635283   3637884   3640211  
  4610.000000   3642267   3644043   3645572   3646868   3647985  
  4600.000000   3648947   3649813   3650596   3651335   3652015  
  4590.000000   3652644   3653181   3653610   3653879   3653970  
  4580.000000   3653840   3653489   3652900   3652096   3651089  
  4570.000000   3649922   3648620   3647228   3645762   3644250  
  4560.000000   3642686   3641078   3639409   3637680   3635880  
  4550.000000   3634017   3632091   3630116   3628094   3626035  
  4540.000000   3623941   3621820   3619678   3617522   3615363  
  4530.000000   3613208   3611071   3608951   3606869   3604823  
  4520.000000   3602847   3600945   3599161   3597494   3595991  
  4510.000000   3594643   3593499   3592555   3591886   3591507  
  4500.000000   3591523   3591957   3592918   3594408   3596511  
  4490.000000   3599202   3602544   3606499   3611130   3616398  
  4480.000000   3622367   3628990   3636323   3644305   3652978  
  4470.000000   3662267   3672195   3682670   3693694   3705165  
  4460.000000   3717074   3729330   3741936   3754832   3768039  
  4450.000000   3781518   3795283   3809295   3823541   3837977  
  4440.000000   3852571   3867284   3882074   3896903   3911703  
  4430.000000   3926420   3940953   3955236   3969157   3982672  
  4420.000000   3995695   4008229   4020217   4031687   4042584  
  4410.000000   4052922   4062630   4071711   4080102   4087835  
  4400.000000   4094894   4101367   4107289   4112782   4117903  
  4390.000000   4122779   4127464   4132072   4136647   4141274  
  4380.000000   4145967   4150762   4155627   4160557   4165503  
  4370.000000   4170456   4175391   4180324   4185261   4190225  
  4360.000000   4195216   4200242   4205267   4210283   4215220  
  4350.000000   4220068   4224735   4229237   4233502   4237599  
  4340.000000   4241510   4245331   4249018   4252535   4255627  
  4330.000000   4257973   4259073   4258460   4255720   4250698  
  4320.000000   4243506   4234596   4224624   4214374   4204544  
  4310.000000   4195686   4188076   4181785   4176683   4172584  
  4300.000000   4169281   4166628   4164537   4162947   4161837  
  4290.000000   4161131   4160794   4160733   4160934   4161357  
  4280.000000   4162042   4163002   4164273   4165858   4167735  
  4270.000000   4169867   4172177   4174574   4176906   4178980  
  4260.000000   4180526   4181253   4180861   4179132   4175965  
  4250.000000   4171445   4165808   4159440   4152765   4146214  
  4240.000000   4140106   4134662   4129938   4125906   4122438  
  4230.000000   4119399   4116639   4114044   4111531   4109042  
  4220.000000   4106571   4104108   4101710   4099407   4097294  
  4210.000000   4095415   4093855   4092626   4091759   4091211  
  4200.000000   4090960   4090930   4091086   4091359   4091738  
  4190.000000   4092181   4092710   4093304   4094001   4094791  
  4180.000000   4095716   4096767   4097995   4099400   4101046  
  4170.000000   4102948   4105179   4107754   4110737   4114117  
  4160.000000   4117934   4122151   4126791   4131809   4137233  
  4150.000000   4143025   4149224   4155791   4162763   4170095  
  4140.000000   4177818   4185889   4194342   4203132   4212289  
  4130.000000   4221757   4231549   4241600   4251922   4262470  
  4120.000000   4273287   4284375   4295813   4307632   4319908  
  4110.000000   4332654   4345903   4359618   4373777   4388300  
  4100.000000   4403134   4418188   4433410   4448739   4464150  
  4090.000000   4479620   4495150   4510742   4526393   4542113  
  4080.000000   4557884   4573711   4589554   4605402   4621179  
  4070.000000   4636843   4652272   4667408   4682120   4696376  
  4060.000000   4710079   4723241   4735793   4747770   4759111  
  4050.000000   4769871   4780016   4789639   4798731   4807394  
  4040.000000   4815586   4823362   4830620   4837381   4843545  
  4030.000000   4849168   4854198   4858720   4862695   4866171  
  4020.000000   4869052   4871364   4873067   4874218   4874778  
  4010.000000   4874869   4874565   4873872   4872582   4870725  
  4000.000000   4868580  
##END= 
