##TITLE= Sample 048 By ssteindl date Dienstag, November 20 2018
##JCAMP-DX= 4.24
##DATA TYPE= INFRARED SPECTRUM
##ORIGIN= Exported PE Spectrum Data File
##OWNER= Sandra Steindl
##DATE= 18/11/20
##TIME= 12:13:03.00
##SPECTROMETER/DATA SYSTEM= PERKIN-ELMER Frontier FT-IR/NIR IR
##INSTRUMENT PARAMETERS=
  APODIZATION=stark
  DETECTOR=INGAAS
##RESOLUTION= 16.000000
##DELTAX= -2.000000
##XUNITS= 1/CM
##YUNITS= A
##XFACTOR= 1.00
##YFACTOR= 0.00000011920928955078
##FIRSTX= 10000.00
##LASTX= 4000.00
##NPOINTS= 3001
##FIRSTY= 0.200515
##MAXY= 0.639337
##MINY= 0.176505
##XYDATA= (X++(Y..Y))
 10000.000000   1682040   1684422   1688313   1695100   1703499  
  9990.000000   1710850   1715435   1717053   1716045   1713026  
  9980.000000   1709060   1705187   1701880   1698948   1696011  
  9970.000000   1692721   1688868   1684508   1679855   1675287  
  9960.000000   1671206   1668216   1666976   1668243   1672494  
  9950.000000   1679735   1689191   1699369   1708353   1714334  
  9940.000000   1716231   1714011   1708739   1702089   1695764  
  9930.000000   1690824   1687468   1685096   1682802   1679873  
  9920.000000   1676105   1671897   1667870   1664664   1662476  
  9910.000000   1661219   1660532   1660168   1660106   1660538  
  9900.000000   1661700   1663525   1665564   1666931   1666697  
  9890.000000   1664172   1659346   1652828   1645775   1639347  
  9880.000000   1634436   1631353   1629913   1629654   1630083  
  9870.000000   1630971   1632299   1634291   1637124   1640890  
  9860.000000   1645449   1650501   1655664   1660479   1664533  
  9850.000000   1667304   1668337   1667154   1663542   1657609  
  9840.000000   1649930   1641503   1633498   1627082   1623010  
  9830.000000   1621658   1622838   1626097   1630739   1636069  
  9820.000000   1641401   1646069   1649457   1650929   1650033  
  9810.000000   1646503   1640540   1632738   1624157   1616037  
  9800.000000   1609619   1605848   1605182   1607548   1612307  
  9790.000000   1618489   1624928   1630570   1634642   1636795  
  9780.000000   1637147   1636156   1634526   1632923   1631880  
  9770.000000   1631618   1632098   1633063   1634176   1635170  
  9760.000000   1635890   1636371   1636737   1637151   1637688  
  9750.000000   1638284   1638718   1638683   1637854   1636055  
  9740.000000   1633300   1629927   1626502   1623810   1622581  
  9730.000000   1623330   1626076   1630260   1634813   1638385  
  9720.000000   1639767   1638193   1633610   1626639   1618417  
  9710.000000   1610257   1603333   1598420   1595830   1595459  
  9700.000000   1596936   1599772   1603403   1607244   1610639  
  9690.000000   1612996   1613866   1613162   1611232   1608803  
  9680.000000   1606800   1605975   1606684   1608671   1611212  
  9670.000000   1613321   1614146   1613226   1610623   1606822  
  9660.000000   1602500   1598282   1594583   1591588   1589363  
  9650.000000   1587948   1587436   1587915   1589355   1591543  
  9640.000000   1594040   1596354   1598075   1599089   1599619  
  9630.000000   1600122   1601100   1602794   1605078   1607406  
  9620.000000   1609066   1609401   1608118   1605365   1601701  
  9610.000000   1597883   1594615   1592373   1591271   1591159  
  9600.000000   1591686   1592505   1593373   1594214   1595096  
  9590.000000   1596135   1597390   1598789   1600106   1601029  
  9580.000000   1601263   1600656   1599287   1597487   1595759  
  9570.000000   1594649   1594532   1595491   1597204   1599049  
  9560.000000   1600244   1600123   1598331   1594945   1590441  
  9550.000000   1585520   1580911   1577139   1574450   1572750  
  9540.000000   1571737   1570998   1570168   1569027   1567525  
  9530.000000   1565818   1564188   1563036   1562770   1563729  
  9520.000000   1566076   1569674   1574082   1578561   1582281  
  9510.000000   1584475   1584711   1582953   1579624   1575425  
  9500.000000   1571196   1567647   1565243   1564111   1564062  
  9490.000000   1564723   1565645   1566495   1567096   1567505  
  9480.000000   1567893   1568523   1569563   1571067   1572891  
  9470.000000   1574741   1576267   1577165   1577319   1576795  
  9460.000000   1575812   1574599   1573270   1571775   1569926  
  9450.000000   1567512   1564451   1560874   1557155   1553807  
  9440.000000   1551307   1549920   1549583   1549963   1550598  
  9430.000000   1551110   1551335   1551350   1551382   1551662  
  9420.000000   1552331   1553360   1554628   1555956   1557230  
  9410.000000   1558360   1559295   1559928   1560097   1559622  
  9400.000000   1558399   1556535   1554360   1552418   1551236  
  9390.000000   1551168   1552178   1553886   1555659   1556892  
  9380.000000   1557177   1556440   1554876   1552817   1550551  
  9370.000000   1548201   1545747   1543092   1540235   1537297  
  9360.000000   1534538   1532220   1530478   1529253   1528303  
  9350.000000   1527367   1526303   1525216   1524415   1524283  
  9340.000000   1525096   1526863   1529291   1531840   1533907  
  9330.000000   1535032   1535048   1534100   1532559   1530854  
  9320.000000   1529364   1528315   1527770   1527616   1527611  
  9310.000000   1527438   1526791   1525450   1523336   1520558  
  9300.000000   1517423   1514390   1511963   1510523   1510212  
  9290.000000   1510872   1512126   1513504   1514608   1515230  
  9280.000000   1515407   1515387   1515521   1516104   1517287  
  9270.000000   1519016   1521100   1523233   1525099   1526408  
  9260.000000   1526976   1526774   1525923   1524699   1523434  
  9250.000000   1522483   1522099   1522382   1523217   1524317  
  9240.000000   1525309   1525848   1525693   1524747   1523049  
  9230.000000   1520745   1518054   1515230   1512556   1510327  
  9220.000000   1508819   1508245   1508641   1509861   1511542  
  9210.000000   1513250   1514601   1515406   1515720   1515765  
  9200.000000   1515814   1515986   1516177   1516061   1515259  
  9190.000000   1513527   1510930   1507882   1505041   1503076  
  9180.000000   1502404   1503065   1504690   1506651   1508234  
  9170.000000   1508924   1508508   1507122   1505122   1502990  
  9160.000000   1501219   1500185   1500089   1500871   1502268  
  9150.000000   1503784   1504831   1504804   1503325   1500376  
  9140.000000   1496404   1492204   1488702   1486678   1486536  
  9130.000000   1488187   1491104   1494558   1497882   1500704  
  9120.000000   1502965   1504870   1506686   1508575   1510485  
  9110.000000   1512169   1513342   1513782   1513467   1512512  
  9100.000000   1511142   1509556   1507864   1506106   1504256  
  9090.000000   1502364   1500529   1498965   1497860   1497357  
  9080.000000   1497438   1497972   1498735   1499497   1500063  
  9070.000000   1500275   1500023   1499209   1497807   1495834  
  9060.000000   1493433   1490838   1488400   1486457   1485268  
  9050.000000   1484906   1485269   1486105   1487111   1488043  
  9040.000000   1488784   1489360   1489885   1490505   1491350  
  9030.000000   1492482   1493901   1495544   1497310   1499064  
  9020.000000   1500623   1501802   1502434   1502464   1501963  
  9010.000000   1501152   1500317   1499719   1499477   1499486  
  9000.000000   1499444   1498943   1497652   1495433   1492423  
  8990.000000   1489008   1485710   1483030   1481298   1480629  
  8980.000000   1480937   1482025   1483652   1485620   1487785  
  8970.000000   1490044   1492267   1494308   1496012   1497258  
  8960.000000   1498006   1498288   1498236   1497970   1497578  
  8950.000000   1497038   1496253   1495090   1493466   1491408  
  8940.000000   1489080   1486757   1484746   1483302   1482535  
  8930.000000   1482402   1482721   1483251   1483792   1484238  
  8920.000000   1484635   1485120   1485867   1486994   1488501  
  8910.000000   1490262   1492066   1493708   1495084   1496226  
  8900.000000   1497300   1498493   1499928   1501554   1503132  
  8890.000000   1504301   1504696   1504106   1502569   1500406  
  8880.000000   1498140   1496339   1495442   1495635   1496806  
  8870.000000   1498591   1500491   1502011   1502813   1502781  
  8860.000000   1502040   1500909   1499802   1499129   1499181  
  8850.000000   1500092   1501830   1504211   1506974   1509826  
  8840.000000   1512523   1514870   1516724   1517978   1518561  
  8830.000000   1518434   1517649   1516362   1514884   1513624  
  8820.000000   1513001   1513325   1514664   1516840   1519439  
  8810.000000   1522000   1524132   1525683   1526738   1527566  
  8800.000000   1528444   1529523   1530737   1531829   1532474  
  8790.000000   1532434   1531687   1530439   1529051   1527889  
  8780.000000   1527189   1526975   1527096   1527293   1527347  
  8770.000000   1527129   1526654   1526013   1525339   1524744  
  8760.000000   1524337   1524234   1524593   1525609   1527463  
  8750.000000   1530239   1533837   1537949   1542118   1545852  
  8740.000000   1548791   1550763   1551854   1552284   1552369  
  8730.000000   1552343   1552350   1552396   1552430   1552421  
  8720.000000   1552396   1552494   1552890   1553797   1555347  
  8710.000000   1557604   1560488   1563809   1567259   1570451  
  8700.000000   1572997   1574565   1575011   1574393   1573023  
  8690.000000   1571360   1569925   1569143   1569244   1570204  
  8680.000000   1571795   1573685   1575576   1577294   1578801  
  8670.000000   1580166   1581478   1582803   1584149   1585490  
  8660.000000   1586821   1588180   1589670   1591385   1593377  
  8650.000000   1595573   1597796   1599794   1601336   1602295  
  8640.000000   1602690   1602687   1602556   1602587   1603039  
  8630.000000   1604064   1605696   1607839   1610294   1612795  
  8620.000000   1615042   1616794   1617927   1618506   1618781  
  8610.000000   1619143   1619999   1621633   1624097   1627161  
  8600.000000   1630404   1633315   1635491   1636738   1637139  
  8590.000000   1636979   1636625   1636411   1636542   1637093  
  8580.000000   1638037   1639336   1640987   1643030   1645476  
  8570.000000   1648272   1651239   1654121   1656620   1658511  
  8560.000000   1659705   1660270   1660399   1660328   1660263  
  8550.000000   1660332   1660562   1660928   1661379   1661894  
  8540.000000   1662458   1663072   1663699   1664282   1664727  
  8530.000000   1664969   1664983   1664825   1664621   1664523  
  8520.000000   1664662   1665093   1665776   1666581   1667332  
  8510.000000   1667868   1668116   1668095   1667941   1667827  
  8500.000000   1667929   1668332   1669011   1669822   1670585  
  8490.000000   1671149   1671499   1671770   1672240   1673213  
  8480.000000   1674915   1677372   1680382   1683561   1686489  
  8470.000000   1688849   1690567   1691813   1692941   1694315  
  8460.000000   1696161   1698466   1700987   1703368   1705297  
  8450.000000   1706641   1707493   1708129   1708861   1709928  
  8440.000000   1711362   1713028   1714665   1716047   1717043  
  8430.000000   1717690   1718128   1718542   1719058   1719705  
  8420.000000   1720398   1721011   1721421   1721566   1721440  
  8410.000000   1721093   1720585   1719989   1719366   1718802  
  8400.000000   1718401   1718278   1718514   1719103   1719938  
  8390.000000   1720814   1721488   1721760   1721542   1720914  
  8380.000000   1720099   1719400   1719102   1719393   1720315  
  8370.000000   1721762   1723511   1725289   1726844   1727998  
  8360.000000   1728667   1728875   1728732   1728415   1728104  
  8350.000000   1727951   1728029   1728335   1728787   1729273  
  8340.000000   1729683   1729960   1730090   1730112   1730042  
  8330.000000   1729865   1729502   1728858   1727868   1726550  
  8320.000000   1725033   1723529   1722271   1721426   1721023  
  8310.000000   1720953   1721010   1720990   1720774   1720378  
  8300.000000   1719946   1719671   1719704   1720066   1720635  
  8290.000000   1721183   1721481   1721374   1720859   1720068  
  8280.000000   1719236   1718587   1718271   1718296   1718555  
  8270.000000   1718865   1719040   1718957   1718583   1718006  
  8260.000000   1717372   1716878   1716675   1716875   1717483  
  8250.000000   1718429   1719539   1720594   1721353   1721610  
  8240.000000   1721239   1720204   1718577   1716496   1714140  
  8230.000000   1711675   1709236   1706917   1704781   1702896  
  8220.000000   1701334   1700189   1699536   1699424   1699812  
  8210.000000   1700576   1701501   1702326   1702819   1702816  
  8200.000000   1702289   1701322   1700104   1698844   1697720  
  8190.000000   1696814   1696101   1695484   1694842   1694108  
  8180.000000   1693287   1692462   1691741   1691201   1690824  
  8170.000000   1690480   1689950   1689005   1687496   1685438  
  8160.000000   1683030   1680607   1678549   1677161   1676585  
  8150.000000   1676757   1677429   1678246   1678840   1678931  
  8140.000000   1678376   1677194   1675536   1673643   1671796  
  8130.000000   1670253   1669205   1668733   1668778   1669155  
  8120.000000   1669570   1669702   1669282   1668185   1666471  
  8110.000000   1664369   1662203   1660279   1658783   1657721  
  8100.000000   1656929   1656150   1655138   1653774   1652100  
  8090.000000   1650325   1648719   1647521   1646826   1646563  
  8080.000000   1646518   1646408   1645986   1645099   1643739  
  8070.000000   1642001   1640054   1638065   1636165   1634427  
  8060.000000   1632874   1631501   1630296   1629261   1628407  
  8050.000000   1627754   1627308   1627057   1626954   1626918  
  8040.000000   1626850   1626636   1626187   1625450   1624444  
  8030.000000   1623254   1622029   1620941   1620140   1619716  
  8020.000000   1619656   1619850   1620108   1620206   1619945  
  8010.000000   1619196   1617936   1616243   1614280   1612256  
  8000.000000   1610376   1608803   1607634   1606884   1606501  
  7990.000000   1606386   1606419   1606487   1606497   1606390  
  7980.000000   1606133   1605721   1605166   1604499   1603778  
  7970.000000   1603073   1602471   1602049   1601851   1601861  
  7960.000000   1602001   1602140   1602131   1601849   1601242  
  7950.000000   1600323   1599179   1597919   1596651   1595446  
  7940.000000   1594347   1593388   1592621   1592133   1592025  
  7930.000000   1592380   1593202   1594388   1595728   1596941  
  7920.000000   1597768   1598028   1597692   1596863   1595752  
  7910.000000   1594592   1593585   1592852   1592434   1592319  
  7900.000000   1592476   1592878   1593496   1594289   1595169  
  7890.000000   1596016   1596680   1597038   1597027   1596676  
  7880.000000   1596099   1595455   1594900   1594535   1594378  
  7870.000000   1594372   1594407   1594370   1594169   1593770  
  7860.000000   1593185   1592475   1591723   1591022   1590447  
  7850.000000   1590046   1589819   1589725   1589686   1589606  
  7840.000000   1589409   1589055   1588553   1587960   1587350  
  7830.000000   1586788   1586307   1585910   1585570   1585269  
  7820.000000   1585000   1584778   1584623   1584536   1584482  
  7810.000000   1584389   1584170   1583747   1583088   1582214  
  7800.000000   1581189   1580094   1578995   1577937   1576939  
  7790.000000   1576025   1575232   1574616   1574223   1574064  
  7780.000000   1574079   1574142   1574086   1573759   1573083  
  7770.000000   1572074   1570851   1569572   1568390   1567390  
  7760.000000   1566581   1565914   1565320   1564764   1564257  
  7750.000000   1563844   1563570   1563436   1563379   1563284  
  7740.000000   1563021   1562493   1561674   1560613   1559420  
  7730.000000   1558224   1557145   1556266   1555625   1555228  
  7720.000000   1555045   1555023   1555081   1555122   1555047  
  7710.000000   1554783   1554307   1553654   1552912   1552183  
  7700.000000   1551549   1551032   1550602   1550182   1549706  
  7690.000000   1549150   1548549   1547989   1547562   1547322  
  7680.000000   1547260   1547299   1547339   1547291   1547124  
  7670.000000   1546856   1546547   1546249   1545984   1545731  
  7660.000000   1545447   1545097   1544693   1544292   1543986  
  7650.000000   1543857   1543942   1544215   1544596   1544982  
  7640.000000   1545291   1545484   1545576   1545615   1545657  
  7630.000000   1545730   1545837   1545948   1546034   1546068  
  7620.000000   1546057   1546010   1545950   1545884   1545816  
  7610.000000   1545741   1545668   1545624   1545658   1545830  
  7600.000000   1546192   1546773   1547573   1548556   1549663  
  7590.000000   1550808   1551906   1552856   1553579   1554009  
  7580.000000   1554121   1553934   1553522   1552998   1552502  
  7570.000000   1552175   1552134   1552444   1553114   1554092  
  7560.000000   1555281   1556554   1557779   1558833   1559638  
  7550.000000   1560164   1560465   1560645   1560859   1561252  
  7540.000000   1561941   1562962   1564292   1565827   1567443  
  7530.000000   1569016   1570467   1571772   1572962   1574104  
  7520.000000   1575284   1576576   1578048   1579733   1581637  
  7510.000000   1583720   1585908   1588086   1590136   1591951  
  7500.000000   1593479   1594742   1595843   1596926   1598142  
  7490.000000   1599586   1601287   1603184   1605171   1607129  
  7480.000000   1608981   1610713   1612377   1614055   1615836  
  7470.000000   1617764   1619846   1622041   1624303   1626582  
  7460.000000   1628871   1631181   1633553   1636020   1638607  
  7450.000000   1641308   1644095   1646925   1649753   1652542  
  7440.000000   1655276   1657953   1660590   1663203   1665800  
  7430.000000   1668377   1670915   1673388   1675780   1678093  
  7420.000000   1680358   1682623   1684935   1687319   1689753  
  7410.000000   1692177   1694504   1696658   1698607   1700378  
  7400.000000   1702062   1703776   1705630   1707686   1709949  
  7390.000000   1712376   1714905   1717484   1720094   1722743  
  7380.000000   1725448   1728214   1731011   1733787   1736488  
  7370.000000   1739075   1741552   1743949   1746314   1748674  
  7360.000000   1751032   1753358   1755617   1757787   1759885  
  7350.000000   1761963   1764091   1766326   1768681   1771130  
  7340.000000   1773613   1776077   1778493   1780872   1783243  
  7330.000000   1785637   1788051   1790456   1792790   1795008  
  7320.000000   1797087   1799058   1800974   1802900   1804865  
  7310.000000   1806856   1808805   1810628   1812239   1813593  
  7300.000000   1814687   1815562   1816273   1816885   1817443  
  7290.000000   1817989   1818551   1819161   1819840   1820607  
  7280.000000   1821458   1822373   1823318   1824256   1825166  
  7270.000000   1826045   1826918   1827811   1828755   1829759  
  7260.000000   1830826   1831942   1833106   1834321   1835618  
  7250.000000   1837024   1838575   1840282   1842148   1844142  
  7240.000000   1846239   1848388   1850561   1852716   1854841  
  7230.000000   1856914   1858955   1860981   1863046   1865194  
  7220.000000   1867482   1869931   1872560   1875345   1878275  
  7210.000000   1881322   1884489   1887769   1891176   1894690  
  7200.000000   1898300   1901959   1905651   1909359   1913132  
  7190.000000   1917018   1921105   1925434   1930024   1934816  
  7180.000000   1939734   1944669   1949566   1954394   1959199  
  7170.000000   1964035   1968986   1974086   1979358   1984765  
  7160.000000   1990283   1995871   2001536   2007286   2013168  
  7150.000000   2019203   2025419   2031796   2038308   2044885  
  7140.000000   2051473   2058003   2064458   2070832   2077192  
  7130.000000   2083616   2090225   2097110   2104345   2111916  
  7120.000000   2119764   2127751   2135744   2143621   2151342  
  7110.000000   2158926   2166471   2174087   2181893   2189944  
  7100.000000   2198264   2206800   2215487   2224225   2232936  
  7090.000000   2241545   2250023   2258371   2266641   2274918  
  7080.000000   2283311   2291912   2300773   2309864   2319090  
  7070.000000   2328289   2337308   2346027   2354412   2362504  
  7060.000000   2370402   2378215   2386027   2393887   2401812  
  7050.000000   2409818   2417920   2426157   2434543   2443067  
  7040.000000   2451646   2460165   2468486   2476517   2484231  
  7030.000000   2491690   2498996   2506263   2513542   2520823  
  7020.000000   2528027   2535080   2541930   2548606   2555171  
  7010.000000   2561719   2568280   2574840   2581296   2587554  
  7000.000000   2593534   2599264   2604824   2610359   2615963  
  6990.000000   2621684   2627444   2633129   2638586   2643736  
  6980.000000   2648560   2653131   2657537   2661864   2666121  
  6970.000000   2670275   2674236   2677944   2681361   2684535  
  6960.000000   2687536   2690481   2693448   2696507   2699663  
  6950.000000   2702906   2706173   2709402   2712497   2715375  
  6940.000000   2717947   2720176   2722064   2723690   2725163  
  6930.000000   2726628   2728192   2729926   2731822   2733832  
  6920.000000   2735874   2737881   2739799   2741610   2743295  
  6910.000000   2744843   2746225   2747417   2748407   2749227  
  6900.000000   2749946   2750670   2751504   2752533   2753785  
  6890.000000   2755241   2756831   2758475   2760089   2761617  
  6880.000000   2763021   2764297   2765449   2766503   2767487  
  6870.000000   2768440   2769390   2770350   2771307   2772218  
  6860.000000   2773025   2773670   2774117   2774377   2774500  
  6850.000000   2774578   2774707   2774978   2775441   2776116  
  6840.000000   2776978   2777986   2779080   2780201   2781290  
  6830.000000   2782300   2783190   2783940   2784548   2785031  
  6820.000000   2785416   2785739   2786025   2786294   2786551  
  6810.000000   2786804   2787051   2787298   2787537   2787763  
  6800.000000   2787947   2788064   2788080   2787983   2787771  
  6790.000000   2787466   2787091   2786671   2786211   2785712  
  6780.000000   2785165   2784585   2783997   2783455   2783000  
  6770.000000   2782664   2782427   2782238   2782013   2781673  
  6760.000000   2781160   2780459   2779591   2778604   2777543  
  6750.000000   2776444   2775321   2774188   2773053   2771943  
  6740.000000   2770885   2769908   2769018   2768203   2767419  
  6730.000000   2766621   2765760   2764812   2763771   2762652  
  6720.000000   2761477   2760271   2759049   2757825   2756597  
  6710.000000   2755368   2754128   2752870   2751584   2750270  
  6700.000000   2748937   2747609   2746307   2745046   2743811  
  6690.000000   2742561   2741228   2739757   2738117   2736339  
  6680.000000   2734499   2732704   2731040   2729545   2728178  
  6670.000000   2726848   2725439   2723868   2722116   2720239  
  6660.000000   2718332   2716494   2714772   2713158   2711583  
  6650.000000   2709973   2708272   2706480   2704638   2702811  
  6640.000000   2701039   2699326   2697624   2695863   2693978  
  6630.000000   2691939   2689757   2687477   2685148   2682813  
  6620.000000   2680488   2678179   2675888   2673632   2671436  
  6610.000000   2669325   2667302   2665343   2663390   2661382  
  6600.000000   2659273   2657057   2654772   2652486   2650269  
  6590.000000   2648165   2646181   2644285   2642428   2640559  
  6580.000000   2638649   2636694   2634712   2632729   2630774  
  6570.000000   2628864   2627012   2625220   2623489   2621810  
  6560.000000   2620172   2618556   2616943   2615320   2613684  
  6550.000000   2612040   2610407   2608794   2607211   2605652  
  6540.000000   2604112   2602590   2601096   2599650   2598276  
  6530.000000   2596987   2595776   2594615   2593461   2592274  
  6520.000000   2591032   2589734   2588404   2587072   2585769  
  6510.000000   2584508   2583294   2582122   2580989   2579899  
  6500.000000   2578854   2577857   2576892   2575936   2574956  
  6490.000000   2573922   2572820   2571652   2570434   2569183  
  6480.000000   2567909   2566609   2565272   2563893   2562476  
  6470.000000   2561045   2559632   2558266   2556965   2555725  
  6460.000000   2554528   2553354   2552187   2551025   2549877  
  6450.000000   2548753   2547654   2546570   2545482   2544369  
  6440.000000   2543220   2542035   2540823   2539592   2538352  
  6430.000000   2537100   2535842   2534589   2533368   2532219  
  6420.000000   2531177   2530259   2529455   2528721   2528000  
  6410.000000   2527237   2526405   2525509   2524583   2523672  
  6400.000000   2522814   2522023   2521289   2520584   2519878  
  6390.000000   2519149   2518387   2517590   2516758   2515891  
  6380.000000   2514987   2514048   2513084   2512115   2511165  
  6370.000000   2510252   2509381   2508540   2507711   2506876  
  6360.000000   2506029   2505178   2504339   2503527   2502745  
  6350.000000   2501977   2501200   2500388   2499528   2498619  
  6340.000000   2497671   2496698   2495703   2494688   2493646  
  6330.000000   2492588   2491528   2490503   2489541   2488665  
  6320.000000   2487860   2487089   2486283   2485380   2484328  
  6310.000000   2483114   2481748   2480269   2478711   2477112  
  6300.000000   2475483   2473837   2472169   2470488   2468786  
  6290.000000   2467068   2465314   2463515   2461648   2459713  
  6280.000000   2457708   2455661   2453587   2451504   2449400  
  6270.000000   2447255   2445026   2442688   2440226   2437659  
  6260.000000   2435016   2432340   2429655   2426979   2424302  
  6250.000000   2421620   2418922   2416219   2413516   2410825  
  6240.000000   2408137   2405433   2402679   2399849   2396928  
  6230.000000   2393928   2390877   2387815   2384774   2381779  
  6220.000000   2378837   2375949   2373114   2370335   2367613  
  6210.000000   2364947   2362324   2359721   2357115   2354488  
  6200.000000   2351842   2349197   2346586   2344041   2341582  
  6190.000000   2339205   2336891   2334610   2332341   2330073  
  6180.000000   2327812   2325565   2323338   2321125   2318911  
  6170.000000   2316676   2314410   2312111   2309795   2307484  
  6160.000000   2305203   2302969   2300794   2298675   2296608  
  6150.000000   2294583   2292586   2290601   2288612   2286602  
  6140.000000   2284568   2282518   2280479   2278480   2276552  
  6130.000000   2274709   2272947   2271241   2269566   2267899  
  6120.000000   2266240   2264602   2263011   2261480   2260012  
  6110.000000   2258583   2257165   2255728   2254273   2252820  
  6100.000000   2251425   2250140   2249017   2248071   2247295  
  6090.000000   2246647   2246084   2245555   2245035   2244503  
  6080.000000   2243970   2243436   2242927   2242453   2242045  
  6070.000000   2241718   2241504   2241411   2241452   2241611  
  6060.000000   2241876   2242217   2242621   2243072   2243580  
  6050.000000   2244149   2244802   2245545   2246395   2247347  
  6040.000000   2248409   2249569   2250830   2252179   2253618  
  6030.000000   2255133   2256726   2258390   2260133   2261953  
  6020.000000   2263854   2265822   2267842   2269883   2271920  
  6010.000000   2273923   2275884   2277801   2279688   2281559  
  6000.000000   2283428   2285298   2287166   2289019   2290845  
  5990.000000   2292634   2294384   2296097   2297788   2299476  
  5980.000000   2301190   2302960   2304816   2306776   2308849  
  5970.000000   2311022   2313267   2315547   2317830   2320093  
  5960.000000   2322330   2324548   2326763   2328980   2331203  
  5950.000000   2333416   2335605   2337751   2339853   2341917  
  5940.000000   2343967   2346027   2348127   2350292   2352542  
  5930.000000   2354892   2357351   2359919   2362583   2365313  
  5920.000000   2368067   2370797   2373461   2376033   2378515  
  5910.000000   2380925   2383295   2385654   2388019   2390389  
  5900.000000   2392753   2395096   2397407   2399689   2401954  
  5890.000000   2404216   2406485   2408768   2411060   2413357  
  5880.000000   2415654   2417948   2420234   2422499   2424726  
  5870.000000   2426887   2428964   2430942   2432832   2434654  
  5860.000000   2436453   2438266   2440138   2442096   2444173  
  5850.000000   2446387   2448766   2451327   2454085   2457034  
  5840.000000   2460152   2463401   2466736   2470117   2473519  
  5830.000000   2476930   2480345   2483760   2487152   2490494  
  5820.000000   2493740   2496858   2499816   2502613   2505242  
  5810.000000   2507718   2510027   2512170   2514115   2515864  
  5800.000000   2517402   2518766   2519965   2521052   2522025  
  5790.000000   2522903   2523647   2524242   2524633   2524799  
  5780.000000   2524692   2524298   2523580   2522537   2521168  
  5770.000000   2519520   2517661   2515697   2513731   2511864  
  5760.000000   2510153   2508626   2507270   2506062   2504977  
  5750.000000   2504004   2503147   2502410   2501799   2501296  
  5740.000000   2500884   2500530   2500223   2499951   2499733  
  5730.000000   2499574   2499493   2499483   2499541   2499649  
  5720.000000   2499804   2500001   2500254   2500562   2500930  
  5710.000000   2501338   2501771   2502208   2502647   2503094  
  5700.000000   2503577   2504121   2504743   2505445   2506212  
  5690.000000   2507023   2507856   2508703   2509558   2510420  
  5680.000000   2511277   2512110   2512882   2513558   2514102  
  5670.000000   2514497   2514734   2514821   2514766   2514583  
  5660.000000   2514284   2513893   2513435   2512948   2512460  
  5650.000000   2511996   2511553   2511121   2510668   2510177  
  5640.000000   2509637   2509066   2508489   2507941   2507440  
  5630.000000   2506993   2506586   2506201   2505821   2505439  
  5620.000000   2505056   2504678   2504305   2503930   2503544  
  5610.000000   2503139   2502714   2502282   2501855   2501445  
  5600.000000   2501044   2500635   2500185   2499674   2499093  
  5590.000000   2498455   2497781   2497095   2496400   2495686  
  5580.000000   2494919   2494074   2493131   2492101   2491009  
  5570.000000   2489891   2488772   2487664   2486554   2485427  
  5560.000000   2484264   2483064   2481837   2480604   2479379  
  5550.000000   2478172   2476979   2475796   2474619   2473456  
  5540.000000   2472324   2471240   2470212   2469239   2468305  
  5530.000000   2467393   2466488   2465586   2464685   2463785  
  5520.000000   2462876   2461943   2460966   2459937   2458861  
  5510.000000   2457762   2456666   2455596   2454549   2453506  
  5500.000000   2452425   2451277   2450047   2448754   2447437  
  5490.000000   2446145   2444899   2443702   2442515   2441294  
  5480.000000   2439987   2438576   2437055   2435448   2433772  
  5470.000000   2432046   2430264   2428423   2426511   2424535  
  5460.000000   2422507   2420451   2418379   2416297   2414189  
  5450.000000   2412039   2409833   2407571   2405270   2402955  
  5440.000000   2400656   2398392   2396179   2394025   2391941  
  5430.000000   2389934   2388014   2386171   2384396   2382656  
  5420.000000   2380941   2379242   2377599   2376053   2374679  
  5410.000000   2373511   2372576   2371836   2371264   2370804  
  5400.000000   2370454   2370214   2370137   2370247   2370584  
  5390.000000   2371127   2371861   2372731   2373730   2374836  
  5380.000000   2376086   2377486   2379075   2380828   2382755  
  5370.000000   2384809   2387010   2389340   2391858   2394564  
  5360.000000   2397520   2400705   2404166   2407873   2411897  
  5350.000000   2416244   2421022   2426247   2432015   2438293  
  5340.000000   2445134   2452472   2460368   2468769   2477759  
  5330.000000   2487283   2497404   2508031   2519210   2530861  
  5320.000000   2543088   2555881   2569420   2583723   2598958  
  5310.000000   2615079   2632171   2650112   2668950   2688582  
  5300.000000   2709105   2730489   2752892   2776321   2800924  
  5290.000000   2826656   2853562   2881482   2910332   2939886  
  5280.000000   2970054   3000703   3031884   3063632   3096096  
  5270.000000   3129323   3163322   3197936   3232907   3267934  
  5260.000000   3302729   3337144   3371111   3404715   3437981  
  5250.000000   3470966   3503523   3535521   3566653   3596787  
  5240.000000   3625718   3653531   3680211   3705982   3730859  
  5230.000000   3755006   3778311   3800803   3822269   3842709  
  5220.000000   3861955   3880111   3897129   3913219   3928394  
  5210.000000   3942855   3956545   3969550   3981694   3992986  
  5200.000000   4003250   4012564   4020862   4028318   4034926  
  5190.000000   4040841   4046002   4050484   4054172   4057124  
  5180.000000   4059258   4060672   4061328   4061330   4060627  
  5170.000000   4059297   4057288   4054696   4051517   4047888  
  5160.000000   4043827   4039447   4034723   4029705   4024332  
  5150.000000   4018643   4012605   4006289   3999689   3992870  
  5140.000000   3985810   3978540   3971031   3963321   3955416  
  5130.000000   3947381   3939239   3931032   3922742   3914362  
  5120.000000   3905847   3897192   3888388   3879481   3870509  
  5110.000000   3861536   3852594   3843714   3834893   3826136  
  5100.000000   3817434   3808796   3800220   3791714   3783270  
  5090.000000   3774879   3766523   3758190   3749870   3741564  
  5080.000000   3733268   3724982   3716692   3708387   3700051  
  5070.000000   3691683   3683280   3674860   3666428   3657992  
  5060.000000   3649539   3641053   3632506   3623888   3615189  
  5050.000000   3606426   3597618   3588793   3579970   3571164  
  5040.000000   3562383   3553633   3544921   3536260   3527665  
  5030.000000   3519146   3510712   3502356   3494080   3485873  
  5020.000000   3477743   3469695   3461759   3453949   3446299  
  5010.000000   3438815   3431523   3424414   3417507   3410790  
  5000.000000   3404284   3397972   3391874   3385964   3380263  
  4990.000000   3374742   3369437   3364335   3359495   3354920  
  4980.000000   3350674   3346756   3343219   3340043   3337268  
  4970.000000   3334862   3332861   3331222   3329977   3329074  
  4960.000000   3328539   3328322   3328459   3328919   3329757  
  4950.000000   3330953   3332566   3334564   3336982   3339768  
  4940.000000   3342941   3346449   3350319   3354514   3359072  
  4930.000000   3363959   3369205   3374764   3380650   3386813  
  4920.000000   3393265   3399961   3406919   3414102   3421526  
  4910.000000   3429157   3437010   3445054   3453303   3461729  
  4900.000000   3470335   3479087   3487972   3496957   3506026  
  4890.000000   3515159   3524353   3533602   3542898   3552226  
  4880.000000   3561556   3570851   3580058   3589137   3598036  
  4870.000000   3606732   3615192   3623417   3631389   3639125  
  4860.000000   3646619   3653898   3660961   3667841   3674539  
  4850.000000   3681089   3687490   3693775   3699939   3706006  
  4840.000000   3711958   3717805   3723518   3729102   3734534  
  4830.000000   3739834   3744998   3750060   3755018   3759894  
  4820.000000   3764663   3769321   3773826   3778167   3782312  
  4810.000000   3786267   3790017   3793577   3796935   3800107  
  4800.000000   3803084   3805893   3808546   3811091   3813554  
  4790.000000   3815981   3818376   3820754   3823085   3825357  
  4780.000000   3827535   3829615   3831580   3833441   3835188  
  4770.000000   3836831   3838349   3839744   3840994   3842110  
  4760.000000   3843082   3843934   3844659   3845277   3845768  
  4750.000000   3846134   3846344   3846393   3846250   3845916  
  4740.000000   3845366   3844612   3843637   3842461   3841081  
  4730.000000   3839527   3837805   3835948   3833965   3831880  
  4720.000000   3829694   3827428   3825082   3822679   3820230  
  4710.000000   3817762   3815287   3812828   3810388   3807977  
  4700.000000   3805589   3803227   3800885   3798564   3796263  
  4690.000000   3793984   3791722   3789477   3787241   3785006  
  4680.000000   3782760   3780489   3778181   3775819   3773397  
  4670.000000   3770908   3768361   3765768   3763158   3760556  
  4660.000000   3757999   3755513   3753128   3750862   3748736  
  4650.000000   3746760   3744948   3743303   3741831   3740525  
  4640.000000   3739381   3738379   3737510   3736750   3736088  
  4630.000000   3735502   3734977   3734486   3734012   3733528  
  4620.000000   3733020   3732470   3731878   3731239   3730560  
  4610.000000   3729838   3729077   3728276   3727443   3726588  
  4600.000000   3725733   3724903   3724124   3723419   3722795  
  4590.000000   3722249   3721765   3721319   3720886   3720443  
  4580.000000   3719972   3719458   3718892   3718267   3717580  
  4570.000000   3716833   3716031   3715185   3714306   3713403  
  4560.000000   3712476   3711524   3710533   3709497   3708407  
  4550.000000   3707263   3706078   3704862   3703640   3702426  
  4540.000000   3701244   3700100   3699018   3697997   3697062  
  4530.000000   3696209   3695468   3694837   3694362   3694045  
  4520.000000   3693954   3694095   3694543   3695295   3696419  
  4510.000000   3697894   3699787   3702077   3704850   3708100  
  4500.000000   3711936   3716355   3721462   3727232   3733744  
  4490.000000   3740950   3748910   3757565   3766969   3777063  
  4480.000000   3787894   3799404   3811626   3824493   3838018  
  4470.000000   3852115   3866759   3881835   3897283   3912975  
  4460.000000   3928844   3944785   3960752   3976680   3992541  
  4450.000000   4008288   4023888   4039307   4054509   4069487  
  4440.000000   4084226   4098754   4113067   4127211   4141162  
  4430.000000   4154960   4168549   4181957   4195107   4208017  
  4420.000000   4220585   4232813   4244564   4255817   4266414  
  4410.000000   4276319   4285379   4293571   4300769   4306984  
  4400.000000   4312138   4316293   4319431   4321665   4323036  
  4390.000000   4323687   4323691   4323195   4322279   4321077  
  4380.000000   4319673   4318194   4316739   4315438   4314410  
  4370.000000   4313778   4313654   4314122   4315251   4317056  
  4360.000000   4319544   4322666   4326378   4330591   4335237  
  4350.000000   4340222   4345482   4350947   4356583   4362359  
  4340.000000   4368265   4374279   4380363   4386433   4392355  
  4330.000000   4397942   4402974   4407245   4410594   4412968  
  4320.000000   4414425   4415161   4415435   4415574   4415835  
  4310.000000   4416443   4417469   4418932   4420717   4422721  
  4300.000000   4424784   4426811   4428694   4430387   4431835  
  4290.000000   4433019   4433916   4434529   4434871   4434985  
  4280.000000   4434913   4434725   4434463   4434189   4433920  
  4270.000000   4433694   4433500   4433342   4433167   4432926  
  4260.000000   4432513   4431832   4430770   4429258   4427262  
  4250.000000   4424821   4422019   4418995   4415887   4412838  
  4240.000000   4409941   4407267   4404824   4402604   4400563  
  4230.000000   4398657   4396825   4395016   4393170   4391234  
  4220.000000   4389169   4386946   4384573   4382067   4379488  
  4210.000000   4376892   4374352   4371922   4369646   4367540  
  4200.000000   4365613   4363843   4362221   4360714   4359316  
  4190.000000   4357992   4356750   4355555   4354431   4353349  
  4180.000000   4352355   4351442   4350690   4350123   4349861  
  4170.000000   4349959   4350561   4351724   4353574   4356124  
  4160.000000   4359446   4363486   4368264   4373682   4379746  
  4150.000000   4386357   4393535   4401197   4409379   4418014  
  4140.000000   4427157   4436759   4446897   4457541   4468769  
  4130.000000   4480542   4492905   4505790   4519206   4533071  
  4120.000000   4547393   4562112   4577257   4592794   4608762  
  4110.000000   4625128   4641915   4659078   4676616   4694470  
  4100.000000   4712625   4731019   4749631   4768412   4787345  
  4090.000000   4806403   4825574   4844845   4864200   4883632  
  4080.000000   4903122   4922673   4942264   4961903   4981549  
  4070.000000   5001195   5020760   5040216   5059468   5078505  
  4060.000000   5097248   5115721   5133846   5151644   5169008  
  4050.000000   5185945   5202338   5218220   5233493   5248217  
  4040.000000   5262281   5275714   5288351   5300189   5311055  
  4030.000000   5320984   5329857   5337756   5344594   5350438  
  4020.000000   5355153   5358794   5361298   5362763   5363143  
  4010.000000   5362641   5361370   5359432   5356648   5353147  
  4000.000000   5349281  
##END= 
