##TITLE= Sample 007 By ssteindl date Dienstag, November 20 2018
##JCAMP-DX= 4.24
##DATA TYPE= INFRARED SPECTRUM
##ORIGIN= Exported PE Spectrum Data File
##OWNER= Sandra Steindl
##DATE= 18/11/20
##TIME= 09:58:44.00
##SPECTROMETER/DATA SYSTEM= PERKIN-ELMER Frontier FT-IR/NIR IR
##INSTRUMENT PARAMETERS=
  APODIZATION=stark
  DETECTOR=INGAAS
##RESOLUTION= 16.000000
##DELTAX= -2.000000
##XUNITS= 1/CM
##YUNITS= A
##XFACTOR= 1.00
##YFACTOR= 0.00000011920928955078
##FIRSTX= 10000.00
##LASTX= 4000.00
##NPOINTS= 3001
##FIRSTY= 0.183929
##MAXY= 0.594996
##MINY= 0.159315
##XYDATA= (X++(Y..Y))
 10000.000000   1542908   1549751   1556550   1562868   1567684  
  9990.000000   1570081   1569769   1567240   1563309   1558837  
  9980.000000   1554404   1550187   1545831   1540843   1534903  
  9970.000000   1528258   1521569   1515803   1511733   1509740  
  9960.000000   1509607   1510726   1512330   1513788   1514777  
  9950.000000   1515203   1515135   1514545   1513383   1511554  
  9940.000000   1509190   1506642   1504517   1503373   1503546  
  9930.000000   1504922   1507022   1509211   1510969   1512164  
  9920.000000   1512986   1513898   1515252   1517190   1519516  
  9910.000000   1521877   1523966   1525666   1527058   1528201  
  9900.000000   1528941   1528757   1526912   1522744   1516077  
  9890.000000   1507452   1498113   1489657   1483529   1480546  
  9880.000000   1480658   1483077   1486574   1490016   1492611  
  9870.000000   1494133   1494759   1494898   1495002   1495422  
  9860.000000   1496455   1498234   1500765   1503726   1506484  
  9850.000000   1508109   1507670   1504626   1499144   1492265  
  9840.000000   1485615   1480932   1479391   1481157   1485299  
  9830.000000   1490102   1493719   1494786   1492873   1488519  
  9820.000000   1482917   1477422   1473091   1470467   1469657  
  9810.000000   1470501   1472831   1476448   1481093   1486266  
  9800.000000   1491183   1494935   1496723   1496252   1493860  
  9790.000000   1490530   1487550   1486071   1486715   1489349  
  9780.000000   1493195   1497108   1499973   1500992   1499848  
  9770.000000   1496665   1491889   1486144   1480108   1474487  
  9760.000000   1469912   1466920   1465807   1466616   1469053  
  9750.000000   1472612   1476635   1480519   1483782   1486126  
  9740.000000   1487388   1487453   1486287   1483874   1480421  
  9730.000000   1476268   1472002   1468194   1465331   1463594  
  9720.000000   1462857   1462768   1462905   1463003   1463034  
  9710.000000   1463251   1464057   1465828   1468761   1472752  
  9700.000000   1477449   1482318   1486824   1490511   1493132  
  9690.000000   1494632   1495174   1495085   1494774   1494667  
  9680.000000   1495036   1495992   1497372   1498903   1500215  
  9670.000000   1501083   1501389   1501230   1500707   1499910  
  9660.000000   1498740   1496977   1494346   1490678   1486039  
  9650.000000   1480735   1475225   1469929   1465090   1460696  
  9640.000000   1456595   1452637   1448847   1445464   1442837  
  9630.000000   1441249   1440731   1441048   1441802   1442667  
  9620.000000   1443563   1444705   1446466   1449108   1452574  
  9610.000000   1456343   1459633   1461585   1461700   1459911  
  9600.000000   1456691   1452720   1448667   1444888   1441412  
  9590.000000   1438119   1434946   1432183   1430354   1430157  
  9580.000000   1432002   1435903   1441294   1447261   1452790  
  9570.000000   1457038   1459545   1460143   1458919   1455970  
  9560.000000   1451439   1445503   1438575   1431381   1424910  
  9550.000000   1420204   1417970   1418363   1420819   1424333  
  9540.000000   1427730   1430119   1431088   1430738   1429522  
  9530.000000   1427923   1426307   1424748   1423197   1421555  
  9520.000000   1419878   1418366   1417294   1416897   1417223  
  9510.000000   1418206   1419640   1421387   1423313   1425346  
  9500.000000   1427327   1428976   1429905   1429699   1428128  
  9490.000000   1425221   1421356   1417059   1412861   1409028  
  9480.000000   1405549   1402186   1398708   1395107   1391684  
  9470.000000   1389026   1387728   1388197   1390399   1393923  
  9460.000000   1398097   1402267   1405988   1409085   1411596  
  9450.000000   1413579   1415006   1415680   1415352   1413841  
  9440.000000   1411219   1407820   1404197   1400884   1398236  
  9430.000000   1396290   1394812   1393448   1391877   1389977  
  9420.000000   1387839   1385754   1384080   1383169   1383240  
  9410.000000   1384394   1386553   1389542   1393057   1396729  
  9400.000000   1400169   1403016   1405059   1406198   1406517  
  9390.000000   1406100   1405037   1403284   1400740   1397314  
  9380.000000   1393049   1388267   1383526   1379640   1377374  
  9370.000000   1377318   1379567   1383754   1389046   1394386  
  9360.000000   1398733   1401245   1401529   1399573   1395839  
  9350.000000   1390960   1385721   1380779   1376665   1373687  
  9340.000000   1371944   1371421   1371993   1373644   1376365  
  9330.000000   1380274   1385327   1391324   1397737   1403815  
  9320.000000   1408749   1411805   1412580   1410989   1407341  
  9310.000000   1402146   1396013   1389493   1383046   1377086  
  9300.000000   1371994   1368191   1365979   1365503   1366512  
  9290.000000   1368453   1370511   1371909   1372147   1371159  
  9280.000000   1369354   1367357   1365803   1364984   1364839  
  9270.000000   1364974   1364967   1364547   1363783   1363025  
  9260.000000   1362743   1363279   1364649   1366546   1368447  
  9250.000000   1369846   1370440   1370231   1369503   1368652  
  9240.000000   1368016   1367762   1367871   1368205   1368564  
  9230.000000   1368789   1368758   1368404   1367676   1366554  
  9220.000000   1365096   1363462   1361910   1360686   1359924  
  9210.000000   1359540   1359266   1358721   1357589   1355792  
  9200.000000   1353593   1351553   1350328   1350443   1352060  
  9190.000000   1354929   1358445   1361878   1364611   1366323  
  9180.000000   1367037   1367013   1366591   1366027   1365430  
  9170.000000   1364744   1363856   1362652   1361146   1359422  
  9160.000000   1357631   1355889   1354258   1352760   1351391  
  9150.000000   1350187   1349217   1348613   1348532   1349120  
  9140.000000   1350448   1352500   1355143   1358150   1361213  
  9130.000000   1364005   1366249   1367771   1368540   1368659  
  9120.000000   1368334   1367791   1367185   1366545   1365767  
  9110.000000   1364685   1363150   1361130   1358722   1356146  
  9100.000000   1353640   1351401   1349509   1347930   1346563  
  9090.000000   1345311   1344151   1343126   1342317   1341784  
  9080.000000   1341531   1341511   1341660   1341964   1342500  
  9070.000000   1343408   1344831   1346798   1349182   1351666  
  9060.000000   1353845   1355318   1355840   1355379   1354129  
  9050.000000   1352436   1350679   1349172   1348079   1347427  
  9040.000000   1347131   1347066   1347109   1347162   1347143  
  9030.000000   1346979   1346591   1345914   1344909   1343609  
  9020.000000   1342130   1340667   1339451   1338724   1338676  
  9010.000000   1339398   1340830   1342764   1344873   1346756  
  9000.000000   1348030   1348403   1347779   1346259   1344131  
  8990.000000   1341775   1339598   1337903   1336851   1336434  
  8980.000000   1336530   1336960   1337548   1338164   1338731  
  8970.000000   1339224   1339640   1339992   1340305   1340620  
  8960.000000   1340992   1341471   1342103   1342897   1343838  
  8950.000000   1344877   1345954   1347019   1348025   1348925  
  8940.000000   1349650   1350116   1350236   1349953   1349286  
  8930.000000   1348334   1347281   1346328   1345640   1345274  
  8920.000000   1345184   1345232   1345265   1345184   1344988  
  8910.000000   1344790   1344749   1345038   1345760   1346948  
  8900.000000   1348562   1350511   1352702   1354996   1357236  
  8890.000000   1359193   1360610   1361222   1360864   1359545  
  8880.000000   1357514   1355243   1353310   1352276   1352501  
  8870.000000   1354070   1356719   1359963   1363195   1365887  
  8860.000000   1367690   1368498   1368428   1367730   1366686  
  8850.000000   1365507   1364306   1363089   1361844   1360557  
  8840.000000   1359299   1358200   1357434   1357146   1357378  
  8830.000000   1358059   1359001   1359989   1360839   1361494  
  8820.000000   1362056   1362752   1363850   1365539   1367842  
  8810.000000   1370571   1373376   1375826   1377572   1378413  
  8800.000000   1378377   1377655   1376545   1375334   1374243  
  8790.000000   1373386   1372799   1372481   1372445   1372728  
  8780.000000   1373366   1374371   1375677   1377167   1378684  
  8770.000000   1380100   1381363   1382504   1383633   1384856  
  8760.000000   1386244   1387772   1389341   1390798   1392016  
  8750.000000   1392927   1393560   1394015   1394427   1394910  
  8740.000000   1395522   1396264   1397082   1397916   1398713  
  8730.000000   1399454   1400145   1400810   1401470   1402136  
  8720.000000   1402803   1403456   1404074   1404638   1405136  
  8710.000000   1405567   1405951   1406321   1406735   1407250  
  8700.000000   1407931   1408797   1409846   1411011   1412220  
  8690.000000   1413376   1414430   1415371   1416268   1417227  
  8680.000000   1418385   1419863   1421742   1424047   1426729  
  8670.000000   1429706   1432864   1436099   1439308   1442415  
  8660.000000   1445347   1448043   1450421   1452386   1453839  
  8650.000000   1454701   1454953   1454643   1453904   1452919  
  8640.000000   1451891   1450987   1450287   1449795   1449443  
  8630.000000   1449162   1448922   1448789   1448905   1449462  
  8620.000000   1450605   1452386   1454714   1457385   1460133  
  8610.000000   1462725   1465041   1467078   1468944   1470750  
  8600.000000   1472568   1474337   1475898   1477024   1477545  
  8590.000000   1477398   1476686   1475659   1474649   1473988  
  8580.000000   1473893   1474461   1475638   1477289   1479210  
  8570.000000   1481224   1483185   1485017   1486687   1488207  
  8560.000000   1489620   1490959   1492244   1493430   1494446  
  8550.000000   1495162   1495466   1495291   1494693   1493863  
  8540.000000   1493096   1492732   1493047   1494170   1496018  
  8530.000000   1498336   1500765   1502979   1504761   1506080  
  8520.000000   1507057   1507898   1508797   1509850   1511041  
  8510.000000   1512248   1513331   1514156   1514669   1514872  
  8500.000000   1514826   1514608   1514293   1513970   1513743  
  8490.000000   1513745   1514110   1514942   1516274   1518030  
  8480.000000   1520034   1522053   1523875   1525369   1526516  
  8470.000000   1527404   1528187   1529015   1529999   1531169  
  8460.000000   1532511   1533964   1535457   1536901   1538184  
  8450.000000   1539187   1539773   1539876   1539530   1538922  
  8440.000000   1538363   1538220   1538800   1540211   1542292  
  8430.000000   1544636   1546717   1548047   1548339   1547610  
  8420.000000   1546190   1544600   1543369   1542893   1543330  
  8410.000000   1544614   1546504   1548704   1550960   1553109  
  8400.000000   1555064   1556779   1558179   1559174   1559665  
  8390.000000   1559607   1559046   1558146   1557173   1556409  
  8380.000000   1556074   1556254   1556868   1557699   1558424  
  8370.000000   1558741   1558436   1557469   1555982   1554259  
  8360.000000   1552670   1551550   1551120   1551401   1552219  
  8350.000000   1553258   1554158   1554646   1554618   1554204  
  8340.000000   1553724   1553574   1554071   1555328   1557207  
  8330.000000   1559313   1561129   1562145   1562063   1560855  
  8320.000000   1558803   1556383   1554144   1552542   1551826  
  8310.000000   1551994   1552831   1554021   1555264   1556383  
  8300.000000   1557338   1558232   1559211   1560394   1561782  
  8290.000000   1563254   1564601   1565600   1566111   1566116  
  8280.000000   1565750   1565232   1564782   1564546   1564524  
  8270.000000   1564598   1564555   1564200   1563412   1562222  
  8260.000000   1560781   1559326   1558079   1557197   1556713  
  8250.000000   1556552   1556557   1556548   1556374   1555942  
  8240.000000   1555230   1554271   1553141   1551935   1550760  
  8230.000000   1549721   1548901   1548353   1548075   1548021  
  8220.000000   1548096   1548198   1548227   1548123   1547861  
  8210.000000   1547450   1546904   1546225   1545393   1544377  
  8200.000000   1543157   1541747   1540203   1538617   1537082  
  8190.000000   1535677   1534423   1533312   1532291   1531315  
  8180.000000   1530347   1529374   1528398   1527409   1526379  
  8170.000000   1525248   1523951   1522437   1520709   1518836  
  8160.000000   1516953   1515224   1513808   1512811   1512262  
  8150.000000   1512106   1512223   1512451   1512623   1512599  
  8140.000000   1512280   1511630   1510675   1509510   1508277  
  8130.000000   1507144   1506266   1505739   1505569   1505649  
  8120.000000   1505768   1505657   1505055   1503796   1501865  
  8110.000000   1499429   1496797   1494346   1492412   1491205  
  8100.000000   1490744   1490863   1491267   1491628   1491683  
  8090.000000   1491305   1490523   1489475   1488338   1487252  
  8080.000000   1486277   1485390   1484527   1483630   1482700  
  8070.000000   1481800   1481028   1480478   1480175   1480072  
  8060.000000   1480032   1479900   1479535   1478870   1477931  
  8050.000000   1476817   1475670   1474605   1473691   1472906  
  8040.000000   1472173   1471363   1470357   1469068   1467485  
  8030.000000   1465682   1463810   1462084   1460728   1459943  
  8020.000000   1459839   1460416   1461544   1462991   1464469  
  8010.000000   1465696   1466463   1466658   1466293   1465457  
  8000.000000   1464301   1462969   1461593   1460259   1459028  
  7990.000000   1457939   1457020   1456302   1455792   1455496  
  7980.000000   1455378   1455399   1455492   1455593   1455642  
  7970.000000   1455592   1455419   1455113   1454693   1454183  
  7960.000000   1453623   1453041   1452452   1451849   1451208  
  7950.000000   1450506   1449744   1448958   1448224   1447633  
  7940.000000   1447258   1447121   1447167   1447286   1447342  
  7930.000000   1447232   1446924   1446476   1446011   1445665  
  7920.000000   1445528   1445604   1445803   1445977   1445979  
  7910.000000   1445713   1445172   1444424   1443586   1442770  
  7900.000000   1442050   1441444   1440932   1440480   1440066  
  7890.000000   1439693   1439385   1439170   1439066   1439068  
  7880.000000   1439161   1439320   1439532   1439782   1440056  
  7870.000000   1440318   1440515   1440576   1440454   1440138  
  7860.000000   1439686   1439211   1438854   1438744   1438945  
  7850.000000   1439445   1440140   1440882   1441512   1441911  
  7840.000000   1442028   1441885   1441558   1441143   1440724  
  7830.000000   1440352   1440029   1439730   1439404   1439011  
  7820.000000   1438526   1437958   1437333   1436699   1436092  
  7810.000000   1435535   1435016   1434502   1433941   1433296  
  7800.000000   1432550   1431736   1430918   1430186   1429614  
  7790.000000   1429248   1429069   1429009   1428953   1428782  
  7780.000000   1428394   1427742   1426834   1425732   1424532  
  7770.000000   1423333   1422219   1421231   1420375   1419612  
  7760.000000   1418883   1418127   1417300   1416392   1415436  
  7750.000000   1414506   1413694   1413089   1412750   1412684  
  7740.000000   1412841   1413124   1413415   1413605   1413628  
  7730.000000   1413469   1413173   1412812   1412467   1412188  
  7720.000000   1411981   1411803   1411585   1411257   1410778  
  7710.000000   1410159   1409454   1408754   1408148   1407701  
  7700.000000   1407433   1407308   1407263   1407206   1407064  
  7690.000000   1406773   1406307   1405656   1404840   1403897  
  7680.000000   1402894   1401934   1401149   1400691   1400692  
  7670.000000   1401235   1402303   1403776   1405436   1407013  
  7660.000000   1408248   1408947   1409033   1408535   1407587  
  7650.000000   1406352   1405005   1403675   1402457   1401409  
  7640.000000   1400576   1400004   1399726   1399765   1400096  
  7630.000000   1400659   1401354   1402078   1402749   1403329  
  7620.000000   1403836   1404308   1404795   1405310   1405832  
  7610.000000   1406306   1406675   1406912   1407040   1407127  
  7600.000000   1407265   1407529   1407945   1408478   1409039  
  7590.000000   1409508   1409783   1409801   1409567   1409140  
  7580.000000   1408619   1408115   1407727   1407531   1407583  
  7570.000000   1407908   1408515   1409381   1410455   1411650  
  7560.000000   1412862   1413979   1414921   1415650   1416203  
  7550.000000   1416665   1417170   1417834   1418745   1419913  
  7540.000000   1421292   1422789   1424303   1425752   1427097  
  7530.000000   1428335   1429497   1430608   1431692   1432740  
  7520.000000   1433749   1434709   1435642   1436585   1437600  
  7510.000000   1438744   1440054   1441540   1443183   1444952  
  7500.000000   1446813   1448738   1450709   1452703   1454697  
  7490.000000   1456647   1458518   1460269   1461889   1463384  
  7480.000000   1464790   1466145   1467491   1468854   1470256  
  7470.000000   1471715   1473260   1474926   1476746   1478734  
  7460.000000   1480873   1483111   1485378   1487604   1489763  
  7450.000000   1491860   1493952   1496097   1498345   1500698  
  7440.000000   1503124   1505560   1507961   1510314   1512654  
  7430.000000   1515043   1517537   1520152   1522848   1525532  
  7420.000000   1528098   1530462   1532597   1534541   1536379  
  7410.000000   1538210   1540111   1542114   1544205   1546342  
  7400.000000   1548474   1550565   1552598   1554579   1556529  
  7390.000000   1558484   1560487   1562591   1564847   1567296  
  7380.000000   1569943   1572749   1575627   1578463   1581156  
  7370.000000   1583643   1585925   1588057   1590133   1592230  
  7360.000000   1594394   1596608   1598819   1600956   1602973  
  7350.000000   1604868   1606685   1608498   1610379   1612379  
  7340.000000   1614509   1616757   1619093   1621489   1623917  
  7330.000000   1626352   1628753   1631080   1633285   1635346  
  7320.000000   1637267   1639093   1640875   1642666   1644473  
  7310.000000   1646268   1647977   1649534   1650892   1652071  
  7300.000000   1653131   1654171   1655265   1656447   1657674  
  7290.000000   1658860   1659895   1660700   1661251   1661592  
  7280.000000   1661811   1662018   1662305   1662734   1663323  
  7270.000000   1664059   1664917   1665866   1666883   1667937  
  7260.000000   1669006   1670053   1671061   1672008   1672912  
  7250.000000   1673800   1674737   1675780   1677000   1678440  
  7240.000000   1680143   1682114   1684358   1686839   1689511  
  7230.000000   1692281   1695055   1697710   1700169   1702383  
  7220.000000   1704395   1706295   1708241   1710387   1712877  
  7210.000000   1715778   1719093   1722736   1726587   1730502  
  7200.000000   1734379   1738140   1741782   1745318   1748809  
  7190.000000   1752296   1755847   1759492   1763286   1767243  
  7180.000000   1771391   1775717   1780207   1784808   1789479  
  7170.000000   1794173   1798886   1803629   1808467   1813451  
  7160.000000   1818641   1824033   1829600   1835257   1840932  
  7150.000000   1846547   1852090   1857576   1863078   1868655  
  7140.000000   1874364   1880199   1886136   1892114   1898105  
  7130.000000   1904100   1910158   1916346   1922755   1929421  
  7120.000000   1936353   1943482   1950727   1957985   1965200  
  7110.000000   1972343   1979450   1986570   1993786   2001157  
  7100.000000   2008743   2016557   2024601   2032821   2041148  
  7090.000000   2049476   2057710   2065774   2073651   2081375  
  7080.000000   2089046   2096772   2104652   2112715   2120924  
  7070.000000   2129176   2137349   2145346   2153136   2160763  
  7060.000000   2168322   2175919   2183632   2191486   2199442  
  7050.000000   2207427   2215350   2223142   2230755   2238186  
  7040.000000   2245445   2252574   2259613   2266625   2273659  
  7030.000000   2280767   2287955   2295200   2302422   2309530  
  7020.000000   2316415   2323020   2329322   2335363   2341199  
  7010.000000   2346897   2352483   2357965   2363318   2368538  
  7000.000000   2373634   2378671   2383712   2388838   2394073  
  6990.000000   2399417   2404808   2410182   2415454   2420576  
  6980.000000   2425490   2430171   2434579   2438702   2442535  
  6970.000000   2446129   2449556   2452930   2456328   2459789  
  6960.000000   2463259   2466631   2469752   2472516   2474878  
  6950.000000   2476914   2478759   2480597   2482559   2484725  
  6940.000000   2487072   2489543   2492043   2494519   2496934  
  6930.000000   2499298   2501603   2503836   2505939   2507854  
  6920.000000   2509521   2510924   2512082   2513052   2513900  
  6910.000000   2514685   2515441   2516191   2516944   2517724  
  6900.000000   2518551   2519460   2520463   2521568   2522762  
  6890.000000   2524033   2525373   2526787   2528276   2529821  
  6880.000000   2531373   2532849   2534155   2535219   2536020  
  6870.000000   2536609   2537093   2537603   2538251   2539092  
  6860.000000   2540115   2541263   2542452   2543617   2544718  
  6850.000000   2545754   2546732   2547664   2548544   2549360  
  6840.000000   2550101   2550773   2551395   2552003   2552622  
  6830.000000   2553261   2553901   2554514   2555063   2555536  
  6820.000000   2555931   2556272   2556573   2556849   2557091  
  6810.000000   2557290   2557430   2557518   2557567   2557604  
  6800.000000   2557642   2557681   2557697   2557658   2557532  
  6790.000000   2557309   2556998   2556632   2556246   2555870  
  6780.000000   2555516   2555192   2554894   2554629   2554404  
  6770.000000   2554234   2554120   2554052   2553998   2553917  
  6760.000000   2553760   2553489   2553075   2552503   2551770  
  6750.000000   2550885   2549869   2548762   2547615   2546493  
  6740.000000   2545448   2544516   2543690   2542934   2542181  
  6730.000000   2541370   2540457   2539438   2538343   2537228  
  6720.000000   2536143   2535120   2534158   2533234   2532309  
  6710.000000   2531359   2530374   2529373   2528381   2527435  
  6700.000000   2526549   2525724   2524931   2524128   2523258  
  6690.000000   2522269   2521117   2519782   2518269   2516613  
  6680.000000   2514861   2513074   2511296   2509561   2507874  
  6670.000000   2506233   2504625   2503053   2501517   2500032  
  6660.000000   2498592   2497181   2495755   2494265   2492666  
  6650.000000   2490943   2489111   2487217   2485312   2483439  
  6640.000000   2481607   2479795   2477966   2476085   2474137  
  6630.000000   2472137   2470114   2468104   2466129   2464194  
  6620.000000   2462289   2460404   2458537   2456701   2454913  
  6610.000000   2453184   2451506   2449852   2448183   2446464  
  6600.000000   2444680   2442836   2440956   2439060   2437161  
  6590.000000   2435254   2433325   2431367   2429391   2427432  
  6580.000000   2425539   2423760   2422121   2420617   2419212  
  6570.000000   2417853   2416483   2415056   2413546   2411942  
  6560.000000   2410252   2408492   2406691   2404884   2403114  
  6550.000000   2401421   2399836   2398365   2396994   2395690  
  6540.000000   2394421   2393168   2391932   2390728   2389577  
  6530.000000   2388481   2387421   2386358   2385253   2384082  
  6520.000000   2382858   2381617   2380412   2379280   2378234  
  6510.000000   2377247   2376272   2375262   2374194   2373083  
  6500.000000   2371972   2370918   2369962   2369123   2368385  
  6490.000000   2367713   2367064   2366405   2365711   2364971  
  6480.000000   2364176   2363317   2362387   2361382   2360310  
  6470.000000   2359186   2358029   2356853   2355656   2354426  
  6460.000000   2353149   2351824   2350470   2349129   2347851  
  6450.000000   2346680   2345635   2344703   2343848   2343019  
  6440.000000   2342174   2341287   2340357   2339395   2338425  
  6430.000000   2337465   2336538   2335660   2334850   2334118  
  6420.000000   2333462   2332862   2332280   2331666   2330974  
  6410.000000   2330181   2329299   2328364   2327432   2326550  
  6400.000000   2325745   2325012   2324326   2323654   2322971  
  6390.000000   2322265   2321540   2320805   2320067   2319328  
  6380.000000   2318590   2317859   2317150   2316483   2315870  
  6370.000000   2315304   2314753   2314166   2313490   2312697  
  6360.000000   2311794   2310827   2309863   2308961   2308153  
  6350.000000   2307427   2306739   2306032   2305257   2304392  
  6340.000000   2303439   2302421   2301361   2300284   2299202  
  6330.000000   2298133   2297098   2296129   2295252   2294484  
  6320.000000   2293809   2293187   2292551   2291842   2291008  
  6310.000000   2290042   2288952   2287774   2286532   2285243  
  6300.000000   2283899   2282493   2281008   2279448   2277815  
  6290.000000   2276127   2274381   2272579   2270698   2268736  
  6280.000000   2266688   2264577   2262426   2260273   2258127  
  6270.000000   2255994   2253850   2251678   2249454   2247180  
  6260.000000   2244858   2242502   2240114   2237693   2235221  
  6250.000000   2232690   2230099   2227468   2224828   2222218  
  6240.000000   2219663   2217176   2214751   2212374   2210023  
  6230.000000   2207688   2205357   2203027   2200688   2198331  
  6220.000000   2195948   2193540   2191113   2188685   2186270  
  6210.000000   2183872   2181478   2179064   2176601   2174076  
  6200.000000   2171497   2168900   2166332   2163835   2161434  
  6190.000000   2159119   2156860   2154615   2152352   2150056  
  6180.000000   2147736   2145417   2143126   2140888   2138714  
  6170.000000   2136605   2134558   2132565   2130615   2128690  
  6160.000000   2126770   2124830   2122858   2120850   2118825  
  6150.000000   2116814   2114853   2112965   2111157   2109412  
  6140.000000   2107707   2106015   2104333   2102670   2101056  
  6130.000000   2099510   2098047   2096651   2095297   2093950  
  6120.000000   2092590   2091209   2089829   2088473   2087174  
  6110.000000   2085949   2084808   2083744   2082755   2081829  
  6100.000000   2080962   2080140   2079354   2078579   2077802  
  6090.000000   2077011   2076219   2075444   2074727   2074095  
  6080.000000   2073573   2073150   2072812   2072518   2072248  
  6070.000000   2071981   2071732   2071516   2071373   2071327  
  6060.000000   2071406   2071609   2071937   2072366   2072886  
  6050.000000   2073468   2074110   2074801   2075559   2076396  
  6040.000000   2077346   2078423   2079645   2080998   2082467  
  6030.000000   2084015   2085620   2087259   2088931   2090640  
  6020.000000   2092397   2094199   2096039   2097890   2099732  
  6010.000000   2101542   2103318   2105063   2106791   2108508  
  6000.000000   2110219   2111914   2113589   2115240   2116876  
  5990.000000   2118511   2120164   2121842   2123545   2125260  
  5980.000000   2126976   2128689   2130413   2132170   2133989  
  5970.000000   2135884   2137857   2139888   2141953   2144030  
  5960.000000   2146110   2148195   2150297   2152416   2154546  
  5950.000000   2156661   2158742   2160770   2162754   2164713  
  5940.000000   2166684   2168692   2170748   2172843   2174958  
  5930.000000   2177073   2179189   2181324   2183511   2185777  
  5920.000000   2188133   2190558   2193011   2195439   2197801  
  5910.000000   2200075   2202264   2204383   2206457   2208499  
  5900.000000   2210521   2212531   2214540   2216568   2218639  
  5890.000000   2220778   2222992   2225279   2227615   2229977  
  5880.000000   2232340   2234688   2237010   2239291   2241515  
  5870.000000   2243648   2245666   2247550   2249312   2250990  
  5860.000000   2252650   2254359   2256178   2258136   2260241  
  5850.000000   2262476   2264823   2267263   2269789   2272400  
  5840.000000   2275093   2277862   2280693   2283573   2286493  
  5830.000000   2289452   2292449   2295478   2298512   2301512  
  5820.000000   2304420   2307188   2309779   2312192   2314438  
  5810.000000   2316553   2318554   2320462   2322257   2323937  
  5800.000000   2325474   2326885   2328171   2329368   2330471  
  5790.000000   2331493   2332388   2333130   2333659   2333952  
  5780.000000   2333972   2333719   2333175   2332347   2331230  
  5770.000000   2329851   2328245   2326488   2324663   2322870  
  5760.000000   2321180   2319648   2318284   2317081   2316015  
  5750.000000   2315067   2314226   2313485   2312842   2312281  
  5740.000000   2311789   2311336   2310915   2310520   2310177  
  5730.000000   2309903   2309733   2309672   2309721   2309852  
  5720.000000   2310047   2310276   2310530   2310805   2311112  
  5710.000000   2311456   2311850   2312296   2312803   2313371  
  5700.000000   2314005   2314699   2315446   2316226   2317018  
  5690.000000   2317803   2318570   2319326   2320081   2320853  
  5680.000000   2321649   2322467   2323283   2324069   2324783  
  5670.000000   2325393   2325860   2326161   2326270   2326182  
  5660.000000   2325900   2325456   2324896   2324290   2323697  
  5650.000000   2323166   2322709   2322313   2321938   2321546  
  5640.000000   2321106   2320617   2320090   2319554   2319025  
  5630.000000   2318514   2318016   2317525   2317042   2316580  
  5620.000000   2316161   2315803   2315509   2315264   2315032  
  5610.000000   2314777   2314471   2314114   2313720   2313318  
  5600.000000   2312929   2312555   2312174   2311753   2311257  
  5590.000000   2310667   2309980   2309219   2308408   2307573  
  5580.000000   2306726   2305877   2305018   2304148   2303258  
  5570.000000   2302338   2301371   2300342   2299233   2298044  
  5560.000000   2296789   2295509   2294248   2293056   2291960  
  5550.000000   2290962   2290041   2289162   2288291   2287406  
  5540.000000   2286499   2285576   2284642   2283701   2282752  
  5530.000000   2281799   2280852   2279933   2279069   2278281  
  5520.000000   2277571   2276917   2276274   2275592   2274826  
  5510.000000   2273959   2272990   2271945   2270850   2269729  
  5500.000000   2268595   2267457   2266317   2265189   2264077  
  5490.000000   2262989   2261909   2260817   2259669   2258434  
  5480.000000   2257087   2255637   2254104   2252527   2250932  
  5470.000000   2249337   2247733   2246108   2244443   2242736  
  5460.000000   2240989   2239217   2237419   2235594   2233723  
  5450.000000   2231791   2229790   2227736   2225661   2223606  
  5440.000000   2221606   2219676   2217817   2216013   2214255  
  5430.000000   2212534   2210862   2209241   2207683   2206178  
  5420.000000   2204726   2203315   2201962   2200684   2199526  
  5410.000000   2198505   2197645   2196924   2196328   2195820  
  5400.000000   2195405   2195084   2194901   2194876   2195045  
  5390.000000   2195389   2195897   2196521   2197253   2198074  
  5380.000000   2199022   2200110   2201382   2202829   2204464  
  5370.000000   2206246   2208182   2210241   2212463   2214838  
  5360.000000   2217423   2220204   2223237   2226506   2230085  
  5350.000000   2233979   2238279   2242985   2248167   2253777  
  5340.000000   2259853   2266326   2273258   2280620   2288516  
  5330.000000   2296934   2305972   2315580   2325817   2336602  
  5320.000000   2347998   2359949   2372565   2385816   2399825  
  5310.000000   2414547   2430079   2446342   2463423   2481257  
  5300.000000   2499953   2519481   2539977   2561427   2583950  
  5290.000000   2607490   2632088   2657601   2683967   2710994  
  5280.000000   2738613   2766707   2795319   2824467   2854268  
  5270.000000   2884744   2915890   2947552   2979506   3011486  
  5260.000000   3043252   3074683   3105729   3136461   3166902  
  5250.000000   3197091   3226891   3256182   3284692   3312310  
  5240.000000   3338862   3364429   3389004   3412787   3435787  
  5230.000000   3458146   3479754   3500631   3520576   3539581  
  5220.000000   3557486   3574373   3590188   3605106   3619125  
  5210.000000   3632417   3644929   3656747   3667734   3677924  
  5200.000000   3687189   3695624   3703183   3710025   3716130  
  5190.000000   3721619   3726410   3730553   3733931   3736598  
  5180.000000   3738488   3739708   3740239   3740191   3739523  
  5170.000000   3738308   3736495   3734164   3731303   3728028  
  5160.000000   3724349   3720363   3716041   3711421   3706442  
  5150.000000   3701134   3695468   3689510   3683267   3676807  
  5140.000000   3670122   3663250   3656166   3648905   3641463  
  5130.000000   3633895   3626215   3618468   3610645   3602757  
  5120.000000   3594778   3586720   3578582   3570403   3562208  
  5110.000000   3554035   3545887   3537771   3529659   3521540  
  5100.000000   3513396   3505231   3497048   3488864   3480685  
  5090.000000   3472520   3464369   3456239   3448134   3440067  
  5080.000000   3432045   3424074   3416141   3408233   3400326  
  5070.000000   3392406   3384458   3376488   3368500   3360509  
  5060.000000   3352523   3344552   3336596   3328660   3320743  
  5050.000000   3312842   3304950   3297054   3289138   3281185  
  5040.000000   3273190   3265160   3257121   3249109   3241169  
  5030.000000   3233332   3225623   3218038   3210574   3203207  
  5020.000000   3195933   3188739   3181642   3174644   3167772  
  5010.000000   3161022   3154410   3147922   3141570   3135343  
  5000.000000   3129271   3123354   3117637   3112122   3106853  
  4990.000000   3101816   3097044   3092509   3088240   3084208  
  4980.000000   3080447   3076939   3073731   3070813   3068247  
  4970.000000   3066024   3064202   3062758   3061726   3061060  
  4960.000000   3060773   3060809   3061185   3061859   3062872  
  4950.000000   3064197   3065884   3067901   3070282   3072979  
  4940.000000   3076013   3079335   3082974   3086896   3091137  
  4930.000000   3095668   3100520   3105655   3111090   3116779  
  4920.000000   3122737   3128922   3135352   3141993   3148863  
  4910.000000   3155931   3163216   3170694   3178384   3186268  
  4900.000000   3194361   3202644   3211119   3219759   3228547  
  4890.000000   3237448   3246430   3255454   3264480   3273473  
  4880.000000   3282397   3291232   3299953   3308550   3316999  
  4870.000000   3325286   3333373   3341236   3348835   3356167  
  4860.000000   3363217   3370022   3376601   3383015   3389285  
  4850.000000   3395457   3401527   3407514   3413389   3419157  
  4840.000000   3424782   3430269   3435591   3440762   3445772  
  4830.000000   3450650   3455401   3460060   3464625   3469110  
  4820.000000   3473485   3477739   3481827   3485741   3489459  
  4810.000000   3493000   3496368   3499598   3502693   3505675  
  4800.000000   3508531   3511273   3513891   3516407   3518824  
  4790.000000   3521167   3523432   3525627   3527724   3529718  
  4780.000000   3531576   3533304   3534889   3536357   3537713  
  4770.000000   3538988   3540186   3541331   3542417   3543459  
  4760.000000   3544435   3545346   3546152   3546835   3547346  
  4750.000000   3547670   3547771   3547659   3547325   3546799  
  4740.000000   3546083   3545207   3544169   3542993   3541675  
  4730.000000   3540242   3538695   3537061   3535337   3533536  
  4720.000000   3531644   3529663   3527581   3525405   3523139  
  4710.000000   3520804   3518414   3515996   3513563   3511140  
  4700.000000   3508743   3506398   3504123   3501937   3499844  
  4690.000000   3497839   3495898   3493993   3492093   3490171  
  4680.000000   3488211   3486204   3484151   3482047   3479892  
  4670.000000   3477673   3475391   3473044   3470655   3468248  
  4660.000000   3465872   3463566   3461377   3459333   3457459  
  4650.000000   3455762   3454251   3452918   3451765   3450774  
  4640.000000   3449936   3449225   3448625   3448110   3447672  
  4630.000000   3447293   3446973   3446693   3446449   3446214  
  4620.000000   3445974   3445707   3445403   3445056   3444674  
  4610.000000   3444259   3443823   3443369   3442905   3442436  
  4600.000000   3441973   3441532   3441130   3440781   3440493  
  4590.000000   3440263   3440078   3439922   3439779   3439639  
  4580.000000   3439492   3439340   3439179   3439008   3438820  
  4570.000000   3438610   3438371   3438101   3437794   3437446  
  4560.000000   3437044   3436577   3436026   3435379   3434630  
  4550.000000   3433787   3432868   3431894   3430894   3429886  
  4540.000000   3428892   3427921   3426997   3426133   3425366  
  4530.000000   3424713   3424214   3423869   3423708   3423715  
  4520.000000   3423920   3424306   3424927   3425780   3426936  
  4510.000000   3428396   3430235   3432441   3435089   3438163  
  4500.000000   3441746   3445824   3450490   3455730   3461632  
  4490.000000   3468174   3475432   3483370   3492045   3501405  
  4480.000000   3511483   3522207   3533588   3545539   3558052  
  4470.000000   3571035   3584467   3598251   3612355   3626686  
  4460.000000   3641206   3655831   3670528   3685231   3699906  
  4450.000000   3714508   3729008   3743386   3757627   3771740  
  4440.000000   3785718   3799582   3813309   3826915   3840347  
  4430.000000   3853617   3866661   3879501   3892071   3904396  
  4420.000000   3916384   3928030   3939196   3949845   3959816  
  4410.000000   3969074   3977480   3985036   3991645   3997345  
  4400.000000   4002077   4005904   4008802   4010860   4012095  
  4390.000000   4012626   4012506   4011870   4010794   4009410  
  4380.000000   4007804   4006106   4004420   4002877   4001595  
  4370.000000   4000694   4000279   4000426   4001196   4002601  
  4360.000000   4004656   4007325   4010584   4014366   4018613  
  4350.000000   4023238   4028165   4033313   4038629   4044074  
  4340.000000   4049641   4055318   4061081   4066856   4072503  
  4330.000000   4077817   4082554   4086477   4089404   4091276  
  4320.000000   4092161   4092276   4091909   4091408   4091051  
  4310.000000   4091073   4091553   4092514   4093852   4095473  
  4300.000000   4097228   4099029   4100770   4102402   4103860  
  4290.000000   4105111   4106119   4106871   4107366   4107632  
  4280.000000   4107699   4107623   4107437   4107202   4106933  
  4270.000000   4106677   4106430   4106205   4105954   4105630  
  4260.000000   4105128   4104346   4103163   4101504   4099328  
  4250.000000   4096673   4093629   4090344   4086978   4083695  
  4240.000000   4080615   4077825   4075345   4073166   4071235  
  4230.000000   4069492   4067862   4066276   4064668   4062982  
  4220.000000   4061176   4059220   4057116   4054877   4052553  
  4210.000000   4050192   4047866   4045624   4043517   4041563  
  4200.000000   4039774   4038132   4036623   4035211   4033883  
  4190.000000   4032599   4031365   4030153   4028995   4027881  
  4180.000000   4026876   4025992   4025320   4024887   4024800  
  4170.000000   4025094   4025879   4027181   4029095   4031614  
  4160.000000   4034797   4038595   4043033   4048034   4053618  
  4150.000000   4059713   4066357   4073491   4081167   4089331  
  4140.000000   4098034   4107223   4116949   4127161   4137909  
  4130.000000   4149135   4160876   4173063   4185714   4198763  
  4120.000000   4212231   4226073   4240329   4254976   4270056  
  4110.000000   4285545   4301465   4317769   4334447   4351429  
  4100.000000   4368681   4386129   4403740   4421462   4439286  
  4090.000000   4457194   4475195   4493295   4511502   4529823  
  4080.000000   4548254   4566803   4585446   4604181   4622954  
  4070.000000   4641735   4660431   4678998   4697338   4715440  
  4060.000000   4733244   4750788   4768024   4784993   4801610  
  4050.000000   4817881   4833684   4849026   4863782   4877980  
  4040.000000   4891498   4904364   4916438   4927755   4938186  
  4030.000000   4947798   4956493   4964349   4971262   4977266  
  4020.000000   4982199   4986086   4988848   4990569   4991191  
  4010.000000   4990900   4989804   4987993   4985280   4981807  
  4000.000000   4977952  
##END= 
