##TITLE= Sample 001 By ssteindl date Dienstag, November 20 2018
##JCAMP-DX= 4.24
##DATA TYPE= INFRARED SPECTRUM
##ORIGIN= Exported PE Spectrum Data File
##OWNER= Sandra Steindl
##DATE= 18/11/20
##TIME= 09:50:30.00
##SPECTROMETER/DATA SYSTEM= PERKIN-ELMER Frontier FT-IR/NIR IR
##INSTRUMENT PARAMETERS=
  APODIZATION=stark
  DETECTOR=INGAAS
##RESOLUTION= 16.000000
##DELTAX= -2.000000
##XUNITS= 1/CM
##YUNITS= A
##XFACTOR= 1.00
##YFACTOR= 0.00000011920928955078
##FIRSTX= 10000.00
##LASTX= 4000.00
##NPOINTS= 3001
##FIRSTY= 0.186194
##MAXY= 0.592254
##MINY= 0.163123
##XYDATA= (X++(Y..Y))
 10000.000000   1561912   1565092   1568979   1574280   1580363  
  9990.000000   1585794   1589350   1590409   1588692   1584290  
  9980.000000   1577845   1570323   1562625   1555388   1548968  
  9970.000000   1543495   1538909   1535175   1532313   1530499  
  9960.000000   1529892   1530660   1532730   1535876   1539644  
  9950.000000   1543499   1546974   1549724   1551707   1552996  
  9940.000000   1553795   1554119   1553831   1552562   1549978  
  9930.000000   1545940   1540737   1535108   1530083   1526733  
  9920.000000   1525735   1527223   1530615   1534938   1539085  
  9910.000000   1542280   1544220   1545093   1545337   1545332  
  9900.000000   1545220   1544812   1543804   1541913   1539126  
  9890.000000   1535696   1532045   1528606   1525586   1523034  
  9880.000000   1520823   1518939   1517499   1516801   1517121  
  9870.000000   1518475   1520469   1522269   1522881   1521445  
  9860.000000   1517647   1511808   1504900   1498157   1492798  
  9850.000000   1489583   1488754   1489989   1492657   1496004  
  9840.000000   1499347   1502203   1504285   1505590   1506319  
  9830.000000   1506957   1508110   1510434   1514350   1519852  
  9820.000000   1526393   1532914   1538157   1540957   1540650  
  9810.000000   1537188   1531136   1523409   1514979   1506646  
  9800.000000   1498952   1492280   1486943   1483312   1481706  
  9790.000000   1482322   1484986   1489179   1493995   1498460  
  9780.000000   1501722   1503357   1503461   1502528   1501307  
  9770.000000   1500387   1500151   1500532   1501247   1501773  
  9760.000000   1501614   1500338   1497714   1493790   1488898  
  9750.000000   1483736   1479200   1476335   1475983   1478613  
  9740.000000   1484056   1491521   1499715   1507175   1512626  
  9730.000000   1515272   1514968   1512135   1507621   1502388  
  9720.000000   1497339   1493113   1490055   1488221   1487414  
  9710.000000   1487295   1487419   1487419   1487009   1486158  
  9700.000000   1484988   1483781   1482790   1482135   1481750  
  9690.000000   1481366   1480709   1479565   1477982   1476193  
  9680.000000   1474571   1473403   1472790   1472573   1472463  
  9670.000000   1472178   1471640   1471013   1470649   1470925  
  9660.000000   1472062   1474041   1476604   1479392   1482061  
  9650.000000   1484429   1486451   1488175   1489614   1490680  
  9640.000000   1491207   1491045   1490166   1488714   1486931  
  9630.000000   1485050   1483130   1481080   1478671   1475774  
  9620.000000   1472435   1468997   1465964   1463828   1462834  
  9610.000000   1462829   1463293   1463484   1462727   1460625  
  9600.000000   1457213   1452908   1448381   1444341   1441385  
  9590.000000   1439892   1440022   1441708   1444686   1448488  
  9580.000000   1452482   1455952   1458249   1458959   1458054  
  9570.000000   1455908   1453237   1450828   1449335   1449010  
  9560.000000   1449693   1450860   1451863   1452165   1451504  
  9550.000000   1449981   1447950   1445925   1444353   1443552  
  9540.000000   1443601   1444401   1445701   1447192   1448582  
  9530.000000   1449644   1450263   1450418   1450175   1449616  
  9520.000000   1448825   1447810   1446552   1444987   1443106  
  9510.000000   1440984   1438804   1436845   1435385   1434666  
  9500.000000   1434792   1435761   1437448   1439664   1442149  
  9490.000000   1444594   1446637   1447901   1448108   1447142  
  9480.000000   1445191   1442671   1440184   1438282   1437292  
  9470.000000   1437169   1437498   1437701   1437288   1436164  
  9460.000000   1434659   1433478   1433328   1434663   1437405  
  9450.000000   1440995   1444554   1447213   1448415   1448046  
  9440.000000   1446419   1444050   1441417   1438776   1436154  
  9430.000000   1433459   1430648   1427814   1425172   1422957  
  9420.000000   1421284   1420105   1419208   1418380   1417498  
  9410.000000   1416646   1416036   1415908   1416370   1417320  
  9400.000000   1418484   1419517   1420185   1420406   1420298  
  9390.000000   1419991   1419574   1418934   1417878   1416190  
  9380.000000   1413825   1410968   1408013   1405477   1403812  
  9370.000000   1403322   1404069   1405948   1408724   1412123  
  9360.000000   1415827   1419444   1422519   1424536   1425114  
  9350.000000   1424092   1421713   1418557   1415419   1413053  
  9340.000000   1411905   1412031   1413075   1414561   1416065  
  9330.000000   1417489   1418976   1420789   1423016   1425420  
  9320.000000   1427438   1428314   1427407   1424433   1419675  
  9310.000000   1413897   1408125   1403320   1400116   1398724  
  9300.000000   1398939   1400325   1402324   1404448   1406283  
  9290.000000   1407551   1408054   1407721   1406637   1405066  
  9280.000000   1403459   1402238   1401721   1401862   1402360  
  9270.000000   1402674   1402291   1400874   1398408   1395277  
  9260.000000   1392129   1389722   1388637   1389186   1391352  
  9250.000000   1394861   1399260   1403981   1408416   1411972  
  9240.000000   1414161   1414664   1413444   1410782   1407313  
  9230.000000   1403843   1401168   1399794   1399796   1400826  
  9220.000000   1402239   1403364   1403724   1403237   1402214  
  9210.000000   1401208   1400728   1401039   1402025   1403272  
  9200.000000   1404212   1404425   1403808   1402663   1401573  
  9190.000000   1401222   1402112   1404336   1407475   1410698  
  9180.000000   1413049   1413685   1412159   1408503   1403274  
  9170.000000   1397370   1391800   1387414   1384711   1383812  
  9160.000000   1384476   1386271   1388648   1391141   1393403  
  9150.000000   1395284   1396753   1397879   1398763   1399458  
  9140.000000   1399963   1400150   1399865   1398913   1397205  
  9130.000000   1394781   1391893   1388950   1386427   1384733  
  9120.000000   1384042   1384256   1384995   1385784   1386200  
  9110.000000   1386074   1385527   1384957   1384850   1385580  
  9100.000000   1387228   1389521   1391944   1393875   1394837  
  9090.000000   1394602   1393291   1391250   1388905   1386638  
  9080.000000   1384668   1383080   1381838   1380914   1380327  
  9070.000000   1380160   1380468   1381225   1382257   1383261  
  9060.000000   1383859   1383694   1382568   1380483   1377715  
  9050.000000   1374682   1371900   1369786   1368606   1368377  
  9040.000000   1368899   1369828   1370804   1371589   1372146  
  9030.000000   1372658   1373436   1374797   1376906   1379682  
  9020.000000   1382792   1385733   1388021   1389331   1389638  
  9010.000000   1389180   1388384   1387675   1387317   1387331  
  9000.000000   1387491   1387471   1386965   1385879   1384347  
  8990.000000   1382730   1381460   1380922   1381288   1382464  
  8980.000000   1384109   1385723   1386822   1387024   1386177  
  8970.000000   1384364   1381925   1379332   1377098   1375651  
  8960.000000   1375268   1376011   1377730   1380121   1382812  
  8950.000000   1385455   1387769   1389610   1390954   1391896  
  8940.000000   1392590   1393201   1393891   1394748   1395782  
  8930.000000   1396889   1397881   1398524   1398600   1398002  
  8920.000000   1396762   1395107   1393367   1391931   1391095  
  8910.000000   1390988   1391510   1392391   1393269   1393818  
  8900.000000   1393815   1393209   1392107   1390724   1389320  
  8890.000000   1388122   1387304   1386945   1387041   1387487  
  8880.000000   1388120   1388735   1389158   1389285   1389127  
  8870.000000   1388813   1388537   1388486   1388759   1389321  
  8860.000000   1390042   1390738   1391299   1391705   1392067  
  8850.000000   1392531   1393191   1394010   1394807   1395349  
  8840.000000   1395475   1395215   1394833   1394745   1395362  
  8830.000000   1396901   1399261   1402020   1404578   1406365  
  8820.000000   1407076   1406761   1405810   1404777   1404166  
  8810.000000   1404259   1405036   1406255   1407588   1408795  
  8800.000000   1409818   1410774   1411860   1413218   1414833  
  8790.000000   1416518   1417974   1418903   1419138   1418695  
  8780.000000   1417808   1416823   1416126   1416006   1416611  
  8770.000000   1417910   1419728   1421800   1423834   1425583  
  8760.000000   1426900   1427778   1428342   1428827   1429512  
  8750.000000   1430645   1432376   1434689   1437419   1440262  
  8740.000000   1442883   1444955   1446275   1446776   1446561  
  8730.000000   1445854   1444956   1444181   1443813   1444074  
  8720.000000   1445084   1446874   1449356   1452371   1455682  
  8710.000000   1459042   1462195   1464935   1467130   1468726  
  8700.000000   1469773   1470361   1470632   1470708   1470692  
  8690.000000   1470645   1470599   1470591   1470677   1470955  
  8680.000000   1471541   1472541   1473988   1475813   1477829  
  8670.000000   1479771   1481375   1482467   1483034   1483238  
  8660.000000   1483392   1483848   1484906   1486702   1489190  
  8650.000000   1492133   1495200   1498030   1500336   1501949  
  8640.000000   1502847   1503151   1503095   1503007   1503238  
  8630.000000   1504102   1505781   1508281   1511400   1514774  
  8620.000000   1517945   1520506   1522209   1523046   1523221  
  8610.000000   1523073   1522935   1523019   1523355   1523823  
  8600.000000   1524239   1524474   1524524   1524522   1524677  
  8590.000000   1525173   1526079   1527309   1528653   1529854  
  8580.000000   1530716   1531177   1531338   1531423   1531716  
  8570.000000   1532479   1533894   1536023   1538793   1542006  
  8560.000000   1545372   1548546   1551190   1553034   1553949  
  8550.000000   1553979   1553355   1552429   1551613   1551244  
  8540.000000   1551519   1552439   1553843   1555474   1557055  
  8530.000000   1558393   1559396   1560130   1560756   1561506  
  8520.000000   1562594   1564177   1566305   1568885   1571695  
  8510.000000   1574409   1576699   1578288   1579055   1579051  
  8500.000000   1578504   1577736   1577064   1576720   1576798  
  8490.000000   1577278   1578055   1579042   1580187   1581531  
  8480.000000   1583120   1584993   1587091   1589281   1591363  
  8470.000000   1593132   1594446   1595231   1595526   1595392  
  8460.000000   1594926   1594191   1593274   1592267   1591306  
  8450.000000   1590555   1590181   1590328   1591050   1592335  
  8440.000000   1594080   1596179   1598521   1601040   1603668  
  8430.000000   1606326   1608884   1611152   1612927   1614033  
  8420.000000   1614409   1614116   1613344   1612333   1611310  
  8410.000000   1610424   1609709   1609127   1608590   1608057  
  8400.000000   1607531   1607098   1606857   1606906   1607265  
  8390.000000   1607889   1608651   1609392   1609979   1610324  
  8380.000000   1610442   1610405   1610354   1610409   1610654  
  8370.000000   1611077   1611586   1612039   1612304   1612329  
  8360.000000   1612176   1612044   1612200   1612898   1614263  
  8350.000000   1616234   1618556   1620842   1622679   1623753  
  8340.000000   1623946   1623357   1622257   1620997   1619899  
  8330.000000   1619185   1618933   1619096   1619522   1620040  
  8320.000000   1620466   1620682   1620613   1620272   1619745  
  8310.000000   1619167   1618685   1618389   1618286   1618250  
  8300.000000   1618075   1617522   1616440   1614853   1612992  
  8290.000000   1611249   1610050   1609734   1610426   1612009  
  8280.000000   1614145   1616401   1618374   1619804   1620608  
  8270.000000   1620852   1620681   1620247   1619666   1618998  
  8260.000000   1618280   1617535   1616800   1616111   1615480  
  8250.000000   1614886   1614271   1613579   1612776   1611886  
  8240.000000   1610969   1610113   1609382   1608806   1608373  
  8230.000000   1608066   1607877   1607845   1608015   1608428  
  8220.000000   1609057   1609799   1610477   1610897   1610903  
  8210.000000   1610428   1609514   1608268   1606822   1605273  
  8200.000000   1603661   1601986   1600239   1598444   1596666  
  8190.000000   1595007   1593548   1592343   1591366   1590565  
  8180.000000   1589863   1589226   1588657   1588188   1587838  
  8170.000000   1587563   1587248   1586720   1585816   1584438  
  8160.000000   1582613   1580479   1578252   1576156   1574357  
  8150.000000   1572932   1571862   1571075   1570480   1570004  
  8140.000000   1569592   1569195   1568754   1568194   1567440  
  8130.000000   1566453   1565246   1563904   1562561   1561357  
  8120.000000   1560397   1559708   1559237   1558855   1558407  
  8110.000000   1557743   1556762   1555422   1553748   1551821  
  8100.000000   1549759   1547709   1545815   1544207   1542973  
  8090.000000   1542139   1541666   1541450   1541352   1541224  
  8080.000000   1540945   1540432   1539666   1538670   1537509  
  8070.000000   1536265   1535033   1533903   1532960   1532269  
  8060.000000   1531866   1531745   1531850   1532081   1532312  
  8050.000000   1532417   1532296   1531905   1531258   1530428  
  8040.000000   1529525   1528673   1527982   1527525   1527321  
  8030.000000   1527329   1527451   1527555   1527499   1527169  
  8020.000000   1526501   1525506   1524255   1522869   1521481  
  8010.000000   1520203   1519107   1518204   1517467   1516823  
  8000.000000   1516195   1515502   1514680   1513692   1512541  
  7990.000000   1511279   1510016   1508909   1508133   1507839  
  7980.000000   1508104   1508897   1510067   1511370   1512539  
  7970.000000   1513340   1513642   1513426   1512782   1511847  
  7960.000000   1510761   1509621   1508479   1507354   1506271  
  7950.000000   1505282   1504462   1503894   1503614   1503602  
  7940.000000   1503750   1503912   1503939   1503734   1503296  
  7930.000000   1502695   1502058   1501496   1501072   1500770  
  7920.000000   1500519   1500238   1499877   1499460   1499078  
  7910.000000   1498864   1498934   1499343   1500051   1500921  
  7900.000000   1501765   1502373   1502590   1502329   1501612  
  7890.000000   1500541   1499287   1498053   1497031   1496382  
  7880.000000   1496194   1496491   1497209   1498236   1499407  
  7870.000000   1500561   1501548   1502264   1502653   1502703  
  7860.000000   1502438   1501900   1501144   1500229   1499219  
  7850.000000   1498187   1497210   1496362   1495699   1495249  
  7840.000000   1494991   1494870   1494789   1494640   1494319  
  7830.000000   1493755   1492930   1491887   1490732   1489616  
  7820.000000   1488707   1488149   1488028   1488343   1488999  
  7810.000000   1489825   1490615   1491173   1491366   1491149  
  7800.000000   1490572   1489756   1488855   1488014   1487336  
  7790.000000   1486869   1486603   1486489   1486448   1486401  
  7780.000000   1486268   1485988   1485522   1484865   1484044  
  7770.000000   1483123   1482181   1481301   1480547   1479948  
  7760.000000   1479495   1479156   1478880   1478624   1478356  
  7750.000000   1478062   1477734   1477365   1476947   1476465  
  7740.000000   1475915   1475298   1474630   1473930   1473221  
  7730.000000   1472517   1471832   1471185   1470606   1470142  
  7720.000000   1469840   1469730   1469802   1469987   1470176  
  7710.000000   1470237   1470066   1469610   1468900   1468026  
  7700.000000   1467121   1466307   1465668   1465230   1464972  
  7690.000000   1464846   1464805   1464822   1464887   1465004  
  7680.000000   1465165   1465351   1465529   1465666   1465743  
  7670.000000   1465758   1465734   1465690   1465644   1465587  
  7660.000000   1465494   1465325   1465048   1464645   1464121  
  7650.000000   1463511   1462865   1462255   1461756   1461446  
  7640.000000   1461383   1461593   1462047   1462652   1463261  
  7630.000000   1463698   1463814   1463521   1462845   1461902  
  7620.000000   1460889   1460012   1459439   1459259   1459472  
  7610.000000   1460006   1460759   1461627   1462536   1463432  
  7600.000000   1464278   1465024   1465616   1465987   1466099  
  7590.000000   1465943   1465578   1465104   1464657   1464357  
  7580.000000   1464294   1464497   1464942   1465566   1466293  
  7570.000000   1467054   1467809   1468548   1469289   1470062  
  7560.000000   1470899   1471816   1472816   1473875   1474962  
  7550.000000   1476026   1477032   1477945   1478753   1479455  
  7540.000000   1480068   1480612   1481113   1481600   1482113  
  7530.000000   1482694   1483392   1484245   1485275   1486469  
  7520.000000   1487789   1489165   1490527   1491814   1493005  
  7510.000000   1494110   1495181   1496270   1497439   1498720  
  7500.000000   1500134   1501673   1503323   1505060   1506862  
  7490.000000   1508702   1510559   1512410   1514251   1516086  
  7480.000000   1517940   1519833   1521781   1523759   1525718  
  7470.000000   1527574   1529255   1530714   1531977   1533129  
  7460.000000   1534309   1535664   1537313   1539304   1541604  
  7450.000000   1544113   1546707   1549265   1551709   1554006  
  7440.000000   1556174   1558256   1560300   1562341   1564401  
  7430.000000   1566482   1568582   1570694   1572815   1574947  
  7420.000000   1577092   1579256   1581439   1583637   1585834  
  7410.000000   1588007   1590124   1592157   1594092   1595944  
  7400.000000   1597752   1599580   1601494   1603538   1605719  
  7390.000000   1607996   1610295   1612529   1614625   1616549  
  7380.000000   1618309   1619947   1621525   1623098   1624703  
  7370.000000   1626352   1628046   1629776   1631538   1633329  
  7360.000000   1635146   1636986   1638841   1640707   1642591  
  7350.000000   1644510   1646496   1648573   1650754   1653018  
  7340.000000   1655323   1657606   1659808   1661893   1663857  
  7330.000000   1665730   1667560   1669406   1671307   1673292  
  7320.000000   1675353   1677473   1679612   1681736   1683796  
  7310.000000   1685761   1687595   1689281   1690804   1692165  
  7300.000000   1693366   1694413   1695309   1696062   1696687  
  7290.000000   1697214   1697683   1698148   1698656   1699249  
  7280.000000   1699939   1700723   1701582   1702501   1703475  
  7270.000000   1704514   1705639   1706863   1708178   1709542  
  7260.000000   1710897   1712169   1713316   1714319   1715222  
  7250.000000   1716090   1717020   1718082   1719330   1720767  
  7240.000000   1722376   1724112   1725946   1727849   1729819  
  7230.000000   1731845   1733931   1736058   1738214   1740374  
  7220.000000   1742539   1744705   1746908   1749171   1751544  
  7210.000000   1754049   1756717   1759538   1762511   1765601  
  7200.000000   1768791   1772049   1775378   1778775   1782271  
  7190.000000   1785877   1789619   1793485   1797465   1801512  
  7180.000000   1805602   1809703   1813828   1817990   1822232  
  7170.000000   1826566   1831003   1835502   1840031   1844532  
  7160.000000   1848999   1853443   1857929   1862526   1867318  
  7150.000000   1872359   1877689   1883300   1889176   1895254  
  7140.000000   1901473   1907732   1913940   1919989   1925820  
  7130.000000   1931398   1936781   1942065   1947421   1953008  
  7120.000000   1958969   1965352   1972137   1979212   1986442  
  7110.000000   1993691   2000878   2007969   2014991   2021982  
  7100.000000   2028996   2036050   2043156   2050288   2057426  
  7090.000000   2064535   2071597   2078590   2085506   2092346  
  7080.000000   2099133   2105910   2112734   2119671   2126770  
  7070.000000   2134050   2141493   2149038   2156603   2164100  
  7060.000000   2171453   2178617   2185580   2192365   2199021  
  7050.000000   2205621   2212240   2218944   2225768   2232710  
  7040.000000   2239721   2246728   2253641   2260400   2266973  
  7030.000000   2273381   2279670   2285900   2292101   2298273  
  7020.000000   2304371   2310345   2316145   2321774   2327270  
  7010.000000   2332718   2338195   2343762   2349418   2355120  
  7000.000000   2360768   2366264   2371510   2376458   2381090  
  6990.000000   2385440   2389558   2393527   2397412   2401294  
  6980.000000   2405214   2409214   2413283   2417409   2421534  
  6970.000000   2425616   2429593   2433440   2437125   2440651  
  6960.000000   2444011   2447216   2450260   2453155   2455902  
  6950.000000   2458521   2461023   2463431   2465750   2467989  
  6940.000000   2470139   2472209   2474202   2476149   2478075  
  6930.000000   2480019   2481994   2484016   2486067   2488135  
  6920.000000   2490189   2492215   2494188   2496101   2497935  
  6910.000000   2499678   2501316   2502845   2504260   2505568  
  6900.000000   2506775   2507885   2508897   2509813   2510639  
  6890.000000   2511399   2512123   2512853   2513622   2514449  
  6880.000000   2515331   2516257   2517212   2518199   2519233  
  6870.000000   2520347   2521559   2522870   2524245   2525626  
  6860.000000   2526945   2528159   2529257   2530264   2531223  
  6850.000000   2532169   2533108   2534010   2534821   2535492  
  6840.000000   2536003   2536376   2536667   2536947   2537274  
  6830.000000   2537678   2538154   2538686   2539251   2539846  
  6820.000000   2540480   2541168   2541909   2542687   2543460  
  6810.000000   2544183   2544818   2545356   2545805   2546191  
  6800.000000   2546530   2546829   2547071   2547233   2547293  
  6790.000000   2547249   2547107   2546892   2546615   2546291  
  6780.000000   2545919   2545510   2545079   2544662   2544293  
  6770.000000   2543999   2543769   2543567   2543325   2542981  
  6760.000000   2542495   2541868   2541142   2540380   2539640  
  6750.000000   2538956   2538324   2537722   2537117   2536498  
  6740.000000   2535871   2535266   2534710   2534219   2533776  
  6730.000000   2533346   2532877   2532325   2531664   2530890  
  6720.000000   2530017   2529068   2528066   2527036   2525997  
  6710.000000   2524971   2523978   2523035   2522141   2521287  
  6700.000000   2520439   2519565   2518629   2517616   2516527  
  6690.000000   2515383   2514208   2513031   2511865   2510716  
  6680.000000   2509573   2508426   2507254   2506049   2504801  
  6670.000000   2503517   2502211   2500915   2499654   2498460  
  6660.000000   2497338   2496272   2495212   2494098   2492863  
  6650.000000   2491465   2489894   2488173   2486348   2484470  
  6640.000000   2482573   2480676   2478774   2476868   2474961  
  6630.000000   2473076   2471242   2469486   2467813   2466207  
  6620.000000   2464625   2463025   2461374   2459666   2457919  
  6610.000000   2456167   2454441   2452752   2451087   2449417  
  6600.000000   2447704   2445923   2444061   2442127   2440138  
  6590.000000   2438115   2436078   2434049   2432049   2430104  
  6580.000000   2428238   2426469   2424799   2423210   2421663  
  6570.000000   2420114   2418527   2416882   2415192   2413492  
  6560.000000   2411831   2410252   2408783   2407418   2406129  
  6550.000000   2404861   2403564   2402192   2400732   2399196  
  6540.000000   2397631   2396091   2394631   2393283   2392047  
  6530.000000   2390893   2389777   2388657   2387517   2386365  
  6520.000000   2385238   2384171   2383185   2382267   2381374  
  6510.000000   2380442   2379422   2378291   2377068   2375806  
  6500.000000   2374567   2373402   2372325   2371319   2370346  
  6490.000000   2369370   2368377   2367381   2366418   2365522  
  6480.000000   2364710   2363967   2363250   2362499   2361658  
  6470.000000   2360695   2359602   2358400   2357127   2355825  
  6460.000000   2354539   2353306   2352153   2351099   2350144  
  6450.000000   2349274   2348456   2347651   2346819   2345935  
  6440.000000   2344991   2343998   2342977   2341950   2340930  
  6430.000000   2339920   2338917   2337917   2336920   2335932  
  6420.000000   2334956   2333992   2333034   2332078   2331125  
  6410.000000   2330188   2329289   2328452   2327686   2326980  
  6400.000000   2326304   2325617   2324894   2324134   2323372  
  6390.000000   2322657   2322039   2321538   2321137   2320785  
  6380.000000   2320420   2319992   2319485   2318917   2318330  
  6370.000000   2317760   2317224   2316705   2316172   2315596  
  6360.000000   2314972   2314325   2313702   2313149   2312688  
  6350.000000   2312305   2311956   2311586   2311145   2310611  
  6340.000000   2309982   2309278   2308516   2307712   2306867  
  6330.000000   2305989   2305085   2304175   2303277   2302405  
  6320.000000   2301549   2300685   2299773   2298791   2297734  
  6310.000000   2296635   2295534   2294480   2293484   2292529  
  6300.000000   2291553   2290496   2289300   2287951   2286465  
  6290.000000   2284893   2283281   2281669   2280059   2278440  
  6280.000000   2276778   2275050   2273236   2271339   2269362  
  6270.000000   2267323   2265229   2263101   2260952   2258810  
  6260.000000   2256692   2254615   2252576   2250560   2248533  
  6250.000000   2246472   2244359   2242199   2240008   2237812  
  6240.000000   2235625   2233453   2231286   2229114   2226932  
  6230.000000   2224745   2222564   2220395   2218229   2216040  
  6220.000000   2213792   2211458   2209038   2206566   2204105  
  6210.000000   2201733   2199509   2197454   2195544   2193713  
  6200.000000   2191883   2189985   2187984   2185883   2183724  
  6190.000000   2181558   2179437   2177389   2175419   2173507  
  6180.000000   2171626   2169750   2167861   2165961   2164063  
  6170.000000   2162186   2160346   2158548   2156783   2155023  
  6160.000000   2153239   2151403   2149505   2147558   2145596  
  6150.000000   2143664   2141804   2140035   2138354   2136730  
  6140.000000   2135128   2133511   2131868   2130204   2128548  
  6130.000000   2126928   2125369   2123874   2122437   2121035  
  6120.000000   2119656   2118286   2116932   2115600   2114306  
  6110.000000   2113055   2111855   2110708   2109619   2108592  
  6100.000000   2107635   2106750   2105937   2105184   2104482  
  6090.000000   2103813   2103173   2102554   2101961   2101390  
  6080.000000   2100848   2100332   2099852   2099417   2099050  
  6070.000000   2098768   2098590   2098508   2098509   2098552  
  6060.000000   2098608   2098646   2098669   2098694   2098769  
  6050.000000   2098933   2099229   2099665   2100241   2100930  
  6040.000000   2101711   2102554   2103451   2104392   2105387  
  6030.000000   2106435   2107549   2108731   2109994   2111339  
  6020.000000   2112775   2114290   2115873   2117493   2119128  
  6010.000000   2120748   2122341   2123898   2125425   2126922  
  6000.000000   2128395   2129840   2131263   2132668   2134081  
  5990.000000   2135529   2137052   2138674   2140412   2142255  
  5980.000000   2144182   2146161   2148167   2150180   2152201  
  5970.000000   2154232   2156287   2158372   2160500   2162677  
  5960.000000   2164920   2167236   2169641   2172128   2174684  
  5950.000000   2177272   2179856   2182391   2184854   2187238  
  5940.000000   2189558   2191843   2194126   2196435   2198788  
  5930.000000   2201194   2203654   2206166   2208721   2211311  
  5920.000000   2213916   2216511   2219068   2221563   2223981  
  5910.000000   2226315   2228568   2230743   2232842   2234861  
  5900.000000   2236801   2238669   2240487   2242297   2244147  
  5890.000000   2246082   2248130   2250294   2252549   2254853  
  5880.000000   2257162   2259439   2261665   2263836   2265961  
  5870.000000   2268043   2270092   2272100   2274069   2275994  
  5860.000000   2277889   2279764   2281651   2283578   2285584  
  5850.000000   2287701   2289965   2292396   2295006   2297780  
  5840.000000   2300692   2303692   2306735   2309777   2312795  
  5830.000000   2315787   2318764   2321746   2324739   2327739  
  5820.000000   2330718   2333642   2336466   2339159   2341688  
  5810.000000   2344046   2346213   2348198   2349990   2351614  
  5800.000000   2353076   2354421   2355662   2356840   2357943  
  5790.000000   2358973   2359882   2360645   2361201   2361530  
  5780.000000   2361588   2361367   2360841   2360015   2358892  
  5770.000000   2357513   2355934   2354244   2352530   2350886  
  5760.000000   2349369   2348015   2346822   2345779   2344863  
  5750.000000   2344062   2343368   2342779   2342286   2341869  
  5740.000000   2341509   2341176   2340864   2340569   2340313  
  5730.000000   2340112   2339989   2339938   2339957   2340022  
  5720.000000   2340124   2340256   2340434   2340669   2340981  
  5710.000000   2341370   2341831   2342342   2342884   2343440  
  5700.000000   2344010   2344594   2345200   2345834   2346493  
  5690.000000   2347173   2347868   2348574   2349285   2349997  
  5680.000000   2350692   2351348   2351930   2352409   2352759  
  5670.000000   2352970   2353040   2352986   2352814   2352543  
  5660.000000   2352174   2351722   2351193   2350611   2349992  
  5650.000000   2349362   2348728   2348101   2347474   2346847  
  5640.000000   2346223   2345613   2345031   2344492   2343996  
  5630.000000   2343536   2343094   2342653   2342207   2341761  
  5620.000000   2341329   2340929   2340567   2340239   2339925  
  5610.000000   2339604   2339257   2338879   2338475   2338057  
  5600.000000   2337633   2337208   2336773   2336323   2335850  
  5590.000000   2335359   2334856   2334350   2333836   2333301  
  5580.000000   2332718   2332060   2331307   2330458   2329524  
  5570.000000   2328529   2327497   2326446   2325385   2324320  
  5560.000000   2323255   2322200   2321162   2320151   2319166  
  5550.000000   2318195   2317220   2316228   2315212   2314182  
  5540.000000   2313161   2312175   2311240   2310362   2309529  
  5530.000000   2308721   2307919   2307112   2306297   2305479  
  5520.000000   2304662   2303846   2303024   2302190   2301337  
  5510.000000   2300469   2299589   2298703   2297811   2296907  
  5500.000000   2295977   2295019   2294032   2293033   2292041  
  5490.000000   2291075   2290132   2289196   2288228   2287190  
  5480.000000   2286045   2284781   2283399   2281924   2280380  
  5470.000000   2278794   2277180   2275551   2273908   2272259  
  5460.000000   2270597   2268922   2267215   2265461   2263641  
  5450.000000   2261751   2259802   2257824   2255854   2253926  
  5440.000000   2252060   2250253   2248495   2246765   2245061  
  5430.000000   2243385   2241758   2240189   2238690   2237248  
  5420.000000   2235864   2234530   2233273   2232119   2231121  
  5410.000000   2230298   2229666   2229188   2228833   2228549  
  5400.000000   2228326   2228156   2228080   2228122   2228325  
  5390.000000   2228687   2229215   2229876   2230674   2231597  
  5380.000000   2232675   2233912   2235338   2236935   2238711  
  5370.000000   2240629   2242702   2244903   2247271   2249788  
  5360.000000   2252497   2255372   2258460   2261744   2265304  
  5350.000000   2269157   2273408   2278071   2283223   2288826  
  5340.000000   2294917   2301432   2308421   2315844   2323779  
  5330.000000   2332184   2341120   2350512   2360402   2370714  
  5320.000000   2381533   2392840   2404780   2417364   2430737  
  5310.000000   2444864   2459834   2475558   2492095   2509364  
  5300.000000   2527453   2546324   2566103   2586776   2608458  
  5290.000000   2631097   2654732   2679222   2704505   2730390  
  5280.000000   2756810   2783653   2810975   2838808   2867297  
  5270.000000   2896490   2926412   2956932   2987847   3018893  
  5260.000000   3049832   3080524   3110910   3141048   3170957  
  5250.000000   3200675   3230077   3259047   3287330   3314819  
  5240.000000   3341350   3366998   3391756   3415806   3439144  
  5230.000000   3461880   3483888   3505161   3525495   3544882  
  5220.000000   3563184   3580506   3596828   3612347   3627088  
  5210.000000   3641228   3654715   3667615   3679764   3691155  
  5200.000000   3701623   3711223   3719890   3727774   3734868  
  5190.000000   3741318   3747079   3752231   3756687   3760506  
  5180.000000   3763620   3766122   3767974   3769272   3769966  
  5170.000000   3770123   3769687   3768729   3767226   3765277  
  5160.000000   3762879   3760122   3756976   3753493   3749626  
  5150.000000   3745429   3740887   3736082   3731027   3725795  
  5140.000000   3720376   3714804   3709048   3703129   3697027  
  5130.000000   3690779   3684380   3677860   3671206   3664433  
  5120.000000   3657530   3650527   3643441   3636328   3629220  
  5110.000000   3622157   3615139   3608165   3601205   3594243  
  5100.000000   3587257   3580254   3573237   3566223   3559218  
  5090.000000   3552235   3545274   3538343   3531443   3524582  
  5080.000000   3517747   3510929   3504094   3497217   3490263  
  5070.000000   3483223   3476091   3468887   3461626   3454329  
  5060.000000   3446996   3439624   3432191   3424691   3417112  
  5050.000000   3409468   3401771   3394049   3386318   3378595  
  5040.000000   3370879   3363170   3355456   3347728   3339976  
  5030.000000   3332196   3324388   3316560   3308726   3300910  
  5020.000000   3293139   3285440   3277839   3270346   3262973  
  5010.000000   3255709   3248558   3241504   3234556   3227706  
  5000.000000   3220975   3214360   3207890   3201564   3195421  
  4990.000000   3189465   3183745   3178267   3173077   3168170  
  4980.000000   3163578   3159276   3155287   3151580   3148184  
  4970.000000   3145075   3142288   3139799   3137640   3135770  
  4960.000000   3134212   3132917   3131909   3131152   3130688  
  4950.000000   3130497   3130634   3131083   3131899   3133058  
  4940.000000   3134601   3136492   3138760   3141357   3144300  
  4930.000000   3147539   3151089   3154903   3159004   3163354  
  4920.000000   3167979   3172845   3177972   3183326   3188929  
  4910.000000   3194755   3200839   3207168   3213775   3220644  
  4900.000000   3227778   3235135   3242688   3250382   3258190  
  4890.000000   3266073   3274023   3282024   3290070   3298145  
  4880.000000   3306228   3314293   3322305   3330234   3338042  
  4870.000000   3345702   3353173   3360434   3367452   3374225  
  4860.000000   3380748   3387048   3393139   3399062   3404826  
  4850.000000   3410458   3415952   3421327   3426575   3431726  
  4840.000000   3436780   3441768   3446685   3451546   3456327  
  4830.000000   3461030   3465625   3470116   3474479   3478719  
  4820.000000   3482811   3486751   3490511   3494091   3497475  
  4810.000000   3500684   3503726   3506634   3509418   3512105  
  4800.000000   3514690   3517189   3519597   3521934   3524208  
  4790.000000   3526446   3528653   3530846   3533013   3535150  
  4780.000000   3537230   3539247   3541178   3543022   3544768  
  4770.000000   3546424   3547983   3549459   3550848   3552164  
  4760.000000   3553399   3554561   3555627   3556594   3557428  
  4750.000000   3558121   3558644   3559004   3559186   3559207  
  4740.000000   3559061   3558763   3558303   3557693   3556921  
  4730.000000   3555999   3554917   3553694   3552326   3550834  
  4720.000000   3549228   3547538   3545784   3544002   3542213  
  4710.000000   3540438   3538677   3536929   3535174   3533406  
  4700.000000   3531615   3529810   3528007   3526228   3524493  
  4690.000000   3522815   3521192   3519613   3518060   3516510  
  4680.000000   3514944   3513344   3511698   3509992   3508225  
  4670.000000   3506390   3504501   3502574   3500648   3498756  
  4660.000000   3496947   3495250   3493699   3492302   3491069  
  4650.000000   3489988   3489059   3488271   3487628   3487126  
  4640.000000   3486774   3486568   3486515   3486601   3486819  
  4630.000000   3487139   3487536   3487966   3488401   3488802  
  4620.000000   3489155   3489449   3489695   3489901   3490087  
  4610.000000   3490259   3490424   3490578   3490721   3490854  
  4600.000000   3490987   3491139   3491330   3491582   3491909  
  4590.000000   3492317   3492797   3493337   3493911   3494494  
  4580.000000   3495055   3495566   3496001   3496344   3496588  
  4570.000000   3496738   3496804   3496806   3496754   3496660  
  4560.000000   3496524   3496347   3496128   3495876   3495599  
  4550.000000   3495311   3495021   3494726   3494418   3494074  
  4540.000000   3493682   3493226   3492722   3492185   3491656  
  4530.000000   3491162   3490749   3490429   3490238   3490176  
  4520.000000   3490285   3490563   3491063   3491778   3492760  
  4510.000000   3493990   3495521   3497336   3499507   3502038  
  4500.000000   3505025   3508483   3512511   3517117   3522389  
  4490.000000   3528322   3534993   3542380   3550529   3559375  
  4480.000000   3568902   3578988   3589573   3600519   3611781  
  4470.000000   3623268   3634982   3646885   3658998   3671287  
  4460.000000   3683749   3696325   3708975   3721627   3734226  
  4450.000000   3746712   3759042   3771183   3783116   3794850  
  4440.000000   3806396   3817802   3829092   3840325   3851502  
  4430.000000   3862657   3873743   3884762   3895633   3906347  
  4420.000000   3916814   3927028   3936899   3946423   3955495  
  4410.000000   3964097   3972110   3979503   3986162   3992073  
  4400.000000   3997163   4001463   4004961   4007736   4009822  
  4390.000000   4011323   4012293   4012841   4013034   4012987  
  4380.000000   4012785   4012556   4012403   4012452   4012804  
  4370.000000   4013552   4014765   4016482   4018728   4021491  
  4360.000000   4024757   4028479   4032614   4037086   4041826  
  4350.000000   4046747   4051773   4056846   4061931   4067036  
  4340.000000   4072181   4077404   4082705   4088040   4093279  
  4330.000000   4098231   4102641   4106272   4108923   4110520  
  4320.000000   4111103   4110871   4110085   4109076   4108113  
  4310.000000   4107427   4107110   4107201   4107623   4108304  
  4300.000000   4109124   4110009   4110871   4111663   4112329  
  4290.000000   4112841   4113173   4113329   4113333   4113235  
  4280.000000   4113090   4112969   4112912   4112965   4113123  
  4270.000000   4113392   4113730   4114103   4114430   4114630  
  4260.000000   4114581   4114169   4113275   4111827   4109796  
  4250.000000   4107228   4104222   4100935   4097527   4094167  
  4240.000000   4090971   4088030   4085359   4082953   4080753  
  4230.000000   4078701   4076717   4074730   4072671   4070485  
  4220.000000   4068141   4065622   4062957   4060187   4057396  
  4210.000000   4054665   4052088   4049725   4047624   4045778  
  4200.000000   4044169   4042735   4041427   4040177   4038964  
  4190.000000   4037750   4036567   4035416   4034365   4033432  
  4180.000000   4032696   4032171   4031933   4031992   4032427  
  4170.000000   4033249   4034545   4036320   4038647   4041503  
  4160.000000   4044928   4048857   4053307   4058198   4063554  
  4150.000000   4069315   4075530   4082159   4089267   4096817  
  4140.000000   4104877   4113411   4122487   4132070   4142219  
  4130.000000   4152887   4164107   4175808   4188002   4200617  
  4120.000000   4213675   4227132   4241030   4255347   4270123  
  4110.000000   4285319   4300943   4316927   4333247   4349823  
  4100.000000   4366624   4383587   4400697   4417923   4435272  
  4090.000000   4452742   4470347   4488089   4505968   4523978  
  4080.000000   4542097   4560316   4578600   4596939   4615280  
  4070.000000   4633604   4651837   4669957   4687887   4705629  
  4060.000000   4723121   4740388   4757355   4774028   4790289  
  4050.000000   4806120   4821385   4836093   4850135   4863559  
  4040.000000   4876266   4888302   4899544   4910031   4919644  
  4030.000000   4928454   4936377   4943505   4949763   4955206  
  4020.000000   4959696   4963271   4965858   4967521   4968184  
  4010.000000   4968002   4967058   4965411   4962858   4959524  
  4000.000000   4955802  
##END= 
