##TITLE= Sample 005 By ssteindl date Montag, November 26 2018
##JCAMP-DX= 4.24
##DATA TYPE= INFRARED SPECTRUM
##ORIGIN= Exported PE Spectrum Data File
##OWNER= Sandra Steindl
##DATE= 18/11/26
##TIME= 12:55:13.00
##SPECTROMETER/DATA SYSTEM= PERKIN-ELMER Frontier FT-IR/NIR IR
##INSTRUMENT PARAMETERS=
  APODIZATION=stark
  DETECTOR=INGAAS
##RESOLUTION= 16.000000
##DELTAX= -2.000000
##XUNITS= 1/CM
##YUNITS= A
##XFACTOR= 1.00
##YFACTOR= 0.00000011920928955078
##FIRSTX= 10000.00
##LASTX= 4000.00
##NPOINTS= 3001
##FIRSTY= 0.256838
##MAXY= 0.643505
##MINY= 0.212919
##XYDATA= (X++(Y..Y))
 10000.000000   2154510   2154319   2153634   2151961   2149554  
  9990.000000   2146891   2144033   2140726   2136953   2133025  
  9980.000000   2129259   2125930   2123296   2121620   2121043  
  9970.000000   2121625   2123342   2126003   2129210   2132316  
  9960.000000   2134585   2135295   2134036   2130809   2126144  
  9950.000000   2120924   2116196   2112848   2111408   2111957  
  9940.000000   2114147   2117391   2120961   2124220   2126643  
  9930.000000   2127978   2128167   2127402   2126006   2124353  
  9920.000000   2122804   2121529   2120559   2119649   2118461  
  9910.000000   2116565   2113638   2109553   2104445   2098744  
  9900.000000   2093098   2088308   2085172   2084361   2086202  
  9890.000000   2090594   2096887   2104044   2110817   2116106  
  9880.000000   2119261   2120240   2119607   2118234   2116971  
  9870.000000   2116251   2115952   2115469   2114064   2111263  
  9860.000000   2107119   2102272   2097631   2094053   2091913  
  9850.000000   2091017   2090694   2090121   2088699   2086247  
  9840.000000   2083028   2079534   2076228   2073384   2071071  
  9830.000000   2069327   2068325   2068425   2070056   2073417  
  9820.000000   2078254   2083734   2088657   2091792   2092342  
  9810.000000   2090186   2085971   2080821   2075963   2072312  
  9800.000000   2070243   2069640   2070074   2071115   2072447  
  9790.000000   2073921   2075425   2076776   2077669   2077762  
  9780.000000   2076812   2074792   2071952   2068700   2065528  
  9770.000000   2062826   2060877   2059828   2059736   2060597  
  9760.000000   2062293   2064572   2067000   2069027   2070160  
  9750.000000   2070125   2069048   2067405   2065865   2064999  
  9740.000000   2065020   2065729   2066618   2067208   2067296  
  9730.000000   2067126   2067242   2068187   2070160   2072792  
  9720.000000   2075246   2076490   2075734   2072749   2067937  
  9710.000000   2062229   2056684   2052255   2049492   2048606  
  9700.000000   2049515   2052004   2055728   2060143   2064402  
  9690.000000   2067377   2067880   2065041   2058758   2049839  
  9680.000000   2039978   2031168   2025186   2022901   2024098  
  9670.000000   2027564   2031576   2034575   2035625   2034754  
  9660.000000   2032752   2030878   2030307   2031794   2035463  
  9650.000000   2040831   2047011   2052892   2057444   2059831  
  9640.000000   2059639   2056907   2052172   2046350   2040509  
  9630.000000   2035601   2032163   2030229   2029321   2028781  
  9620.000000   2027990   2026757   2025271   2024104   2023789  
  9610.000000   2024615   2026362   2028370   2029747   2029653  
  9600.000000   2027636   2023689   2018316   2012235   2006256  
  9590.000000   2000978   1996774   1993720   1991681   1990351  
  9580.000000   1989348   1988327   1987081   1985679   1984454  
  9570.000000   1983973   1984831   1987436   1991821   1997492  
  9560.000000   2003574   2008943   2012659   2014160   2013497  
  9550.000000   2011191   2008066   2004913   2002305   2000510  
  9540.000000   1999561   1999391   1999903   2001069   2002795  
  9530.000000   2004966   2007254   2009304   2010714   2011299  
  9520.000000   2011117   2010481   2009824   2009427   2009312  
  9510.000000   2009099   2008212   2006024   2002185   1996745  
  9500.000000   1990214   1983455   1977431   1973021   1970739  
  9490.000000   1970749   1972780   1976344   1980802   1985547  
  9480.000000   1990064   1993944   1996916   1998765   1999401  
  9470.000000   1998754   1996885   1993893   1990045   1985711  
  9460.000000   1981389   1977644   1974966   1973725   1973985  
  9450.000000   1975592   1978106   1981008   1983729   1985822  
  9440.000000   1986979   1987068   1986106   1984223   1981643  
  9430.000000   1978648   1975560   1972690   1970283   1968473  
  9420.000000   1967245   1966444   1965812   1965050   1963903  
  9410.000000   1962197   1959900   1957081   1953922   1950642  
  9400.000000   1947489   1944700   1942509   1941127   1940744  
  9390.000000   1941474   1943327   1946154   1949656   1953405  
  9380.000000   1956893   1959627   1961198   1961401   1960295  
  9370.000000   1958245   1955866   1953850   1952791   1952964  
  9360.000000   1954237   1956035   1957504   1957726   1956051  
  9350.000000   1952309   1946909   1940722   1934813   1930176  
  9340.000000   1927452   1926865   1928195   1930967   1934587  
  9330.000000   1938547   1942453   1946045   1949126   1951524  
  9320.000000   1953089   1953675   1953207   1951651   1949130  
  9310.000000   1945840   1942139   1938427   1935136   1932632  
  9300.000000   1931091   1930491   1930528   1930804   1930893  
  9290.000000   1930622   1930062   1929607   1929737   1930878  
  9280.000000   1933129   1936156   1939252   1941539   1942341  
  9270.000000   1941346   1938706   1934866   1930355   1925589  
  9260.000000   1920782   1916020   1911420   1907263   1904020  
  9250.000000   1902216   1902148   1903661   1906044   1908263  
  9240.000000   1909336   1908701   1906476   1903396   1900590  
  9230.000000   1899062   1899335   1901224   1904002   1906725  
  9220.000000   1908642   1909459   1909373   1908905   1908598  
  9210.000000   1908759   1909360   1910098   1910614   1910617  
  9200.000000   1910017   1908851   1907235   1905280   1903073  
  9190.000000   1900764   1898608   1897029   1896479   1897302  
  9180.000000   1899502   1902716   1906237   1909268   1911165  
  9170.000000   1911679   1911038   1909782   1908537   1907699  
  9160.000000   1907297   1906990   1906232   1904569   1901845  
  9150.000000   1898337   1894652   1891584   1889808   1889682  
  9140.000000   1891058   1893371   1895763   1897335   1897387  
  9130.000000   1895635   1892331   1888151   1884003   1880745  
  9120.000000   1878973   1878800   1879874   1881489   1882906  
  9110.000000   1883557   1883205   1881999   1880347   1878762  
  9100.000000   1877648   1877236   1877596   1878664   1880327  
  9090.000000   1882395   1884637   1886696   1888147   1888559  
  9080.000000   1887685   1885582   1882657   1879578   1877052  
  9070.000000   1875619   1875440   1876319   1877791   1879404  
  9060.000000   1880884   1882217   1883534   1884942   1886353  
  9050.000000   1887391   1887512   1886221   1883378   1879284  
  9040.000000   1874651   1870382   1867299   1865880   1866117  
  9030.000000   1867622   1869797   1872075   1874015   1875381  
  9020.000000   1876088   1876138   1875569   1874483   1873102  
  9010.000000   1871749   1870794   1870530   1871061   1872218  
  9000.000000   1873586   1874666   1875064   1874636   1873510  
  8990.000000   1871989   1870411   1868957   1867612   1866191  
  8980.000000   1864513   1862519   1860348   1858338   1856881  
  8970.000000   1856318   1856765   1858145   1860189   1862570  
  8960.000000   1864949   1867033   1868610   1869484   1869543  
  8950.000000   1868709   1867058   1864757   1862081   1859322  
  8940.000000   1856723   1854446   1852542   1851072   1850132  
  8930.000000   1849930   1850676   1852511   1855340   1858765  
  8920.000000   1862119   1864625   1865672   1864973   1862707  
  8910.000000   1859418   1855906   1852926   1851029   1850414  
  8900.000000   1850991   1852436   1854334   1856269   1857883  
  8890.000000   1858938   1859314   1859080   1858480   1857941  
  8880.000000   1857965   1858985   1861199   1864457   1868256  
  8870.000000   1871891   1874645   1876043   1875957   1874659  
  8860.000000   1872665   1870553   1868756   1867437   1866512  
  8850.000000   1865702   1864698   1863252   1861256   1858748  
  8840.000000   1855879   1852908   1850147   1847962   1846695  
  8830.000000   1846618   1847842   1850235   1853428   1856864  
  8820.000000   1859984   1862347   1863780   1864366   1864412  
  8810.000000   1864278   1864262   1864485   1864920   1865436  
  8800.000000   1865930   1866372   1866827   1867388   1868092  
  8790.000000   1868865   1869515   1869813   1869583   1868806  
  8780.000000   1867661   1866481   1865659   1865522   1866221  
  8770.000000   1867717   1869795   1872169   1874548   1876721  
  8760.000000   1878574   1880074   1881226   1882028   1882461  
  8750.000000   1882497   1882150   1881484   1880647   1879819  
  8740.000000   1879184   1878859   1878855   1879082   1879363  
  8730.000000   1879543   1879524   1879355   1879193   1879285  
  8720.000000   1879853   1881028   1882771   1884870   1887003  
  8710.000000   1888813   1890026   1890485   1890200   1889286  
  8700.000000   1887940   1886366   1884758   1883282   1882081  
  8690.000000   1881279   1880960   1881161   1881836   1882874  
  8680.000000   1884103   1885345   1886464   1887378   1888084  
  8670.000000   1888590   1888925   1889076   1889046   1888841  
  8660.000000   1888548   1888315   1888349   1888849   1889930  
  8650.000000   1891588   1893671   1895952   1898198   1900243  
  8640.000000   1902028   1903573   1904950   1906183   1907243  
  8630.000000   1908015   1908401   1908338   1907894   1907239  
  8620.000000   1906638   1906366   1906630   1907536   1909069  
  8610.000000   1911140   1913605   1916324   1919157   1921975  
  8600.000000   1924642   1927020   1928992   1930496   1931552  
  8590.000000   1932267   1932814   1933382   1934120   1935098  
  8580.000000   1936284   1937564   1938769   1939742   1940358  
  8570.000000   1940569   1940379   1939863   1939129   1938326  
  8560.000000   1937602   1937107   1936960   1937232   1937927  
  8550.000000   1938988   1940308   1941744   1943143   1944363  
  8540.000000   1945305   1945911   1946191   1946204   1946080  
  8530.000000   1945988   1946118   1946639   1947659   1949187  
  8520.000000   1951111   1953233   1955308   1957116   1958515  
  8510.000000   1959478   1960086   1960489   1960840   1961237  
  8500.000000   1961702   1962177   1962581   1962835   1962930  
  8490.000000   1962919   1962912   1963029   1963351   1963902  
  8480.000000   1964644   1965513   1966457   1967469   1968602  
  8470.000000   1969949   1971593   1973571   1975835   1978263  
  8460.000000   1980676   1982899   1984795   1986307   1987449  
  8450.000000   1988297   1988952   1989508   1990026   1990535  
  8440.000000   1991026   1991470   1991811   1991994   1991954  
  8430.000000   1991663   1991121   1990403   1989632   1988986  
  8420.000000   1988630   1988685   1989165   1989984   1990967  
  8410.000000   1991905   1992609   1992973   1992985   1992711  
  8400.000000   1992261   1991744   1991252   1990839   1990540  
  8390.000000   1990370   1990346   1990462   1990681   1990927  
  8380.000000   1991100   1991115   1990937   1990615   1990272  
  8370.000000   1990076   1990168   1990608   1991332   1992184  
  8360.000000   1992964   1993505   1993726   1993645   1993346  
  8350.000000   1992919   1992407   1991787   1990995   1989988  
  8340.000000   1988796   1987552   1986451   1985694   1985379  
  8330.000000   1985482   1985822   1986159   1986272   1986047  
  8320.000000   1985517   1984819   1984126   1983531   1983000  
  8310.000000   1982381   1981480   1980169   1978476   1976606  
  8300.000000   1974899   1973715   1973296   1973670   1974625  
  8290.000000   1975784   1976734   1977155   1976913   1976096  
  8280.000000   1974969   1973878   1973131   1972919   1973272  
  8270.000000   1974084   1975154   1976244   1977120   1977601  
  8260.000000   1977571   1977003   1975938   1974490   1972828  
  8250.000000   1971138   1969585   1968260   1967154   1966178  
  8240.000000   1965192   1964087   1962806   1961413   1960040  
  8230.000000   1958881   1958088   1957732   1957755   1957989  
  8220.000000   1958208   1958187   1957770   1956875   1955515  
  8210.000000   1953755   1951697   1949460   1947169   1944958  
  8200.000000   1942963   1941311   1940077   1939275   1938827  
  8190.000000   1938594   1938401   1938095   1937579   1936817  
  8180.000000   1935829   1934650   1933305   1931794   1930113  
  8170.000000   1928277   1926369   1924535   1922973   1921859  
  8160.000000   1921288   1921214   1921450   1921711   1921687  
  8150.000000   1921138   1919952   1918190   1916060   1913875  
  8140.000000   1911962   1910597   1909929   1909948   1910479  
  8130.000000   1911211   1911766   1911783   1911006   1909350  
  8120.000000   1906927   1904019   1901006   1898252   1896016  
  8110.000000   1894389   1893305   1892585   1892030   1891484  
  8100.000000   1890876   1890217   1889546   1888899   1888260  
  8090.000000   1887581   1886819   1885973   1885125   1884399  
  8080.000000   1883931   1883776   1883883   1884069   1884084  
  8070.000000   1883673   1882672   1881046   1878913   1876496  
  8060.000000   1874064   1871878   1870130   1868942   1868346  
  8050.000000   1868315   1868755   1869530   1870455   1871332  
  8040.000000   1871967   1872208   1871979   1871287   1870228  
  8030.000000   1868937   1867572   1866257   1865079   1864073  
  8020.000000   1863236   1862541   1861940   1861380   1860791  
  8010.000000   1860112   1859286   1858298   1857173   1855989  
  8000.000000   1854860   1853900   1853200   1852778   1852590  
  7990.000000   1852513   1852393   1852072   1851439   1850462  
  7980.000000   1849205   1847823   1846529   1845544   1845037  
  7970.000000   1845069   1845563   1846313   1847035   1847444  
  7960.000000   1847339   1846661   1845510   1844109   1842726  
  7950.000000   1841586   1840804   1840369   1840174   1840072  
  7940.000000   1839949   1839753   1839499   1839233   1838980  
  7930.000000   1838721   1838390   1837909   1837239   1836419  
  7920.000000   1835568   1834856   1834447   1834440   1834835  
  7910.000000   1835533   1836372   1837171   1837782   1838098  
  7900.000000   1838074   1837694   1836981   1835981   1834782  
  7890.000000   1833517   1832361   1831506   1831111   1831268  
  7880.000000   1831947   1833022   1834274   1835471   1836411  
  7870.000000   1836974   1837135   1836946   1836517   1835955  
  7860.000000   1835363   1834799   1834298   1833864   1833491  
  7850.000000   1833167   1832872   1832604   1832353   1832139  
  7840.000000   1831975   1831893   1831905   1832009   1832169  
  7830.000000   1832327   1832410   1832358   1832137   1831754  
  7820.000000   1831248   1830671   1830072   1829478   1828892  
  7810.000000   1828297   1827676   1827021   1826339   1825656  
  7800.000000   1824999   1824403   1823890   1823481   1823187  
  7790.000000   1823016   1822954   1822973   1823015   1823004  
  7780.000000   1822873   1822569   1822090   1821464   1820755  
  7770.000000   1820011   1819248   1818439   1817529   1816476  
  7760.000000   1815295   1814091   1813036   1812344   1812168  
  7750.000000   1812562   1813414   1814485   1815463   1816055  
  7740.000000   1816077   1815488   1814393   1812972   1811427  
  7730.000000   1809899   1808459   1807114   1805850   1804678  
  7720.000000   1803642   1802824   1802287   1802064   1802102  
  7710.000000   1802302   1802526   1802652   1802606   1802360  
  7700.000000   1801941   1801373   1800689   1799883   1798955  
  7690.000000   1797905   1796773   1795638   1794606   1793790  
  7680.000000   1793271   1793086   1793212   1793581   1794094  
  7670.000000   1794642   1795118   1795430   1795513   1795334  
  7660.000000   1794916   1794327   1793680   1793105   1792712  
  7650.000000   1792559   1792629   1792846   1793090   1793257  
  7640.000000   1793276   1793143   1792902   1792621   1792352  
  7630.000000   1792110   1791864   1791555   1791140   1790598  
  7620.000000   1789962   1789289   1788645   1788074   1787585  
  7610.000000   1787162   1786782   1786446   1786192   1786090  
  7600.000000   1786213   1786604   1787252   1788077   1788957  
  7590.000000   1789749   1790338   1790656   1790708   1790549  
  7580.000000   1790265   1789946   1789662   1789461   1789370  
  7570.000000   1789402   1789564   1789848   1790229   1790654  
  7560.000000   1791051   1791336   1791439   1791325   1791016  
  7550.000000   1790584   1790150   1789838   1789756   1789963  
  7540.000000   1790465   1791218   1792150   1793178   1794226  
  7530.000000   1795226   1796128   1796889   1797484   1797904  
  7520.000000   1798173   1798345   1798510   1798762   1799186  
  7510.000000   1799816   1800632   1801560   1802495   1803337  
  7500.000000   1804029   1804571   1805027   1805486   1806049  
  7490.000000   1806769   1807658   1808666   1809720   1810729  
  7480.000000   1811643   1812445   1813181   1813932   1814808  
  7470.000000   1815914   1817326   1819066   1821096   1823314  
  7460.000000   1825588   1827770   1829747   1831455   1832908  
  7450.000000   1834168   1835331   1836475   1837652   1838861  
  7440.000000   1840076   1841267   1842441   1843644   1844962  
  7430.000000   1846482   1848258   1850274   1852446   1854637  
  7420.000000   1856714   1858582   1860221   1861677   1863050  
  7410.000000   1864448   1865950   1867591   1869367   1871243  
  7400.000000   1873185   1875161   1877150   1879126   1881049  
  7390.000000   1882869   1884536   1886018   1887316   1888479  
  7380.000000   1889587   1890739   1892016   1893470   1895110  
  7370.000000   1896914   1898836   1900825   1902825   1904781  
  7360.000000   1906639   1908349   1909875   1911204   1912363  
  7350.000000   1913414   1914452   1915573   1916857   1918338  
  7340.000000   1920002   1921794   1923639   1925471   1927243  
  7330.000000   1928943   1930582   1932191   1933802   1935441  
  7320.000000   1937120   1938832   1940556   1942256   1943884  
  7310.000000   1945398   1946762   1947971   1949045   1950039  
  7300.000000   1951020   1952060   1953207   1954477   1955837  
  7290.000000   1957225   1958556   1959763   1960808   1961706  
  7280.000000   1962509   1963304   1964173   1965170   1966294  
  7270.000000   1967491   1968665   1969714   1970565   1971194  
  7260.000000   1971644   1971997   1972355   1972789   1973327  
  7250.000000   1973938   1974564   1975143   1975660   1976154  
  7240.000000   1976734   1977528   1978660   1980189   1982108  
  7230.000000   1984331   1986740   1989194   1991604   1993904  
  7220.000000   1996093   1998183   2000218   2002226   2004250  
  7210.000000   2006312   2008455   2010699   2013081   2015605  
  7200.000000   2018274   2021058   2023923   2026827   2029741  
  7190.000000   2032642   2035536   2038427   2041341   2044289  
  7180.000000   2047294   2050356   2053482   2056661   2059895  
  7170.000000   2063176   2066522   2069941   2073462   2077090  
  7160.000000   2080830   2084645   2088494   2092311   2096066  
  7150.000000   2099743   2103394   2107097   2110973   2115111  
  7140.000000   2119575   2124342   2129355   2134506   2139715  
  7130.000000   2144916   2150105   2155287   2160499   2165737  
  7120.000000   2171002   2176252   2181482   2186687   2191917  
  7110.000000   2197225   2202684   2208326   2214163   2220162  
  7100.000000   2226291   2232512   2238826   2245237   2251767  
  7090.000000   2258408   2265136   2271887   2278599   2285210  
  7080.000000   2291700   2298067   2304350   2310580   2316800  
  7070.000000   2323035   2329318   2335673   2342132   2348711  
  7060.000000   2355406   2362177   2368956   2375668   2382259  
  7050.000000   2388731   2395136   2401568   2408114   2414817  
  7040.000000   2421651   2428528   2435331   2441964   2448379  
  7030.000000   2454595   2460670   2466670   2472632   2478556  
  7020.000000   2484413   2490184   2495878   2501553   2507279  
  7010.000000   2513122   2519081   2525104   2531071   2536868  
  7000.000000   2542405   2547680   2552746   2557718   2562689  
  6990.000000   2567724   2572802   2577862   2582796   2587516  
  6980.000000   2591953   2596098   2599965   2603617   2607105  
  6970.000000   2610506   2613870   2617258   2620688   2624169  
  6960.000000   2627661   2631117   2634466   2637666   2640689  
  6950.000000   2643559   2646303   2648968   2651570   2654118  
  6940.000000   2656593   2658990   2661305   2663571   2665815  
  6930.000000   2668070   2670328   2672560   2674704   2676707  
  6920.000000   2678531   2680187   2681712   2683177   2684638  
  6910.000000   2686136   2687675   2689236   2690777   2692264  
  6900.000000   2693657   2694943   2696116   2697200   2698234  
  6890.000000   2699285   2700419   2701696   2703137   2704716  
  6880.000000   2706352   2707939   2709371   2710582   2711557  
  6870.000000   2712341   2713013   2713656   2714327   2715054  
  6860.000000   2715835   2716669   2717556   2718513   2719548  
  6850.000000   2720652   2721777   2722852   2723796   2724558  
  6840.000000   2725135   2725588   2726012   2726514   2727162  
  6830.000000   2727971   2728896   2729855   2730752   2731507  
  6820.000000   2732067   2732412   2732546   2732501   2732326  
  6810.000000   2732095   2731891   2731802   2731886   2732164  
  6800.000000   2732597   2733104   2733579   2733929   2734095  
  6790.000000   2734064   2733854   2733503   2733041   2732491  
  6780.000000   2731869   2731207   2730557   2729992   2729586  
  6770.000000   2729389   2729403   2729583   2729848   2730117  
  6760.000000   2730328   2730462   2730530   2730556   2730560  
  6750.000000   2730537   2730470   2730339   2730140   2729890  
  6740.000000   2729625   2729381   2729180   2729021   2728880  
  6730.000000   2728734   2728556   2728340   2728084   2727794  
  6720.000000   2727466   2727100   2726695   2726270   2725854  
  6710.000000   2725480   2725163   2724889   2724605   2724239  
  6700.000000   2723729   2723054   2722240   2721365   2720514  
  6690.000000   2719755   2719099   2718516   2717943   2717333  
  6680.000000   2716668   2715976   2715299   2714672   2714083  
  6670.000000   2713479   2712779   2711915   2710865   2709668  
  6660.000000   2708401   2707153   2705977   2704878   2703814  
  6650.000000   2702734   2701595   2700403   2699185   2697989  
  6640.000000   2696832   2695708   2694569   2693372   2692090  
  6630.000000   2690741   2689367   2688022   2686730   2685477  
  6620.000000   2684203   2682839   2681331   2679674   2677907  
  6610.000000   2676105   2674332   2672634   2671011   2669441  
  6600.000000   2667892   2666351   2664822   2663325   2661871  
  6590.000000   2660452   2659035   2657579   2656049   2654435  
  6580.000000   2652757   2651049   2649347   2647672   2646027  
  6570.000000   2644402   2642793   2641206   2639661   2638183  
  6560.000000   2636784   2635459   2634180   2632916   2631641  
  6550.000000   2630349   2629053   2627769   2626506   2625248  
  6540.000000   2623965   2622619   2621191   2619688   2618152  
  6530.000000   2616638   2615200   2613873   2612657   2611532  
  6520.000000   2610459   2609404   2608343   2607267   2606179  
  6510.000000   2605086   2604001   2602936   2601906   2600917  
  6500.000000   2599970   2599044   2598104   2597103   2596004  
  6490.000000   2594796   2593509   2592211   2590985   2589908  
  6480.000000   2589016   2588295   2587683   2587095   2586445  
  6470.000000   2585674   2584763   2583722   2582587   2581397  
  6460.000000   2580189   2578992   2577832   2576727   2575690  
  6450.000000   2574721   2573807   2572922   2572039   2571136  
  6440.000000   2570209   2569268   2568334   2567422   2566540  
  6430.000000   2565680   2564841   2564022   2563248   2562548  
  6420.000000   2561959   2561488   2561122   2560806   2560482  
  6410.000000   2560097   2559636   2559117   2558592   2558115  
  6400.000000   2557726   2557432   2557217   2557049   2556902  
  6390.000000   2556766   2556649   2556562   2556509   2556480  
  6380.000000   2556451   2556401   2556316   2556197   2556057  
  6370.000000   2555901   2555721   2555487   2555163   2554723  
  6360.000000   2554162   2553515   2552833   2552176   2551582  
  6350.000000   2551061   2550591   2550143   2549687   2549217  
  6340.000000   2548736   2548258   2547779   2547287   2546753  
  6330.000000   2546153   2545477   2544743   2543981   2543224  
  6320.000000   2542487   2541760   2541002   2540177   2539255  
  6310.000000   2538241   2537162   2536065   2534981   2533927  
  6300.000000   2532886   2531830   2530729   2529574   2528368  
  6290.000000   2527131   2525873   2524601   2523301   2521964  
  6280.000000   2520581   2519170   2517748   2516344   2514962  
  6270.000000   2513586   2512174   2510680   2509066   2507327  
  6260.000000   2505483   2503580   2501659   2499750   2497856  
  6250.000000   2495966   2494060   2492133   2490190   2488252  
  6240.000000   2486335   2484449   2482583   2480722   2478846  
  6230.000000   2476949   2475037   2473133   2471255   2469417  
  6220.000000   2467614   2465835   2464060   2462279   2460493  
  6210.000000   2458714   2456959   2455242   2453565   2451920  
  6200.000000   2450292   2448662   2447016   2445345   2443650  
  6190.000000   2441935   2440216   2438514   2436854   2435261  
  6180.000000   2433754   2432335   2430992   2429696   2428418  
  6170.000000   2427130   2425819   2424488   2423148   2421812  
  6160.000000   2420484   2419157   2417821   2416465   2415092  
  6150.000000   2413718   2412370   2411070   2409833   2408653  
  6140.000000   2407506   2406360   2405186   2403965   2402695  
  6130.000000   2401387   2400063   2398745   2397454   2396206  
  6120.000000   2395009   2393861   2392751   2391654   2390547  
  6110.000000   2389405   2388222   2387009   2385805   2384655  
  6100.000000   2383604   2382675   2381870   2381160   2380511  
  6090.000000   2379888   2379282   2378697   2378163   2377698  
  6080.000000   2377322   2377023   2376793   2376600   2376440  
  6070.000000   2376303   2376204   2376149   2376156   2376221  
  6060.000000   2376359   2376569   2376881   2377310   2377887  
  6050.000000   2378609   2379471   2380427   2381441   2382469  
  6040.000000   2383511   2384580   2385731   2387005   2388448  
  6030.000000   2390061   2391828   2393699   2395634   2397587  
  6020.000000   2399546   2401499   2403457   2405421   2407403  
  6010.000000   2409400   2411426   2413487   2415605   2417785  
  6000.000000   2420035   2422340   2424687   2427053   2429435  
  5990.000000   2431829   2434258   2436738   2439292   2441924  
  5980.000000   2444640   2447433   2450315   2453291   2456386  
  5970.000000   2459609   2462969   2466445   2470013   2473627  
  5960.000000   2477263   2480890   2484509   2488113   2491710  
  5950.000000   2495293   2498862   2502408   2505943   2509485  
  5940.000000   2513067   2516723   2520476   2524336   2528287  
  5930.000000   2532308   2536365   2540436   2544500   2548540  
  5920.000000   2552534   2556454   2560261   2563920   2567402  
  5910.000000   2570700   2573819   2576781   2579609   2582329  
  5900.000000   2584956   2587518   2590034   2592550   2595096  
  5890.000000   2597712   2600408   2603178   2605985   2608786  
  5880.000000   2611530   2614183   2616723   2619145   2621449  
  5870.000000   2623638   2625721   2627707   2629620   2631494  
  5860.000000   2633372   2635294   2637287   2639358   2641502  
  5850.000000   2643704   2645954   2648256   2650626   2653082  
  5840.000000   2655639   2658292   2661026   2663814   2666636  
  5830.000000   2669475   2672331   2675201   2678081   2680951  
  5820.000000   2683789   2686566   2689268   2691898   2694475  
  5810.000000   2697028   2699568   2702106   2704612   2707072  
  5800.000000   2709448   2711748   2713963   2716132   2718246  
  5790.000000   2720320   2722297   2724132   2725723   2726998  
  5780.000000   2727852   2728225   2728048   2727304   2725988  
  5770.000000   2724166   2721921   2719401   2716744   2714101  
  5760.000000   2711563   2709201   2707011   2704988   2703095  
  5750.000000   2701325   2699669   2698138   2696733   2695441  
  5740.000000   2694235   2693073   2691930   2690783   2689645  
  5730.000000   2688526   2687455   2686436   2685475   2684553  
  5720.000000   2683663   2682793   2681954   2681150   2680398  
  5710.000000   2679699   2679053   2678447   2677877   2677338  
  5700.000000   2676836   2676378   2675968   2675604   2675280  
  5690.000000   2674992   2674736   2674524   2674356   2674237  
  5680.000000   2674142   2674039   2673873   2673596   2673162  
  5670.000000   2672551   2671748   2670750   2669546   2668128  
  5660.000000   2666483   2664623   2662578   2660422   2658237  
  5650.000000   2656114   2654112   2652260   2650538   2648910  
  5640.000000   2647332   2645778   2644243   2642743   2641300  
  5630.000000   2639926   2638624   2637377   2636169   2634982  
  5620.000000   2633809   2632648   2631501   2630366   2629243  
  5610.000000   2628131   2627041   2625989   2624998   2624083  
  5600.000000   2623245   2622463   2621703   2620927   2620108  
  5590.000000   2619240   2618336   2617420   2616514   2615627  
  5580.000000   2614750   2613866   2612955   2612007   2611020  
  5570.000000   2609998   2608940   2607841   2606685   2605464  
  5560.000000   2604179   2602851   2601512   2600198   2598931  
  5550.000000   2597714   2596525   2595336   2594118   2592863  
  5540.000000   2591583   2590306   2589064   2587878   2586755  
  5530.000000   2585684   2584648   2583632   2582624   2581621  
  5520.000000   2580619   2579615   2578600   2577565   2576503  
  5510.000000   2575412   2574293   2573148   2571973   2570763  
  5500.000000   2569510   2568219   2566905   2565597   2564324  
  5490.000000   2563106   2561929   2560759   2559539   2558218  
  5480.000000   2556759   2555165   2553464   2551711   2549952  
  5470.000000   2548219   2546513   2544816   2543092   2541313  
  5460.000000   2539456   2537514   2535487   2533382   2531212  
  5450.000000   2528999   2526777   2524592   2522486   2520492  
  5440.000000   2518616   2516839   2515125   2513430   2511728  
  5430.000000   2510005   2508270   2506530   2504797   2503066  
  5420.000000   2501341   2499626   2497957   2496377   2494952  
  5410.000000   2493720   2492704   2491873   2491189   2490593  
  5400.000000   2490062   2489578   2489163   2488828   2488597  
  5390.000000   2488456   2488405   2488420   2488523   2488733  
  5380.000000   2489116   2489705   2490540   2491593   2492837  
  5370.000000   2494194   2495635   2497112   2498655   2500266  
  5360.000000   2502012   2503903   2506003   2508312   2510904  
  5350.000000   2513792   2517066   2520737   2524873   2529437  
  5340.000000   2534455   2539859   2545679   2551864   2558474  
  5330.000000   2565463   2572884   2580669   2588857   2597386  
  5320.000000   2606341   2615718   2625668   2636216   2647516  
  5310.000000   2659546   2672394   2685972   2700325   2715359  
  5300.000000   2731144   2747630   2764935   2783046   2802089  
  5290.000000   2822033   2842944   2864711   2887299   2910530  
  5280.000000   2934350   2958637   2983442   3008773   3034769  
  5270.000000   3061463   3088892   3116931   3145407   3174079  
  5260.000000   3202756   3231334   3259817   3288290   3316823  
  5250.000000   3345447   3374030   3402396   3430237   3457367  
  5240.000000   3483589   3508944   3533455   3557325   3580616  
  5230.000000   3603470   3625805   3647603   3668652   3688893  
  5220.000000   3708156   3726499   3743892   3760513   3776403  
  5210.000000   3791738   3806485   3820702   3834234   3847060  
  5200.000000   3859019   3870161   3880436   3889995   3898842  
  5190.000000   3907109   3914742   3921789   3928139   3933831  
  5180.000000   3938791   3943116   3946787   3949917   3952475  
  5170.000000   3954533   3956034   3957044   3957528   3957578  
  5160.000000   3957178   3956405   3955205   3953603   3951520  
  5150.000000   3948985   3945966   3942545   3938741   3934652  
  5140.000000   3930282   3925686   3920836   3915763   3910451  
  5130.000000   3904952   3899278   3893490   3887596   3881632  
  5120.000000   3875590   3869492   3863337   3857156   3850960  
  5110.000000   3844771   3838585   3832398   3826189   3819953  
  5100.000000   3813686   3807411   3801154   3794950   3788825  
  5090.000000   3782797   3776872   3771048   3765318   3759676  
  5080.000000   3754111   3748610   3743153   3737720   3732287  
  5070.000000   3726841   3721371   3715880   3710362   3704820  
  5060.000000   3699240   3693610   3687907   3682123   3676241  
  5050.000000   3670268   3664201   3658049   3651810   3645491  
  5040.000000   3639089   3632616   3626079   3619499   3612886  
  5030.000000   3606254   3599606   3592941   3586259   3579561  
  5020.000000   3572862   3566181   3559548   3552986   3546526  
  5010.000000   3540178   3533965   3527884   3521958   3516186  
  5000.000000   3510595   3505180   3499969   3494948   3490140  
  4990.000000   3485527   3481137   3476954   3473016   3469309  
  4980.000000   3465874   3462693   3459809   3457206   3454933  
  4970.000000   3452976   3451386   3450141   3449281   3448767  
  4960.000000   3448631   3448828   3449398   3450311   3451622  
  4950.000000   3453308   3455422   3457930   3460868   3464185  
  4940.000000   3467913   3472000   3476484   3481319   3486539  
  4930.000000   3492091   3498000   3504213   3510759   3517607  
  4920.000000   3524806   3532341   3540257   3548525   3557160  
  4910.000000   3566104   3575342   3584817   3594513   3604393  
  4900.000000   3614455   3624674   3635042   3645534   3656123  
  4890.000000   3666775   3677444   3688092   3698657   3709097  
  4880.000000   3719343   3729361   3739087   3748504   3757557  
  4870.000000   3766241   3774499   3782331   3789679   3796554  
  4860.000000   3802916   3808802   3814203   3819182   3823747  
  4850.000000   3827970   3831863   3835494   3838872   3842059  
  4840.000000   3845059   3847922   3850645   3853267   3855782  
  4830.000000   3858227   3860601   3862939   3865240   3867527  
  4820.000000   3869792   3872039   3874256   3876442   3878594  
  4810.000000   3880715   3882807   3884877   3886927   3888961  
  4800.000000   3890987   3893016   3895066   3897154   3899292  
  4790.000000   3901485   3903721   3905984   3908249   3910501  
  4780.000000   3912735   3914961   3917194   3919455   3921748  
  4770.000000   3924074   3926405   3928716   3930962   3933114  
  4760.000000   3935136   3937014   3938728   3940280   3941668  
  4750.000000   3942910   3944017   3945019   3945927   3946762  
  4740.000000   3947518   3948196   3948771   3949236   3949573  
  4730.000000   3949788   3949882   3949874   3949777   3949611  
  4720.000000   3949389   3949127   3948843   3948556   3948292  
  4710.000000   3948071   3947916   3947837   3947843   3947933  
  4700.000000   3948111   3948373   3948729   3949184   3949756  
  4690.000000   3950453   3951290   3952269   3953394   3954647  
  4680.000000   3956012   3957445   3958911   3960352   3961730  
  4670.000000   3963000   3964156   3965194   3966155   3967076  
  4660.000000   3968027   3969062   3970242   3971604   3973178  
  4650.000000   3974966   3976963   3979146   3981491   3983965  
  4640.000000   3986541   3989194   3991902   3994644   3997399  
  4630.000000   4000145   4002852   4005496   4008046   4010478  
  4620.000000   4012767   4014895   4016834   4018571   4020078  
  4610.000000   4021352   4022382   4023194   4023809   4024287  
  4600.000000   4024666   4025010   4025341   4025693   4026050  
  4590.000000   4026407   4026715   4026945   4027037   4026961  
  4580.000000   4026674   4026169   4025438   4024510   4023410  
  4570.000000   4022189   4020876   4019508   4018088   4016629  
  4560.000000   4015114   4013551   4011933   4010278   4008593  
  4550.000000   4006894   4005175   4003429   4001633   3999769  
  4540.000000   3997830   3995822   3993772   3991713   3989687  
  4530.000000   3987716   3985823   3983998   3982251   3980560  
  4520.000000   3978950   3977415   3976006   3974729   3973648  
  4510.000000   3972761   3972140   3971782   3971776   3972132  
  4500.000000   3972956   3974257   3976135   3978572   3981647  
  4490.000000   3985322   3989671   3994661   4000383   4006814  
  4480.000000   4014042   4022024   4030814   4040330   4050588  
  4470.000000   4061482   4073015   4085087   4097707   4110788  
  4460.000000   4124337   4138267   4152569   4167151   4181984  
  4450.000000   4196986   4212133   4227375   4242706   4258111  
  4440.000000   4273587   4289124   4304691   4320263   4335775  
  4430.000000   4351193   4366434   4381476   4396234   4410695  
  4420.000000   4424768   4438439   4451608   4464264   4476307  
  4410.000000   4487728   4498431   4508414   4517593   4525988  
  4400.000000   4533557   4540376   4546469   4551972   4556959  
  4390.000000   4561585   4565923   4570102   4574162   4578186  
  4380.000000   4582187   4586217   4590274   4594400   4598601  
  4370.000000   4602919   4607371   4611994   4616801   4621803  
  4360.000000   4626981   4632314   4637752   4643264   4648784  
  4350.000000   4654302   4659753   4665158   4670465   4675720  
  4340.000000   4680886   4685999   4690972   4695721   4699993  
  4330.000000   4703489   4705779   4706473   4705230   4701935  
  4320.000000   4696695   4689913   4682155   4674117   4666405  
  4310.000000   4659517   4653693   4649003   4645321   4642476  
  4300.000000   4640260   4638528   4637176   4636142   4635395  
  4290.000000   4634886   4634598   4634485   4634560   4634814  
  4280.000000   4635284   4635975   4636884   4637987   4639225  
  4270.000000   4640562   4641930   4643287   4644535   4645550  
  4260.000000   4646119   4645999   4644919   4642678   4639171  
  4250.000000   4634470   4628782   4622459   4615873   4609409  
  4240.000000   4603329   4597815   4592891   4588520   4584578  
  4230.000000   4580948   4577501   4574143   4570803   4567430  
  4220.000000   4564015   4560553   4557091   4553667   4550369  
  4210.000000   4547249   4544389   4541812   4539555   4537599  
  4200.000000   4535937   4534520   4533327   4532300   4531423  
  4190.000000   4530640   4529952   4529321   4528780   4528312  
  4180.000000   4527979   4527778   4527780   4527986   4528473  
  4170.000000   4529251   4530412   4531981   4534056   4536653  
  4160.000000   4539844   4543595   4547933   4552784   4558150  
  4150.000000   4563952   4570211   4576864   4583952   4591426  
  4140.000000   4599338   4607643   4616396   4625555   4635179  
  4130.000000   4645225   4655743   4666687   4678097   4689930  
  4120.000000   4702229   4714966   4728195   4741902   4756139  
  4110.000000   4770884   4786162   4801920   4818135   4834718  
  4100.000000   4851611   4868710   4885954   4903266   4920613  
  4090.000000   4937965   4955322   4972689   4990080   5007528  
  4080.000000   5025050   5042692   5060454   5078360   5096340  
  4070.000000   5114342   5132207   5149829   5167028   5183738  
  4060.000000   5199850   5215390   5230313   5244683   5258447  
  4050.000000   5271660   5284253   5296293   5307723   5318629  
  4040.000000   5328934   5338691   5347771   5356190   5363818  
  4030.000000   5370706   5376779   5382130   5386708   5390577  
  4020.000000   5393632   5395916   5397382   5398108   5398058  
  4010.000000   5397394   5396206   5394539   5392194   5389232  
  4000.000000   5385954  
##END= 
