##TITLE= Sample 009 By ssteindl date Montag, November 26 2018
##JCAMP-DX= 4.24
##DATA TYPE= INFRARED SPECTRUM
##ORIGIN= Exported PE Spectrum Data File
##OWNER= Sandra Steindl
##DATE= 18/11/26
##TIME= 12:59:41.00
##SPECTROMETER/DATA SYSTEM= PERKIN-ELMER Frontier FT-IR/NIR IR
##INSTRUMENT PARAMETERS=
  APODIZATION=stark
  DETECTOR=INGAAS
##RESOLUTION= 16.000000
##DELTAX= -2.000000
##XUNITS= 1/CM
##YUNITS= A
##XFACTOR= 1.00
##YFACTOR= 0.00000011920928955078
##FIRSTX= 10000.00
##LASTX= 4000.00
##NPOINTS= 3001
##FIRSTY= 0.249511
##MAXY= 0.633799
##MINY= 0.211590
##XYDATA= (X++(Y..Y))
 10000.000000   2093050   2093231   2094201   2096407   2098716  
  9990.000000   2099376   2097699   2094331   2090435   2087202  
  9980.000000   2085577   2085951   2087820   2090150   2091984  
  9970.000000   2092868   2093009   2093033   2093633   2095018  
  9960.000000   2096736   2097791   2097088   2094012   2088826  
  9950.000000   2082696   2077348   2074444   2075026   2079170  
  9940.000000   2085987   2093926   2101239   2106446   2108691  
  9930.000000   2107876   2104600   2099961   2095243   2091686  
  9920.000000   2090178   2091136   2094381   2099210   2104558  
  9910.000000   2109258   2112335   2113215   2111820   2108507  
  9900.000000   2103878   2098572   2093095   2087804   2082966  
  9890.000000   2078894   2075983   2074717   2075451   2078309  
  9880.000000   2082905   2088449   2093764   2097673   2099267  
  9870.000000   2098196   2094785   2089873   2084593   2079944  
  9860.000000   2076544   2074416   2073078   2071719   2069579  
  9850.000000   2066220   2061740   2056719   2051986   2048335  
  9840.000000   2046181   2045494   2045811   2046520   2047156  
  9830.000000   2047609   2048185   2049384   2051634   2054944  
  9820.000000   2058853   2062451   2064803   2065192   2063495  
  9810.000000   2060114   2055875   2051692   2048281   2046066  
  9800.000000   2045143   2045503   2047085   2049898   2053849  
  9790.000000   2058657   2063703   2068111   2070972   2071638  
  9780.000000   2069988   2066440   2061830   2057066   2052870  
  9770.000000   2049575   2047189   2045563   2044596   2044343  
  9760.000000   2044916   2046330   2048301   2050247   2051429  
  9750.000000   2051264   2049617   2046933   2044112   2042187  
  9740.000000   2041904   2043446   2046406   2049992   2053418  
  9730.000000   2056150   2058057   2059245   2059853   2059820  
  9720.000000   2058848   2056591   2052911   2048189   2043299  
  9710.000000   2039485   2037853   2039058   2042918   2048564  
  9700.000000   2054579   2059532   2062282   2062277   2059567  
  9690.000000   2054647   2048252   2041084   2033750   2026667  
  9680.000000   2020167   2014450   2009642   2005723   2002530  
  9670.000000   1999821   1997337   1994976   1992822   1991150  
  9660.000000   1990333   1990640   1992189   1994791   1998089  
  9650.000000   2001549   2004666   2007024   2008439   2008975  
  9640.000000   2008935   2008778   2008965   2009855   2011562  
  9630.000000   2013921   2016504   2018707   2019929   2019721  
  9620.000000   2017916   2014645   2010246   2005166   1999826  
  9610.000000   1994621   1989913   1986097   1983555   1982628  
  9600.000000   1983414   1985714   1988910   1992153   1994547  
  9590.000000   1995488   1994861   1993062   1990833   1988912  
  9580.000000   1987755   1987347   1987296   1987022   1986081  
  9570.000000   1984330   1981995   1979488   1977214   1975336  
  9560.000000   1973743   1972121   1970176   1967796   1965159  
  9550.000000   1962653   1960736   1959776   1959928   1961192  
  9540.000000   1963427   1966499   1970240   1974471   1978883  
  9530.000000   1983035   1986395   1988465   1988969   1987917  
  9520.000000   1985634   1982566   1979143   1975581   1971884  
  9510.000000   1967932   1963636   1959111   1954671   1950811  
  9500.000000   1947970   1946429   1946150   1946853   1948101  
  9490.000000   1949483   1950732   1951713   1952424   1952840  
  9480.000000   1952945   1952670   1952029   1951103   1950115  
  9470.000000   1949314   1948947   1949122   1949814   1950871  
  9460.000000   1952072   1953240   1954214   1954938   1955363  
  9450.000000   1955498   1955379   1955116   1954919   1955044  
  9440.000000   1955699   1956867   1958206   1959081   1958749  
  9430.000000   1956690   1952836   1947718   1942323   1937829  
  9420.000000   1935207   1934874   1936529   1939247   1941816  
  9410.000000   1943150   1942639   1940298   1936659   1932562  
  9400.000000   1928855   1926208   1925004   1925328   1927035  
  9390.000000   1929759   1933006   1936150   1938541   1939601  
  9380.000000   1938970   1936634   1932998   1928803   1924989  
  9370.000000   1922348   1921351   1921974   1923781   1926097  
  9360.000000   1928212   1929627   1930138   1929940   1929494  
  9350.000000   1929408   1930156   1931964   1934679   1937854  
  9340.000000   1940823   1942914   1943606   1942731   1940505  
  9330.000000   1937472   1934267   1931370   1928932   1926715  
  9320.000000   1924260   1921017   1916645   1911134   1904889  
  9310.000000   1898621   1893092   1888948   1886512   1885859  
  9300.000000   1886841   1889271   1892939   1897631   1903018  
  9290.000000   1908600   1913724   1917649   1919808   1919883  
  9280.000000   1918048   1914760   1910750   1906632   1902829  
  9270.000000   1899453   1896410   1893593   1890985   1888873  
  9260.000000   1887691   1887976   1890007   1893767   1898807  
  9250.000000   1904384   1909602   1913619   1915880   1916149  
  9240.000000   1914578   1911535   1907570   1903248   1899123  
  9230.000000   1895618   1892990   1891299   1890422   1890124  
  9220.000000   1890084   1890019   1889706   1889114   1888360  
  9210.000000   1887698   1887379   1887598   1888401   1889716  
  9200.000000   1891344   1893039   1894561   1895728   1896463  
  9190.000000   1896742   1896587   1895945   1894712   1892703  
  9180.000000   1889775   1885842   1881010   1875593   1870142  
  9170.000000   1865356   1861910   1860316   1860745   1863045  
  9160.000000   1866717   1871101   1875490   1879329   1882319  
  9150.000000   1884415   1885808   1886742   1887468   1888052  
  9140.000000   1888435   1888395   1887727   1886300   1884173  
  9130.000000   1881626   1879103   1877146   1876167   1876405  
  9120.000000   1877756   1879892   1882263   1884352   1885766  
  9110.000000   1886395   1886381   1886036   1885688   1885513  
  9100.000000   1885464   1885254   1884500   1882876   1880269  
  9090.000000   1876851   1873009   1869289   1866188   1864082  
  9080.000000   1863090   1863101   1863839   1864920   1865978  
  9070.000000   1866621   1866551   1865527   1863502   1860559  
  9060.000000   1857001   1853315   1850155   1848181   1847879  
  9050.000000   1849506   1852997   1858026   1863968   1870120  
  9040.000000   1875788   1880416   1883608   1885152   1885085  
  9030.000000   1883579   1880961   1877561   1873737   1869767  
  9020.000000   1865819   1862008   1858399   1855175   1852557  
  9010.000000   1850885   1850410   1851294   1853426   1856399  
  9000.000000   1859527   1861992   1863113   1862466   1860048  
  8990.000000   1856239   1851763   1847446   1844028   1842000  
  8980.000000   1841546   1842535   1844580   1847156   1849723  
  8970.000000   1851811   1853070   1853307   1852513   1850837  
  8960.000000   1848590   1846157   1843992   1842493   1841945  
  8950.000000   1842438   1843836   1845858   1848105   1850228  
  8940.000000   1851958   1853207   1854033   1854586   1855003  
  8930.000000   1855300   1855358   1854925   1853761   1851729  
  8920.000000   1848940   1845731   1842616   1840129   1838646  
  8910.000000   1838278   1838800   1839781   1840730   1841296  
  8900.000000   1841388   1841168   1840973   1841122   1841801  
  8890.000000   1842942   1844289   1845468   1846180   1846281  
  8880.000000   1845863   1845196   1844635   1844504   1844991  
  8870.000000   1846117   1847743   1849619   1851453   1852961  
  8860.000000   1853918   1854184   1853740   1852708   1851339  
  8850.000000   1849984   1848997   1848665   1849102   1850243  
  8840.000000   1851830   1853520   1854959   1855905   1856266  
  8830.000000   1856084   1855490   1854605   1853526   1852257  
  8820.000000   1850779   1849056   1847123   1845112   1843238  
  8810.000000   1841790   1841031   1841196   1842388   1844589  
  8800.000000   1847599   1851072   1854549   1857519   1859535  
  8790.000000   1860291   1859744   1858099   1855807   1853407  
  8780.000000   1851419   1850181   1849789   1850092   1850773  
  8770.000000   1851491   1851994   1852215   1852242   1852275  
  8760.000000   1852494   1852998   1853750   1854609   1855417  
  8750.000000   1856059   1856551   1856993   1857555   1858351  
  8740.000000   1859388   1860531   1861550   1862209   1862372  
  8730.000000   1862073   1861520   1861038   1860962   1861526  
  8720.000000   1862774   1864557   1866562   1868433   1869862  
  8710.000000   1870682   1870893   1870642   1870165   1869711  
  8700.000000   1869492   1869606   1870054   1870711   1871395  
  8690.000000   1871895   1872041   1871770   1871150   1870412  
  8680.000000   1869879   1869915   1870789   1872605   1875234  
  8670.000000   1878349   1881506   1884265   1886306   1887490  
  8660.000000   1887877   1887653   1887078   1886354   1885632  
  8650.000000   1884966   1884392   1883929   1883609   1883477  
  8640.000000   1883559   1883878   1884429   1885238   1886357  
  8630.000000   1887880   1889889   1892394   1895289   1898310  
  8620.000000   1901103   1903301   1904686   1905259   1905277  
  8610.000000   1905163   1905363   1906185   1907679   1909649  
  8600.000000   1911719   1913510   1914758   1915425   1915653  
  8590.000000   1915714   1915846   1916189   1916713   1917290  
  8580.000000   1917758   1918007   1918029   1917886   1917688  
  8570.000000   1917490   1917286   1916993   1916532   1915869  
  8560.000000   1915077   1914332   1913878   1913962   1914746  
  8550.000000   1916297   1918556   1921383   1924571   1927900  
  8540.000000   1931162   1934157   1936716   1938684   1939973  
  8530.000000   1940547   1940468   1939859   1938921   1937871  
  8520.000000   1936915   1936212   1935850   1935864   1936222  
  8510.000000   1936879   1937772   1938854   1940079   1941403  
  8500.000000   1942772   1944118   1945369   1946458   1947364  
  8490.000000   1948112   1948794   1949538   1950487   1951730  
  8480.000000   1953275   1955016   1956763   1958290   1959408  
  8470.000000   1960038   1960247   1960237   1960266   1960583  
  8460.000000   1961325   1962497   1963950   1965466   1966817  
  8450.000000   1967861   1968561   1968984   1969244   1969445  
  8440.000000   1969622   1969735   1969692   1969405   1968844  
  8430.000000   1968071   1967228   1966507   1966070   1966022  
  8420.000000   1966342   1966931   1967619   1968248   1968705  
  8410.000000   1968955   1969044   1969058   1969092   1969194  
  8400.000000   1969361   1969527   1969597   1969485   1969154  
  8390.000000   1968641   1968049   1967540   1967281   1967413  
  8380.000000   1967985   1968957   1970187   1971478   1972605  
  8370.000000   1973381   1973698   1973548   1973014   1972237  
  8360.000000   1971369   1970534   1969800   1969178   1968630  
  8350.000000   1968117   1967610   1967125   1966696   1966362  
  8340.000000   1966130   1965964   1965780   1965474   1964954  
  8330.000000   1964187   1963227   1962215   1961345   1960804  
  8320.000000   1960719   1961112   1961883   1962824   1963662  
  8310.000000   1964139   1964087   1963472   1962408   1961124  
  8300.000000   1959917   1959054   1958703   1958866   1959382  
  8290.000000   1959970   1960324   1960204   1959503   1958293  
  8280.000000   1956808   1955373   1954303   1953809   1953952  
  8270.000000   1954625   1955610   1956625   1957407   1957777  
  8260.000000   1957670   1957153   1956372   1955536   1954845  
  8250.000000   1954469   1954490   1954891   1955541   1956234  
  8240.000000   1956725   1956803   1956327   1955274   1953719  
  8230.000000   1951821   1949755   1947675   1945679   1943809  
  8220.000000   1942068   1940459   1938989   1937685   1936551  
  8210.000000   1935576   1934700   1933850   1932961   1932014  
  8200.000000   1931049   1930142   1929377   1928781   1928304  
  8190.000000   1927809   1927130   1926141   1924813   1923252  
  8180.000000   1921651   1920239   1919181   1918528   1918189  
  8170.000000   1917973   1917641   1916997   1915928   1914433  
  8160.000000   1912597   1910557   1908449   1906390   1904458  
  8150.000000   1902695   1901116   1899697   1898387   1897109  
  8140.000000   1895777   1894323   1892722   1891007   1889275  
  8130.000000   1887650   1886257   1885172   1884408   1883908  
  8120.000000   1883583   1883325   1883059   1882729   1882319  
  8110.000000   1881814   1881206   1880479   1879628   1878668  
  8100.000000   1877655   1876675   1875831   1875212   1874855  
  8090.000000   1874734   1874745   1874745   1874572   1874101  
  8080.000000   1873261   1872059   1870567   1868894   1867160  
  8070.000000   1865453   1863820   1862255   1860719   1859166  
  8060.000000   1857570   1855950   1854370   1852934   1851748  
  8050.000000   1850891   1850384   1850182   1850183   1850254  
  8040.000000   1850275   1850152   1849857   1849398   1848832  
  8030.000000   1848206   1847568   1846920   1846250   1845522  
  8020.000000   1844710   1843818   1842888   1842003   1841265  
  8010.000000   1840778   1840602   1840738   1841107   1841568  
  8000.000000   1841949   1842084   1841868   1841273   1840356  
  7990.000000   1839232   1838040   1836899   1835886   1835027  
  7980.000000   1834309   1833709   1833202   1832784   1832452  
  7970.000000   1832202   1832012   1831846   1831655   1831403  
  7960.000000   1831070   1830665   1830213   1829749   1829306  
  7950.000000   1828904   1828556   1828262   1828016   1827790  
  7940.000000   1827545   1827215   1826736   1826049   1825145  
  7930.000000   1824067   1822921   1821844   1820967   1820380  
  7920.000000   1820108   1820116   1820332   1820681   1821111  
  7910.000000   1821591   1822105   1822620   1823082   1823407  
  7900.000000   1823527   1823406   1823080   1822646   1822241  
  7890.000000   1821992   1821979   1822212   1822632   1823147  
  7880.000000   1823652   1824069   1824333   1824413   1824282  
  7870.000000   1823940   1823416   1822790   1822189   1821766  
  7860.000000   1821643   1821855   1822319   1822841   1823172  
  7850.000000   1823105   1822549   1821581   1820413   1819325  
  7840.000000   1818554   1818220   1818286   1818601   1818966  
  7830.000000   1819227   1819316   1819268   1819166   1819093  
  7820.000000   1819074   1819072   1819007   1818800   1818414  
  7810.000000   1817862   1817199   1816483   1815755   1815022  
  7800.000000   1814272   1813493   1812695   1811917   1811208  
  7790.000000   1810610   1810132   1809763   1809467   1809231  
  7780.000000   1809060   1808989   1809053   1809256   1809544  
  7770.000000   1809808   1809909   1809716   1809164   1808262  
  7760.000000   1807104   1805824   1804564   1803430   1802472  
  7750.000000   1801695   1801062   1800536   1800076   1799660  
  7740.000000   1799269   1798891   1798510   1798118   1797712  
  7730.000000   1797296   1796879   1796461   1796032   1795569  
  7720.000000   1795053   1794481   1793882   1793320   1792873  
  7710.000000   1792608   1792550   1792665   1792863   1793025  
  7700.000000   1793033   1792802   1792308   1791576   1790674  
  7690.000000   1789677   1788648   1787627   1786632   1785677  
  7680.000000   1784783   1783988   1783340   1782882   1782628  
  7670.000000   1782562   1782624   1782733   1782809   1782790  
  7660.000000   1782657   1782427   1782153   1781891   1781686  
  7650.000000   1781551   1781465   1781376   1781227   1780971  
  7640.000000   1780594   1780116   1779594   1779105   1778720  
  7630.000000   1778490   1778423   1778487   1778618   1778740  
  7620.000000   1778792   1778744   1778606   1778421   1778245  
  7610.000000   1778126   1778081   1778086   1778090   1778034  
  7600.000000   1777880   1777627   1777319   1777022   1776799  
  7590.000000   1776678   1776639   1776614   1776520   1776297  
  7580.000000   1775943   1775520   1775145   1774947   1775021  
  7570.000000   1775390   1775994   1776702   1777363   1777839  
  7560.000000   1778065   1778035   1777815   1777498   1777191  
  7550.000000   1776982   1776939   1777097   1777476   1778069  
  7540.000000   1778857   1779797   1780835   1781904   1782944  
  7530.000000   1783907   1784772   1785535   1786213   1786823  
  7520.000000   1787389   1787935   1788500   1789128   1789871  
  7510.000000   1790761   1791798   1792930   1794064   1795071  
  7500.000000   1795836   1796284   1796424   1796337   1796169  
  7490.000000   1796078   1796214   1796679   1797525   1798745  
  7480.000000   1800294   1802097   1804062   1806084   1808058  
  7470.000000   1809882   1811490   1812849   1813987   1814966  
  7460.000000   1815877   1816800   1817800   1818902   1820105  
  7450.000000   1821391   1822741   1824144   1825584   1827033  
  7440.000000   1828443   1829755   1830916   1831901   1832742  
  7430.000000   1833514   1834335   1835317   1836536   1838002  
  7420.000000   1839667   1841447   1843258   1845045   1846801  
  7410.000000   1848552   1850343   1852197   1854106   1856020  
  7400.000000   1857878   1859616   1861207   1862655   1864010  
  7390.000000   1865335   1866696   1868138   1869676   1871295  
  7380.000000   1872956   1874612   1876215   1877741   1879187  
  7370.000000   1880582   1881970   1883402   1884917   1886526  
  7360.000000   1888210   1889922   1891604   1893206   1894704  
  7350.000000   1896101   1897428   1898728   1900040   1901390  
  7340.000000   1902794   1904261   1905803   1907436   1909172  
  7330.000000   1911009   1912915   1914827   1916662   1918341  
  7320.000000   1919812   1921071   1922163   1923170   1924186  
  7310.000000   1925299   1926556   1927969   1929504   1931108  
  7300.000000   1932707   1934236   1935629   1936843   1937848  
  7290.000000   1938643   1939250   1939717   1940111   1940496  
  7280.000000   1940929   1941441   1942036   1942698   1943398  
  7270.000000   1944115   1944839   1945588   1946398   1947313  
  7260.000000   1948372   1949585   1950936   1952360   1953782  
  7250.000000   1955100   1956241   1957153   1957854   1958402  
  7240.000000   1958918   1959530   1960376   1961541   1963079  
  7230.000000   1964972   1967165   1969564   1972072   1974587  
  7220.000000   1977040   1979377   1981599   1983730   1985850  
  7210.000000   1988038   1990388   1992949   1995731   1998679  
  7200.000000   2001709   2004715   2007629   2010421   2013127  
  7190.000000   2015805   2018532   2021346   2024255   2027211  
  7180.000000   2030159   2033046   2035867   2038649   2041464  
  7170.000000   2044376   2047445   2050677   2054061   2057540  
  7160.000000   2061076   2064622   2068175   2071733   2075330  
  7150.000000   2078994   2082780   2086730   2090902   2095315  
  7140.000000   2099976   2104830   2109802   2114778   2119680  
  7130.000000   2124441   2129073   2133614   2138157   2142774  
  7120.000000   2147542   2152478   2157593   2162857   2168259  
  7110.000000   2173775   2179407   2185140   2190971   2196876  
  7100.000000   2202851   2208887   2215008   2221226   2227562  
  7090.000000   2233994   2240486   2246966   2253384   2259708  
  7080.000000   2265969   2272230   2278582   2285082   2291750  
  7070.000000   2298532   2305345   2312090   2318706   2325180  
  7060.000000   2331551   2337880   2344230   2350635   2357105  
  7050.000000   2363626   2370181   2376754   2383329   2389885  
  7040.000000   2396381   2402772   2409013   2415099   2421063  
  7030.000000   2426991   2432977   2439097   2445362   2451720  
  7020.000000   2458049   2464224   2470134   2475746   2481081  
  7010.000000   2486219   2491240   2496215   2501166   2506095  
  7000.000000   2510972   2515781   2520502   2525135   2529667  
  6990.000000   2534098   2538415   2542631   2546759   2550846  
  6980.000000   2554924   2559022   2563121   2567185   2571149  
  6970.000000   2574976   2578649   2582205   2585687   2589145  
  6960.000000   2592579   2595960   2599216   2602298   2605178  
  6950.000000   2607900   2610530   2613162   2615837   2618563  
  6940.000000   2621279   2623920   2626420   2628771   2630994  
  6930.000000   2633146   2635261   2637350   2639371   2641270  
  6920.000000   2642990   2644516   2645861   2647078   2648212  
  6910.000000   2649304   2650360   2651390   2652397   2653424  
  6900.000000   2654515   2655730   2657092   2658587   2660151  
  6890.000000   2661700   2663149   2664444   2665566   2666525  
  6880.000000   2667345   2668046   2668645   2669165   2669645  
  6870.000000   2670155   2670770   2671560   2672545   2673695  
  6860.000000   2674923   2676126   2677210   2678137   2678922  
  6850.000000   2679628   2680325   2681065   2681862   2682697  
  6840.000000   2683535   2684347   2685121   2685860   2686563  
  6830.000000   2687220   2687796   2688264   2688603   2688841  
  6820.000000   2689035   2689281   2689657   2690221   2690962  
  6810.000000   2691827   2692720   2693546   2694217   2694683  
  6800.000000   2694919   2694928   2694727   2694347   2693831  
  6790.000000   2693238   2692631   2692074   2691613   2691274  
  6780.000000   2691052   2690931   2690885   2690900   2690962  
  6770.000000   2691065   2691189   2691301   2691353   2691294  
  6760.000000   2691092   2690735   2690249   2689678   2689075  
  6750.000000   2688485   2687936   2687447   2687020   2686665  
  6740.000000   2686387   2686193   2686078   2686022   2685988  
  6730.000000   2685933   2685811   2685592   2685261   2684819  
  6720.000000   2684287   2683694   2683083   2682504   2682009  
  6710.000000   2681644   2681427   2681349   2681354   2681365  
  6700.000000   2681285   2681045   2680606   2679981   2679215  
  6690.000000   2678378   2677524   2676690   2675878   2675074  
  6680.000000   2674247   2673379   2672451   2671461   2670407  
  6670.000000   2669296   2668134   2666943   2665742   2664559  
  6660.000000   2663405   2662279   2661150   2659986   2658755  
  6650.000000   2657460   2656134   2654846   2653664   2652636  
  6640.000000   2651760   2650984   2650215   2649357   2648337  
  6630.000000   2647126   2645737   2644215   2642610   2640964  
  6620.000000   2639305   2637651   2636019   2634430   2632898  
  6610.000000   2631430   2630005   2628589   2627133   2625603  
  6600.000000   2623991   2622320   2620631   2618962   2617327  
  6590.000000   2615710   2614075   2612384   2610625   2608818  
  6580.000000   2607013   2605271   2603637   2602129   2600733  
  6570.000000   2599417   2598144   2596890   2595642   2594390  
  6560.000000   2593120   2591806   2590422   2588948   2587388  
  6550.000000   2585773   2584154   2582576   2581072   2579641  
  6540.000000   2578264   2576912   2575571   2574244   2572952  
  6530.000000   2571714   2570532   2569384   2568233   2567042  
  6520.000000   2565799   2564522   2563255   2562046   2560928  
  6510.000000   2559900   2558932   2557980   2557007   2556002  
  6500.000000   2554977   2553953   2552947   2551951   2550939  
  6490.000000   2549877   2548747   2547560   2546358   2545197  
  6480.000000   2544121   2543144   2542241   2541359   2540439  
  6470.000000   2539442   2538358   2537211   2536039   2534876  
  6460.000000   2533744   2532642   2531558   2530476   2529393  
  6450.000000   2528313   2527253   2526232   2525269   2524373  
  6440.000000   2523555   2522813   2522140   2521514   2520903  
  6430.000000   2520267   2519574   2518805   2517978   2517131  
  6420.000000   2516327   2515620   2515048   2514612   2514287  
  6410.000000   2514025   2513784   2513529   2513245   2512929  
  6400.000000   2512582   2512204   2511795   2511361   2510918  
  6390.000000   2510495   2510125   2509828   2509602   2509416  
  6380.000000   2509220   2508965   2508617   2508180   2507683  
  6370.000000   2507179   2506712   2506310   2505969   2505668  
  6360.000000   2505374   2505061   2504713   2504327   2503896  
  6350.000000   2503414   2502867   2502244   2501548   2500803  
  6340.000000   2500049   2499334   2498692   2498140   2497657  
  6330.000000   2497211   2496752   2496244   2495660   2494996  
  6320.000000   2494253   2493441   2492565   2491632   2490640  
  6310.000000   2489598   2488508   2487380   2486213   2485006  
  6300.000000   2483754   2482463   2481140   2479812   2478499  
  6290.000000   2477220   2475972   2474738   2473485   2472185  
  6280.000000   2470816   2469385   2467907   2466410   2464909  
  6270.000000   2463413   2461910   2460385   2458825   2457225  
  6260.000000   2455589   2453925   2452232   2450504   2448722  
  6250.000000   2446876   2444968   2443025   2441085   2439197  
  6240.000000   2437395   2435692   2434074   2432513   2430970  
  6230.000000   2429419   2427846   2426250   2424633   2422998  
  6220.000000   2421339   2419647   2417915   2416140   2414330  
  6210.000000   2412499   2410661   2408828   2407010   2405211  
  6200.000000   2403440   2401708   2400025   2398402   2396839  
  6190.000000   2395327   2393847   2392378   2390902   2389405  
  6180.000000   2387882   2386327   2384740   2383115   2381452  
  6170.000000   2379760   2378062   2376396   2374804   2373322  
  6160.000000   2371971   2370744   2369612   2368529   2367448  
  6150.000000   2366327   2365145   2363894   2362585   2361240  
  6140.000000   2359885   2358547   2357253   2356021   2354857  
  6130.000000   2353751   2352683   2351622   2350538   2349414  
  6120.000000   2348251   2347061   2345871   2344702   2343569  
  6110.000000   2342472   2341405   2340358   2339334   2338339  
  6100.000000   2337393   2336512   2335708   2334979   2334317  
  6090.000000   2333705   2333138   2332610   2332127   2331689  
  6080.000000   2331303   2330958   2330649   2330361   2330098  
  6070.000000   2329856   2329653   2329494   2329396   2329353  
  6060.000000   2329376   2329461   2329626   2329882   2330261  
  6050.000000   2330775   2331441   2332249   2333195   2334251  
  6040.000000   2335412   2336661   2338006   2339443   2340981  
  6030.000000   2342609   2344327   2346114   2347967   2349867  
  6020.000000   2351811   2353782   2355778   2357778   2359781  
  6010.000000   2361778   2363783   2365807   2367878   2370007  
  6000.000000   2372210   2374478   2376804   2379168   2381567  
  5990.000000   2383992   2386458   2388971   2391547   2394189  
  5980.000000   2396904   2399684   2402535   2405445   2408420  
  5970.000000   2411449   2414531   2417652   2420809   2423994  
  5960.000000   2427218   2430483   2433808   2437188   2440627  
  5950.000000   2444107   2447620   2451149   2454698   2458275  
  5940.000000   2461901   2465594   2469368   2473228   2477173  
  5930.000000   2481198   2485292   2489446   2493642   2497852  
  5920.000000   2502032   2506128   2510082   2513849   2517405  
  5910.000000   2520752   2523910   2526918   2529806   2532608  
  5900.000000   2535340   2538025   2540677   2543323   2545981  
  5890.000000   2548677   2551413   2554189   2556984   2559782  
  5880.000000   2562559   2565305   2568006   2570649   2573215  
  5870.000000   2575676   2578009   2580198   2582250   2584191  
  5860.000000   2586067   2587928   2589820   2591773   2593807  
  5850.000000   2595932   2598157   2600493   2602949   2605526  
  5840.000000   2608214   2610984   2613798   2616617   2619415  
  5830.000000   2622177   2624905   2627604   2630282   2632936  
  5820.000000   2635561   2638150   2640707   2643245   2645777  
  5810.000000   2648317   2650853   2653368   2655813   2658163  
  5800.000000   2660381   2662483   2664476   2666414   2668308  
  5790.000000   2670186   2672011   2673752   2675316   2676629  
  5780.000000   2677574   2678073   2678028   2677404   2676181  
  5770.000000   2674423   2672222   2669736   2667114   2664509  
  5760.000000   2662008   2659670   2657482   2655429   2653470  
  5750.000000   2651600   2649814   2648131   2646560   2645104  
  5740.000000   2643757   2642502   2641332   2640235   2639217  
  5730.000000   2638265   2637371   2636504   2635643   2634765  
  5720.000000   2633878   2633000   2632174   2631428   2630781  
  5710.000000   2630219   2629716   2629234   2628755   2628280  
  5700.000000   2627834   2627448   2627145   2626928   2626772  
  5690.000000   2626644   2626505   2626337   2626127   2625888  
  5680.000000   2625620   2625331   2625001   2624612   2624130  
  5670.000000   2623529   2622770   2621823   2620643   2619199  
  5660.000000   2617466   2615459   2613222   2610848   2608440  
  5650.000000   2606108   2603925   2601928   2600105   2598424  
  5640.000000   2596837   2595312   2593831   2592389   2590986  
  5630.000000   2589620   2588282   2586964   2585668   2584401  
  5620.000000   2583186   2582036   2580962   2579950   2578981  
  5610.000000   2578027   2577077   2576129   2575200   2574309  
  5600.000000   2573466   2572667   2571893   2571118   2570323  
  5590.000000   2569503   2568667   2567828   2566990   2566145  
  5580.000000   2565273   2564352   2563366   2562324   2561246  
  5570.000000   2560167   2559110   2558084   2557078   2556068  
  5560.000000   2555029   2553944   2552805   2551618   2550392  
  5550.000000   2549135   2547853   2546556   2545258   2543984  
  5540.000000   2542759   2541601   2540511   2539471   2538450  
  5530.000000   2537415   2536347   2535246   2534132   2533033  
  5520.000000   2531970   2530951   2529963   2528983   2527985  
  5510.000000   2526948   2525862   2524725   2523534   2522293  
  5500.000000   2521003   2519677   2518335   2517011   2515729  
  5490.000000   2514502   2513308   2512107   2510836   2509447  
  5480.000000   2507909   2506237   2504468   2502665   2500875  
  5470.000000   2499129   2497420   2495728   2494015   2492260  
  5460.000000   2490448   2488583   2486671   2484723   2482745  
  5450.000000   2480747   2478742   2476754   2474804   2472907  
  5440.000000   2471067   2469275   2467514   2465773   2464054  
  5430.000000   2462365   2460720   2459111   2457525   2455921  
  5420.000000   2454275   2452574   2450858   2449192   2447672  
  5410.000000   2446366   2445315   2444487   2443833   2443271  
  5400.000000   2442762   2442279   2441852   2441505   2441284  
  5390.000000   2441189   2441228   2441371   2441628   2442001  
  5380.000000   2442540   2443265   2444213   2445358   2446682  
  5370.000000   2448116   2449643   2451226   2452901   2454673  
  5360.000000   2456604   2458694   2460994   2463491   2466247  
  5350.000000   2469270   2472652   2476406   2480607   2485220  
  5340.000000   2490274   2495697   2501521   2507696   2514289  
  5330.000000   2521262   2528682   2536486   2544723   2553329  
  5320.000000   2562390   2571896   2581998   2592718   2604208  
  5310.000000   2616447   2629521   2643336   2657933   2673214  
  5300.000000   2689245   2705977   2723526   2741884   2761178  
  5290.000000   2781379   2802552   2824584   2847438   2870934  
  5280.000000   2895013   2919554   2944609   2970190   2996442  
  5270.000000   3023402   3051111   3079440   3108210   3137168  
  5260.000000   3166111   3194923   3223602   3252236   3280904  
  5250.000000   3309649   3338356   3366863   3394870   3422192  
  5240.000000   3448629   3474213   3498958   3523057   3546564  
  5230.000000   3569615   3592125   3614075   3635257   3655614  
  5220.000000   3674981   3693421   3710904   3727617   3743600  
  5210.000000   3759037   3773897   3788245   3801917   3814886  
  5200.000000   3826968   3838192   3848482   3857973   3866665  
  5190.000000   3874706   3882066   3888833   3894930   3900422  
  5180.000000   3905239   3909468   3913065   3916112   3918548  
  5170.000000   3920431   3921695   3922411   3922557   3922242  
  5160.000000   3921469   3920333   3918802   3916918   3914614  
  5150.000000   3911922   3908803   3905321   3901474   3897334  
  5140.000000   3892892   3888197   3883227   3878029   3872604  
  5130.000000   3867012   3861268   3855420   3849459   3843399  
  5120.000000   3837214   3830917   3824507   3818027   3811503  
  5110.000000   3804983   3798484   3792022   3785591   3779194  
  5100.000000   3772826   3766501   3760228   3754024   3747893  
  5090.000000   3741841   3735859   3729942   3724080   3718263  
  5080.000000   3712476   3706700   3700910   3695087   3689214  
  5070.000000   3683297   3677345   3671386   3665435   3659504  
  5060.000000   3653575   3647623   3641604   3635488   3629244  
  5050.000000   3622871   3616369   3609758   3603051   3596265  
  5040.000000   3589409   3582498   3575544   3568567   3561583  
  5030.000000   3554608   3547647   3540705   3533782   3526882  
  5020.000000   3520021   3513221   3506517   3499935   3493506  
  5010.000000   3487230   3481118   3475145   3469311   3463593  
  5000.000000   3458006   3452542   3447234   3442080   3437120  
  4990.000000   3432347   3427799   3423466   3419392   3415566  
  4980.000000   3412035   3408785   3405856   3403226   3400931  
  4970.000000   3398942   3397293   3395949   3394941   3394229  
  4960.000000   3393844   3393748   3393985   3394531   3395450  
  4950.000000   3396731   3398438   3400548   3403104   3406058  
  4940.000000   3409432   3413170   3417299   3421772   3426627  
  4930.000000   3431826   3437408   3443327   3449616   3456230  
  4920.000000   3463199   3470486   3478122   3486076   3494370  
  4910.000000   3502964   3511865   3521032   3530461   3540110  
  4900.000000   3549968   3559995   3570168   3580447   3590795  
  4890.000000   3601172   3611534   3621844   3632048   3642114  
  4880.000000   3651983   3661629   3670993   3680060   3688771  
  4870.000000   3697121   3705049   3712555   3719585   3726151  
  4860.000000   3732215   3737811   3742924   3747607   3751857  
  4850.000000   3755742   3759267   3762507   3765475   3768242  
  4840.000000   3770818   3773257   3775559   3777757   3779841  
  4830.000000   3781837   3783741   3785579   3787356   3789099  
  4820.000000   3790817   3792531   3794251   3795992   3797761  
  4810.000000   3799567   3801410   3803286   3805185   3807098  
  4800.000000   3809017   3810941   3812876   3814833   3816825  
  4790.000000   3818862   3820947   3823079   3825249   3827446  
  4780.000000   3829657   3831870   3834067   3836234   3838348  
  4770.000000   3840394   3842350   3844213   3845976   3847655  
  4760.000000   3849254   3850794   3852273   3853697   3855045  
  4750.000000   3856308   3857457   3858482   3859365   3860114  
  4740.000000   3860727   3861230   3861634   3861962   3862214  
  4730.000000   3862394   3862482   3862465   3862325   3862059  
  4720.000000   3861678   3861211   3860696   3860175   3859685  
  4710.000000   3859252   3858896   3858627   3858458   3858401  
  4700.000000   3858475   3858692   3859065   3859590   3860264  
  4690.000000   3861071   3862004   3863051   3864213   3865475  
  4680.000000   3866826   3868226   3869640   3871009   3872300  
  4670.000000   3873482   3874565   3875569   3876550   3877552  
  4660.000000   3878632   3879821   3881150   3882628   3884269  
  4650.000000   3886069   3888034   3890152   3892417   3894812  
  4640.000000   3897323   3899937   3902646   3905442   3908312  
  4630.000000   3911233   3914164   3917053   3919840   3922469  
  4620.000000   3924893   3927090   3929044   3930767   3932261  
  4610.000000   3933549   3934633   3935542   3936281   3936889  
  4600.000000   3937380   3937792   3938131   3938422   3938647  
  4590.000000   3938817   3938904   3938909   3938803   3938580  
  4580.000000   3938205   3937670   3936943   3936027   3934922  
  4570.000000   3933660   3932271   3930804   3929283   3927738  
  4560.000000   3926164   3924558   3922899   3921182   3919399  
  4550.000000   3917558   3915666   3913735   3911766   3909763  
  4540.000000   3907728   3905668   3903604   3901557   3899565  
  4530.000000   3897647   3895833   3894120   3892520   3891015  
  4520.000000   3889619   3888318   3887148   3886105   3885242  
  4510.000000   3884553   3884104   3883890   3883991   3884409  
  4500.000000   3885242   3886491   3888257   3890532   3893410  
  4490.000000   3896875   3901025   3905847   3911438   3917775  
  4480.000000   3924935   3932861   3941592   3951041   3961222  
  4470.000000   3972041   3983507   3995530   4008114   4021164  
  4460.000000   4034672   4048539   4062747   4077209   4091910  
  4450.000000   4106785   4121824   4136984   4152253   4167598  
  4440.000000   4182997   4198421   4213830   4229199   4244473  
  4430.000000   4259634   4274621   4289425   4303978   4318280  
  4420.000000   4332254   4345896   4359117   4371905   4384155  
  4410.000000   4395845   4406860   4417175   4426688   4435403  
  4400.000000   4443265   4450342   4456651   4462320   4467421  
  4390.000000   4472106   4476460   4480623   4484663   4488686  
  4380.000000   4492726   4496847   4501048   4505357   4509762  
  4370.000000   4514283   4518920   4523704   4528651   4533787  
  4360.000000   4539118   4544649   4550347   4556198   4562131  
  4350.000000   4568120   4574069   4579967   4585725   4591365  
  4340.000000   4596835   4602172   4607299   4612146   4616467  
  4330.000000   4619962   4622192   4622754   4621292   4617691  
  4320.000000   4612065   4604844   4596630   4588156   4580065  
  4310.000000   4572878   4566845   4562033   4558302   4555459  
  4300.000000   4553277   4551594   4550302   4549340   4548691  
  4290.000000   4548320   4548225   4548363   4548740   4549333  
  4280.000000   4550157   4551195   4552431   4553837   4555362  
  4270.000000   4556980   4558638   4560299   4561866   4563208  
  4260.000000   4564105   4564307   4563535   4561586   4558350  
  4250.000000   4553890   4548400   4542222   4535722   4529291  
  4240.000000   4523209   4517691   4512794   4508514   4504739  
  4230.000000   4501351   4498197   4495151   4492099   4488957  
  4220.000000   4485684   4482258   4478719   4475102   4471511  
  4210.000000   4468015   4464728   4461710   4459036   4456713  
  4200.000000   4454754   4453105   4451729   4450545   4449521  
  4190.000000   4448598   4447794   4447098   4446572   4446221  
  4180.000000   4446105   4446200   4446538   4447075   4447850  
  4170.000000   4448851   4450167   4451829   4453950   4456553  
  4160.000000   4459712   4463394   4467621   4472321   4477509  
  4150.000000   4483121   4489196   4495688   4502643   4510014  
  4140.000000   4517846   4526089   4534793   4543917   4553521  
  4130.000000   4563564   4574095   4585060   4596490   4608333  
  4120.000000   4620625   4633336   4646522   4660173   4674343  
  4110.000000   4689011   4704197   4719842   4735921   4752342  
  4100.000000   4769052   4785957   4803015   4820172   4837424  
  4090.000000   4854768   4872220   4889794   4907484   4925286  
  4080.000000   4943161   4961097   4979042   4996989   5014876  
  4070.000000   5032681   5050299   5067679   5084686   5101275  
  4060.000000   5117332   5132864   5147798   5162180   5175955  
  4050.000000   5189189   5201831   5213967   5225541   5236627  
  4040.000000   5247128   5257062   5266276   5274768   5282401  
  4030.000000   5289236   5295215   5300452   5304923   5308716  
  4020.000000   5311745   5314064   5315634   5316529   5316695  
  4010.000000   5316273   5315340   5313916   5311775   5308973  
  4000.000000   5305834  
##END= 
