##TITLE= Sample 015 By ssteindl date Montag, November 26 2018
##JCAMP-DX= 4.24
##DATA TYPE= INFRARED SPECTRUM
##ORIGIN= Exported PE Spectrum Data File
##OWNER= Sandra Steindl
##DATE= 18/11/26
##TIME= 13:12:51.00
##SPECTROMETER/DATA SYSTEM= PERKIN-ELMER Frontier FT-IR/NIR IR
##INSTRUMENT PARAMETERS=
  APODIZATION=stark
  DETECTOR=INGAAS
##RESOLUTION= 16.000000
##DELTAX= -2.000000
##XUNITS= 1/CM
##YUNITS= A
##XFACTOR= 1.00
##YFACTOR= 0.00000011920928955078
##FIRSTX= 10000.00
##LASTX= 4000.00
##NPOINTS= 3001
##FIRSTY= 0.266442
##MAXY= 0.591918
##MINY= 0.232922
##XYDATA= (X++(Y..Y))
 10000.000000   2235078   2232229   2231114   2233745   2239661  
  9990.000000   2246750   2253271   2258220   2260759   2260301  
  9980.000000   2257281   2252814   2248049   2243669   2239907  
  9970.000000   2236573   2233261   2229760   2226315   2223641  
  9960.000000   2222666   2224188   2228424   2234861   2242240  
  9950.000000   2248952   2253512   2255056   2253630   2250118  
  9940.000000   2245929   2242541   2241017   2241775   2244467  
  9930.000000   2248188   2251795   2254236   2254866   2253492  
  9920.000000   2250343   2245847   2240442   2234450   2228084  
  9910.000000   2221553   2215233   2209731   2205837   2204345  
  9900.000000   2205722   2209949   2216346   2223781   2230901  
  9890.000000   2236522   2239982   2241220   2240787   2239455  
  9880.000000   2237969   2236689   2235615   2234451   2232924  
  9870.000000   2230974   2228860   2227107   2226189   2226417  
  9860.000000   2227605   2229268   2230679   2231268   2230839  
  9850.000000   2229633   2228249   2227249   2226916   2226991  
  9840.000000   2226774   2225370   2222129   2216993   2210645  
  9830.000000   2204390   2199720   2197902   2199439   2204009  
  9820.000000   2210421   2217123   2222588   2225802   2226463  
  9810.000000   2224889   2221847   2218084   2214204   2210346  
  9800.000000   2206413   2202040   2196967   2191094   2184649  
  9790.000000   2178186   2172459   2168376   2166722   2168109  
  9780.000000   2172716   2180273   2189949   2200475   2210329  
  9770.000000   2218075   2222756   2224107   2222713   2219693  
  9760.000000   2216455   2214094   2213160   2213413   2214004  
  9750.000000   2213826   2211937   2208037   2202547   2196628  
  9740.000000   2191693   2189064   2189430   2192702   2197979  
  9730.000000   2203827   2208742   2211520   2211667   2209390  
  9720.000000   2205554   2201308   2197757   2195654   2195236  
  9710.000000   2196274   2198238   2200591   2202986   2205359  
  9700.000000   2207829   2210501   2213286   2215799   2217462  
  9690.000000   2217658   2216012   2212536   2207705   2202376  
  9680.000000   2197540   2194157   2192826   2193805   2196864  
  9670.000000   2201482   2206854   2212056   2216125   2218185  
  9660.000000   2217653   2214330   2208553   2201099   2193035  
  9650.000000   2185453   2179184   2174694   2172014   2170953  
  9640.000000   2171215   2172619   2175019   2178233   2181803  
  9630.000000   2184917   2186551   2185706   2181926   2175426  
  9620.000000   2167289   2159020   2152205   2147921   2146458  
  9610.000000   2147334   2149552   2152140   2154470   2156523  
  9600.000000   2158687   2161484   2165152   2169436   2173641  
  9590.000000   2176841   2178335   2177807   2175521   2172061  
  9580.000000   2168154   2164385   2161094   2158438   2156451  
  9570.000000   2155218   2154829   2155375   2156774   2158761  
  9560.000000   2160845   2162497   2163271   2162990   2161798  
  9550.000000   2160068   2158300   2156876   2156018   2155700  
  9540.000000   2155752   2155928   2155996   2155785   2155201  
  9530.000000   2154247   2153038   2151809   2150882   2150590  
  9520.000000   2151128   2152477   2154309   2156135   2157418  
  9510.000000   2157856   2157465   2156612   2155859   2155686  
  9500.000000   2156320   2157515   2158687   2158996   2157698  
  9490.000000   2154351   2148996   2142194   2134864   2128170  
  9480.000000   2123203   2120894   2121719   2125688   2132186  
  9470.000000   2140095   2147934   2154182   2157661   2157787  
  9460.000000   2154773   2149413   2142909   2136355   2130567  
  9450.000000   2125821   2122045   2118976   2116440   2114532  
  9440.000000   2113509   2113725   2115285   2118048   2121570  
  9430.000000   2125327   2128913   2132107   2134937   2137435  
  9420.000000   2139577   2141077   2141542   2140617   2138302  
  9410.000000   2135073   2131827   2129606   2129193   2130855  
  9400.000000   2134170   2138252   2141979   2144452   2145215  
  9390.000000   2144395   2142534   2140321   2138317   2136781  
  9380.000000   2135702   2134877   2134091   2133167   2132022  
  9370.000000   2130642   2129036   2127293   2125534   2124007  
  9360.000000   2122993   2122795   2123605   2125414   2127952  
  9350.000000   2130719   2133101   2134556   2134745   2133645  
  9340.000000   2131484   2128683   2125723   2123053   2121013  
  9330.000000   2119758   2119244   2119202   2119218   2118793  
  9320.000000   2117474   2114961   2111228   2106576   2101619  
  9310.000000   2097109   2093772   2092085   2092216   2093993  
  9300.000000   2096967   2100558   2104162   2107338   2109846  
  9290.000000   2111683   2113024   2114127   2115291   2116689  
  9280.000000   2118335   2119923   2120954   2120818   2119084  
  9270.000000   2115646   2110825   2105375   2100278   2096558  
  9260.000000   2094894   2095510   2098052   2101811   2105896  
  9250.000000   2109527   2112155   2113564   2113826   2113176  
  9240.000000   2111918   2110290   2108508   2106702   2104995  
  9230.000000   2103423   2101997   2100674   2099411   2098224  
  9220.000000   2097171   2096424   2096156   2096535   2097587  
  9210.000000   2099195   2101106   2103019   2104675   2105915  
  9200.000000   2106689   2107021   2106943   2106458   2105531  
  9190.000000   2104160   2102438   2100581   2098881   2097587  
  9180.000000   2096790   2096358   2095951   2095120   2093468  
  9170.000000   2090856   2087475   2083818   2080491   2078063  
  9160.000000   2076900   2077075   2078370   2080365   2082613  
  9150.000000   2084697   2086313   2087220   2087280   2086447  
  9140.000000   2084816   2082620   2080245   2078182   2076949  
  9130.000000   2076928   2078212   2080580   2083518   2086364  
  9120.000000   2088444   2089276   2088702   2086904   2084336  
  9110.000000   2081539   2079009   2077034   2075662   2074721  
  9100.000000   2073946   2073122   2072188   2071299   2070729  
  9090.000000   2070794   2071662   2073313   2075490   2077786  
  9080.000000   2079771   2081110   2081683   2081560   2080946  
  9070.000000   2080072   2079112   2078144   2077153   2076110  
  9060.000000   2075008   2073906   2072895   2072060   2071415  
  9050.000000   2070901   2070366   2069647   2068594   2067142  
  9040.000000   2065331   2063287   2061225   2059361   2057936  
  9030.000000   2057100   2056934   2057340   2058084   2058815  
  9020.000000   2059187   2058984   2058217   2057226   2056583  
  9010.000000   2056959   2058830   2062336   2067175   2072631  
  9000.000000   2077770   2081683   2083788   2083875   2082110  
  8990.000000   2078899   2074772   2070237   2065708   2061564  
  8980.000000   2058182   2055946   2055125   2055822   2057844  
  8970.000000   2060713   2063678   2065962   2066979   2066510  
  8960.000000   2064758   2062226   2059577   2057379   2055971  
  8950.000000   2055405   2055516   2056059   2056819   2057690  
  8940.000000   2058648   2059692   2060762   2061681   2062184  
  8930.000000   2061970   2060848   2058767   2055904   2052588  
  8920.000000   2049286   2046466   2044519   2043682   2043985  
  8910.000000   2045275   2047231   2049473   2051635   2053463  
  8900.000000   2054838   2055791   2056471   2057060   2057722  
  8890.000000   2058519   2059420   2060293   2060963   2061258  
  8880.000000   2061076   2060397   2059327   2058045   2056799  
  8870.000000   2055789   2055121   2054747   2054462   2054006  
  8860.000000   2053122   2051782   2050191   2048871   2048456  
  8850.000000   2049555   2052479   2057051   2062568   2067902  
  8840.000000   2071854   2073397   2072033   2067867   2061642  
  8830.000000   2054498   2047691   2042304   2039061   2038248  
  8820.000000   2039727   2043022   2047436   2052184   2056519  
  8810.000000   2059847   2061794   2062284   2061533   2060004  
  8800.000000   2058320   2057099   2056868   2057904   2060230  
  8790.000000   2063604   2067581   2071605   2075075   2077487  
  8780.000000   2078502   2078038   2076291   2073699   2070866  
  8770.000000   2068397   2066745   2066091   2066305   2067073  
  8760.000000   2068005   2068858   2069572   2070319   2071346  
  8750.000000   2072847   2074789   2076873   2078616   2079508  
  8740.000000   2079244   2077816   2075558   2073005   2070733  
  8730.000000   2069169   2068478   2068561   2069129   2069846  
  8720.000000   2070441   2070776   2070841   2070714   2070492  
  8710.000000   2070258   2070057   2069907   2069812   2069769  
  8700.000000   2069790   2069877   2070055   2070337   2070744  
  8690.000000   2071275   2071880   2072459   2072868   2072969  
  8680.000000   2072697   2072111   2071413   2070896   2070864  
  8670.000000   2071506   2072811   2074543   2076312   2077693  
  8660.000000   2078385   2078301   2077596   2076591   2075665  
  8650.000000   2075123   2075127   2075664   2076600   2077735  
  8640.000000   2078884   2079911   2080749   2081384   2081839  
  8630.000000   2082168   2082442   2082747   2083164   2083736  
  8620.000000   2084467   2085300   2086153   2086939   2087597  
  8610.000000   2088111   2088493   2088765   2088939   2089014  
  8600.000000   2089010   2088967   2088967   2089101   2089432  
  8590.000000   2089946   2090530   2091013   2091236   2091158  
  8580.000000   2090892   2090710   2090939   2091827   2093426  
  8570.000000   2095526   2097731   2099555   2100628   2100778  
  8560.000000   2100100   2098883   2097493   2096273   2095447  
  8550.000000   2095151   2095438   2096351   2097904   2100072  
  8540.000000   2102712   2105538   2108128   2110028   2110895  
  8530.000000   2110595   2109273   2107278   2105084   2103108  
  8520.000000   2101621   2100702   2100293   2100290   2100610  
  8510.000000   2101240   2102200   2103500   2105069   2106752  
  8500.000000   2108345   2109659   2110594   2111157   2111470  
  8490.000000   2111686   2111966   2112409   2113087   2114023  
  8480.000000   2115234   2116701   2118370   2120102   2121680  
  8470.000000   2122854   2123416   2123306   2122654   2121786  
  8460.000000   2121137   2121125   2122003   2123790   2126239  
  8450.000000   2128947   2131448   2133380   2134546   2134957  
  8440.000000   2134782   2134277   2133701   2133231   2132952  
  8430.000000   2132836   2132789   2132669   2132339   2131717  
  8420.000000   2130794   2129676   2128537   2127622   2127152  
  8410.000000   2127294   2128070   2129370   2130952   2132521  
  8400.000000   2133798   2134593   2134837   2134590   2134002  
  8390.000000   2133250   2132488   2131788   2131141   2130465  
  8380.000000   2129652   2128620   2127341   2125891   2124413  
  8370.000000   2123124   2122219   2121845   2122029   2122676  
  8360.000000   2123583   2124472   2125071   2125159   2124644  
  8350.000000   2123551   2122034   2120308   2118623   2117191  
  8340.000000   2116159   2115583   2115428   2115598   2115968  
  8330.000000   2116433   2116931   2117457   2118040   2118711  
  8320.000000   2119462   2120212   2120820   2121109   2120952  
  8310.000000   2120330   2119368   2118322   2117494   2117155  
  8300.000000   2117433   2118288   2119504   2120767   2121764  
  8290.000000   2122268   2122183   2121534   2120417   2118964  
  8280.000000   2117306   2115581   2113942   2112566   2111627  
  8270.000000   2111270   2111520   2112269   2113248   2114127  
  8260.000000   2114586   2114437   2113662   2112401   2110895  
  8250.000000   2109373   2107983   2106732   2105535   2104271  
  8240.000000   2102873   2101364   2099856   2098508   2097451  
  8230.000000   2096766   2096431   2096371   2096463   2096594  
  8220.000000   2096667   2096610   2096378   2095932   2095266  
  8210.000000   2094390   2093349   2092193   2090964   2089679  
  8200.000000   2088327   2086895   2085399   2083926   2082623  
  8190.000000   2081677   2081225   2081291   2081724   2082238  
  8180.000000   2082482   2082172   2081184   2079606   2077708  
  8170.000000   2075848   2074347   2073378   2072926   2072793  
  8160.000000   2072694   2072338   2071524   2070174   2068327  
  8150.000000   2066126   2063769   2061487   2059509   2058032  
  8140.000000   2057178   2056948   2057206   2057689   2058071  
  8130.000000   2058043   2057421   2056188   2054507   2052649  
  8120.000000   2050901   2049468   2048420   2047700   2047186  
  8110.000000   2046764   2046381   2046063   2045861   2045810  
  8100.000000   2045859   2045884   2045704   2045159   2044175  
  8090.000000   2042793   2041180   2039547   2038099   2036948  
  8080.000000   2036097   2035445   2034832   2034106   2033164  
  8070.000000   2031998   2030681   2029369   2028244   2027487  
  8060.000000   2027218   2027463   2028139   2029044   2029916  
  8050.000000   2030467   2030480   2029844   2028606   2026943  
  8040.000000   2025121   2023425   2022094   2021275   2021005  
  8030.000000   2021224   2021796   2022551   2023298   2023862  
  8020.000000   2024097   2023916   2023309   2022352   2021200  
  8010.000000   2020045   2019074   2018411   2018088   2018044  
  8000.000000   2018160   2018306   2018384   2018354   2018215  
  7990.000000   2017995   2017703   2017333   2016856   2016259  
  7980.000000   2015562   2014827   2014145   2013592   2013191  
  7970.000000   2012884   2012553   2012053   2011279   2010200  
  7960.000000   2008886   2007479   2006158   2005070   2004299  
  7950.000000   2003841   2003626   2003557   2003542   2003531  
  7940.000000   2003524   2003560   2003700   2003989   2004448  
  7930.000000   2005042   2005696   2006292   2006708   2006836  
  7920.000000   2006632   2006125   2005427   2004703   2004125  
  7910.000000   2003826   2003844   2004130   2004553   2004961  
  7900.000000   2005230   2005305   2005204   2004987   2004721  
  7890.000000   2004425   2004070   2003581   2002891   2001974  
  7880.000000   2000887   1999759   1998758   1998047   1997719  
  7870.000000   1997792   1998192   1998799   1999473   2000102  
  7860.000000   2000614   2000974   2001182   2001233   2001125  
  7850.000000   2000838   2000359   1999682   1998842   1997905  
  7840.000000   1996976   1996178   1995623   1995389   1995487  
  7830.000000   1995861   1996389   1996922   1997315   1997479  
  7820.000000   1997399   1997142   1996829   1996588   1996513  
  7810.000000   1996617   1996836   1997034   1997063   1996803  
  7800.000000   1996206   1995318   1994251   1993169   1992224  
  7790.000000   1991535   1991155   1991068   1991206   1991462  
  7780.000000   1991717   1991855   1991780   1991421   1990743  
  7770.000000   1989757   1988524   1987156   1985806   1984657  
  7760.000000   1983877   1983593   1983849   1984590   1985654  
  7750.000000   1986812   1987807   1988424   1988535   1988126  
  7740.000000   1987294   1986203   1985033   1983925   1982960  
  7730.000000   1982154   1981482   1980914   1980428   1980023  
  7720.000000   1979686   1979390   1979064   1978621   1977975  
  7710.000000   1977088   1975994   1974785   1973602   1972566  
  7700.000000   1971755   1971173   1970767   1970459   1970190  
  7690.000000   1969943   1969746   1969650   1969694   1969877  
  7680.000000   1970158   1970467   1970733   1970910   1970977  
  7670.000000   1970932   1970778   1970507   1970118   1969615  
  7660.000000   1969031   1968420   1967840   1967317   1966825  
  7650.000000   1966290   1965611   1964727   1963647   1962489  
  7640.000000   1961437   1960698   1960417   1960618   1961198  
  7630.000000   1961947   1962634   1963064   1963147   1962879  
  7620.000000   1962330   1961584   1960721   1959808   1958921  
  7610.000000   1958167   1957679   1957587   1957952   1958730  
  7600.000000   1959743   1960735   1961433   1961648   1961335  
  7590.000000   1960596   1959647   1958713   1957956   1957410  
  7580.000000   1957005   1956609   1956117   1955504   1954838  
  7570.000000   1954259   1953908   1953887   1954209   1954819  
  7560.000000   1955617   1956503   1957405   1958273   1959080  
  7550.000000   1959783   1960329   1960656   1960721   1960520  
  7540.000000   1960104   1959563   1959012   1958550   1958241  
  7530.000000   1958102   1958105   1958205   1958352   1958510  
  7520.000000   1958661   1958793   1958907   1958995   1959057  
  7510.000000   1959083   1959080   1959052   1959021   1959016  
  7500.000000   1959085   1959281   1959658   1960254   1961081  
  7490.000000   1962105   1963259   1964438   1965534   1966453  
  7480.000000   1967151   1967633   1967955   1968200   1968464  
  7470.000000   1968821   1969325   1969988   1970796   1971705  
  7460.000000   1972658   1973587   1974431   1975153   1975752  
  7450.000000   1976276   1976804   1977435   1978256   1979311  
  7440.000000   1980587   1982005   1983462   1984844   1986072  
  7430.000000   1987106   1987958   1988664   1989274   1989824  
  7420.000000   1990343   1990853   1991384   1991981   1992699  
  7410.000000   1993591   1994690   1995994   1997459   1999011  
  7400.000000   2000559   2002017   2003321   2004430   2005339  
  7390.000000   2006066   2006653   2007163   2007660   2008210  
  7380.000000   2008861   2009633   2010504   2011429   2012342  
  7370.000000   2013189   2013935   2014580   2015149   2015679  
  7360.000000   2016204   2016740   2017286   2017837   2018392  
  7350.000000   2018974   2019628   2020411   2021372   2022530  
  7340.000000   2023863   2025306   2026767   2028144   2029359  
  7330.000000   2030361   2031153   2031773   2032301   2032823  
  7320.000000   2033419   2034134   2034979   2035926   2036927  
  7310.000000   2037932   2038910   2039867   2040828   2041839  
  7300.000000   2042926   2044099   2045334   2046585   2047807  
  7290.000000   2048960   2050031   2051007   2051877   2052612  
  7280.000000   2053166   2053501   2053603   2053526   2053380  
  7270.000000   2053334   2053558   2054181   2055233   2056640  
  7260.000000   2058233   2059796   2061124   2062073   2062599  
  7250.000000   2062745   2062637   2062426   2062270   2062293  
  7240.000000   2062579   2063162   2064038   2065168   2066499  
  7230.000000   2067969   2069522   2071106   2072683   2074219  
  7220.000000   2075696   2077082   2078367   2079530   2080587  
  7210.000000   2081565   2082535   2083580   2084798   2086262  
  7200.000000   2088016   2090054   2092341   2094808   2097390  
  7190.000000   2100021   2102656   2105254   2107794   2110247  
  7180.000000   2112609   2114873   2117067   2119217   2121382  
  7170.000000   2123605   2125933   2128384   2130963   2133651  
  7160.000000   2136426   2139259   2142138   2145054   2148019  
  7150.000000   2151042   2154148   2157340   2160627   2163978  
  7140.000000   2167361   2170721   2174026   2177255   2180447  
  7130.000000   2183661   2186999   2190535   2194328   2198357  
  7120.000000   2202555   2206800   2210983   2215018   2218901  
  7110.000000   2222679   2226457   2230335   2234401   2238686  
  7100.000000   2243191   2247874   2252695   2257602   2262559  
  7090.000000   2267517   2272433   2277254   2281945   2286488  
  7080.000000   2290910   2295269   2299648   2304121   2308740  
  7070.000000   2313507   2318392   2323336   2328284   2333187  
  7060.000000   2338022   2342774   2347439   2352009   2356488  
  7050.000000   2360889   2365243   2369597   2374005   2378507  
  7040.000000   2383124   2387848   2392653   2397509   2402391  
  7030.000000   2407287   2412185   2417072   2421917   2426680  
  7020.000000   2431321   2435824   2440196   2444481   2448729  
  7010.000000   2452983   2457248   2461501   2465688   2469762  
  7000.000000   2473695   2477504   2481224   2484910   2488587  
  6990.000000   2492261   2495897   2499460   2502913   2506258  
  6980.000000   2509511   2512714   2515887   2519040   2522144  
  6970.000000   2525166   2528059   2530806   2533402   2535869  
  6960.000000   2538227   2540503   2542703   2544844   2546934  
  6950.000000   2548999   2551058   2553142   2555253   2557390  
  6940.000000   2559522   2561624   2563664   2565633   2567519  
  6930.000000   2569329   2571056   2572698   2574242   2575682  
  6920.000000   2577017   2578260   2579420   2580511   2581532  
  6910.000000   2582481   2583354   2584169   2584958   2585778  
  6900.000000   2586678   2587704   2588863   2590134   2591468  
  6890.000000   2592812   2594114   2595348   2596495   2597547  
  6880.000000   2598494   2599324   2600029   2600618   2601121  
  6870.000000   2601592   2602089   2602665   2603342   2604111  
  6860.000000   2604934   2605766   2606557   2607280   2607915  
  6850.000000   2608463   2608924   2609311   2609644   2609959  
  6840.000000   2610301   2610721   2611246   2611870   2612542  
  6830.000000   2613178   2613684   2613990   2614069   2613955  
  6820.000000   2613716   2613442   2613207   2613057   2613004  
  6810.000000   2613036   2613133   2613274   2613444   2613624  
  6800.000000   2613788   2613903   2613936   2613870   2613713  
  6790.000000   2613506   2613307   2613183   2613181   2613320  
  6780.000000   2613588   2613945   2614330   2614677   2614915  
  6770.000000   2614986   2614846   2614490   2613947   2613294  
  6760.000000   2612633   2612074   2611698   2611532   2611543  
  6750.000000   2611653   2611763   2611798   2611720   2611543  
  6740.000000   2611308   2611063   2610840   2610643   2610462  
  6730.000000   2610283   2610110   2609957   2609841   2609764  
  6720.000000   2609695   2609582   2609363   2609006   2608517  
  6710.000000   2607953   2607394   2606913   2606538   2606247  
  6700.000000   2605970   2605629   2605163   2604565   2603869  
  6690.000000   2603145   2602457   2601848   2601321   2600849  
  6680.000000   2600390   2599907   2599379   2598800   2598172  
  6670.000000   2597502   2596793   2596056   2595304   2594564  
  6660.000000   2593860   2593215   2592629   2592085   2591540  
  6650.000000   2590951   2590276   2589487   2588570   2587521  
  6640.000000   2586340   2585034   2583615   2582115   2580578  
  6630.000000   2579061   2577615   2576277   2575049   2573910  
  6620.000000   2572818   2571737   2570640   2569523   2568392  
  6610.000000   2567256   2566112   2564944   2563729   2562449  
  6600.000000   2561102   2559698   2558253   2556780   2555275  
  6590.000000   2553732   2552147   2550542   2548962   2547477  
  6580.000000   2546147   2545001   2544016   2543116   2542198  
  6570.000000   2541158   2539935   2538520   2536957   2535319  
  6560.000000   2533680   2532089   2530568   2529110   2527704  
  6550.000000   2526343   2525031   2523782   2522601   2521486  
  6540.000000   2520419   2519373   2518326   2517261   2516174  
  6530.000000   2515065   2513937   2512791   2511632   2510468  
  6520.000000   2509317   2508204   2507152   2506174   2505268  
  6510.000000   2504415   2503586   2502758   2501919   2501069  
  6500.000000   2500217   2499371   2498534   2497697   2496854  
  6490.000000   2496000   2495140   2494283   2493433   2492581  
  6480.000000   2491700   2490761   2489743   2488655   2487533  
  6470.000000   2486436   2485417   2484500   2483666   2482860  
  6460.000000   2482014   2481071   2480021   2478893   2477751  
  6450.000000   2476659   2475656   2474744   2473895   2473072  
  6440.000000   2472253   2471440   2470666   2469968   2469375  
  6430.000000   2468883   2468465   2468069   2467650   2467174  
  6420.000000   2466635   2466036   2465399   2464737   2464072  
  6410.000000   2463421   2462816   2462287   2461867   2461571  
  6400.000000   2461390   2461287   2461209   2461102   2460934  
  6390.000000   2460695   2460405   2460094   2459797   2459537  
  6380.000000   2459326   2459169   2459065   2459011   2458997  
  6370.000000   2459002   2458987   2458911   2458731   2458432  
  6360.000000   2458024   2457549   2457057   2456593   2456175  
  6350.000000   2455792   2455413   2455009   2454564   2454091  
  6340.000000   2453611   2453145   2452692   2452228   2451709  
  6330.000000   2451097   2450376   2449569   2448726   2447913  
  6320.000000   2447180   2446554   2446016   2445527   2445035  
  6310.000000   2444500   2443893   2443213   2442460   2441646  
  6300.000000   2440778   2439864   2438912   2437935   2436935  
  6290.000000   2435915   2434857   2433747   2432567   2431328  
  6280.000000   2430056   2428811   2427648   2426614   2425707  
  6270.000000   2424892   2424091   2423218   2422201   2421004  
  6260.000000   2419630   2418114   2416503   2414843   2413164  
  6250.000000   2411491   2409841   2408236   2406702   2405262  
  6240.000000   2403921   2402668   2401469   2400284   2399076  
  6230.000000   2397826   2396533   2395211   2393877   2392542  
  6220.000000   2391205   2389859   2388494   2387108   2385710  
  6210.000000   2384315   2382942   2381602   2380295   2379008  
  6200.000000   2377721   2376409   2375052   2373641   2372177  
  6190.000000   2370678   2369175   2367709   2366322   2365046  
  6180.000000   2363895   2362859   2361908   2360999   2360094  
  6170.000000   2359166   2358207   2357226   2356236   2355247  
  6160.000000   2354258   2353262   2352250   2351222   2350188  
  6150.000000   2349163   2348161   2347185   2346220   2345242  
  6140.000000   2344229   2343171   2342079   2340974   2339879  
  6130.000000   2338802   2337732   2336641   2335506   2334316  
  6120.000000   2333093   2331877   2330721   2329661   2328711  
  6110.000000   2327852   2327049   2326266   2325489   2324722  
  6100.000000   2323994   2323328   2322746   2322239   2321791  
  6090.000000   2321376   2320982   2320605   2320258   2319946  
  6080.000000   2319673   2319422   2319182   2318944   2318723  
  6070.000000   2318549   2318468   2318508   2318680   2318956  
  6060.000000   2319292   2319630   2319939   2320201   2320440  
  6050.000000   2320682   2320968   2321313   2321738   2322239  
  6040.000000   2322838   2323550   2324411   2325443   2326659  
  6030.000000   2328034   2329535   2331099   2332685   2334260  
  6020.000000   2335826   2337389   2338977   2340596   2342257  
  6010.000000   2343948   2345672   2347422   2349213   2351048  
  6000.000000   2352938   2354868   2356831   2358804   2360789  
  5990.000000   2362795   2364861   2367021   2369315   2371752  
  5980.000000   2374324   2376990   2379712   2382442   2385163  
  5970.000000   2387862   2390558   2393268   2396024   2398841  
  5960.000000   2401742   2404730   2407810   2410961   2414166  
  5950.000000   2417390   2420609   2423804   2426983   2430167  
  5940.000000   2433397   2436714   2440145   2443698   2447356  
  5930.000000   2451088   2454857   2458632   2462387   2466104  
  5920.000000   2469761   2473335   2476793   2480104   2483241  
  5910.000000   2486196   2488971   2491585   2494061   2496431  
  5900.000000   2498719   2500961   2503186   2505431   2507717  
  5890.000000   2510064   2512460   2514886   2517303   2519684  
  5880.000000   2522004   2524266   2526475   2528644   2530772  
  5870.000000   2532845   2534842   2536739   2538534   2540243  
  5860.000000   2541904   2543565   2545263   2547022   2548844  
  5850.000000   2550724   2552656   2554645   2556708   2558862  
  5840.000000   2561114   2563453   2565850   2568265   2570666  
  5830.000000   2573034   2575374   2577702   2580037   2582389  
  5820.000000   2584752   2587111   2589445   2591740   2593989  
  5810.000000   2596197   2598357   2600469   2602511   2604480  
  5800.000000   2606358   2608171   2609933   2611695   2613465  
  5790.000000   2615265   2617050   2618776   2620344   2621674  
  5780.000000   2622655   2623211   2623260   2622772   2621731  
  5770.000000   2620190   2618227   2615982   2613590   2611198  
  5760.000000   2608902   2606770   2604804   2602997   2601311  
  5750.000000   2599738   2598268   2596916   2595689   2594586  
  5740.000000   2593589   2592663   2591775   2590889   2589992  
  5730.000000   2589073   2588145   2587212   2586291   2585389  
  5720.000000   2584524   2583706   2582946   2582244   2581596  
  5710.000000   2580983   2580392   2579811   2579249   2578722  
  5700.000000   2578251   2577848   2577504   2577190   2576864  
  5690.000000   2576493   2576061   2575586   2575102   2574659  
  5680.000000   2574277   2573959   2573660   2573320   2572862  
  5670.000000   2572226   2571365   2570261   2568908   2567320  
  5660.000000   2565516   2563536   2561430   2559272   2557134  
  5650.000000   2555088   2553177   2551417   2549788   2548255  
  5640.000000   2546770   2545303   2543838   2542375   2540926  
  5630.000000   2539501   2538113   2536767   2535476   2534249  
  5620.000000   2533099   2532029   2531033   2530088   2529168  
  5610.000000   2528242   2527298   2526338   2525383   2524458  
  5600.000000   2523588   2522779   2522026   2521309   2520611  
  5590.000000   2519920   2519233   2518552   2517874   2517191  
  5580.000000   2516487   2515748   2514967   2514150   2513311  
  5570.000000   2512470   2511636   2510808   2509967   2509092  
  5560.000000   2508163   2507177   2506144   2505086   2504028  
  5550.000000   2502989   2501977   2500995   2500038   2499104  
  5540.000000   2498190   2497293   2496402   2495501   2494573  
  5530.000000   2493605   2492597   2491563   2490530   2489524  
  5520.000000   2488566   2487660   2486793   2485946   2485095  
  5510.000000   2484221   2483310   2482354   2481345   2480279  
  5500.000000   2479154   2477981   2476782   2475591   2474439  
  5490.000000   2473344   2472298   2471271   2470213   2469084  
  5480.000000   2467855   2466534   2465147   2463736   2462334  
  5470.000000   2460959   2459598   2458227   2456810   2455322  
  5460.000000   2453747   2452082   2450331   2448503   2446607  
  5450.000000   2444663   2442695   2440739   2438832   2437006  
  5440.000000   2435276   2433642   2432093   2430613   2429192  
  5430.000000   2427818   2426484   2425167   2423844   2422479  
  5420.000000   2421062   2419596   2418135   2416744   2415509  
  5410.000000   2414480   2413671   2413035   2412511   2412023  
  5400.000000   2411540   2411054   2410606   2410236   2409992  
  5390.000000   2409880   2409900   2410020   2410236   2410541  
  5380.000000   2410969   2411535   2412264   2413131   2414119  
  5370.000000   2415171   2416271   2417394   2418573   2419818  
  5360.000000   2421186   2422678   2424339   2426160   2428194  
  5350.000000   2430451   2433013   2435897   2439171   2442813  
  5340.000000   2446848   2451221   2455962   2461029   2466475  
  5330.000000   2472264   2478438   2484929   2491761   2498865  
  5320.000000   2506307   2514078   2522309   2531027   2540372  
  5310.000000   2550331   2560980   2572244   2584159   2596647  
  5300.000000   2609770   2623492   2637921   2653049   2668991  
  5290.000000   2685716   2703283   2721592   2740613   2760188  
  5280.000000   2780269   2800741   2821643   2842977   2864870  
  5270.000000   2887361   2910511   2934235   2958417   2982855  
  5260.000000   3007386   3031894   3056353   3080805   3105294  
  5250.000000   3129837   3154339   3178663   3202572   3225914  
  5240.000000   3248529   3270439   3291655   3312333   3332519  
  5230.000000   3352327   3371696   3390613   3408915   3426559  
  5220.000000   3443414   3459529   3474881   3489617   3503762  
  5210.000000   3517453   3530649   3543387   3555524   3567037  
  5200.000000   3577784   3587808   3597064   3605685   3613675  
  5190.000000   3621157   3628089   3634524   3640370   3645661  
  5180.000000   3650326   3654441   3657974   3661013   3663520  
  5170.000000   3665552   3667052   3668074   3668582   3668657  
  5160.000000   3668289   3667560   3666447   3665002   3663181  
  5150.000000   3661027   3658511   3655689   3652549   3649145  
  5140.000000   3645456   3641522   3637323   3632907   3628285  
  5130.000000   3623523   3618643   3613694   3608668   3603571  
  5120.000000   3598370   3593064   3587638   3582121   3576537  
  5110.000000   3570932   3565334   3559774   3554266   3548823  
  5100.000000   3543449   3538151   3532928   3527778   3522691  
  5090.000000   3517658   3512670   3507727   3502832   3497996  
  5080.000000   3493224   3488513   3483848   3479208   3474563  
  5070.000000   3469899   3465200   3460469   3455705   3450911  
  5060.000000   3446073   3441178   3436201   3431132   3425956  
  5050.000000   3420681   3415309   3409857   3404323   3398713  
  5040.000000   3393018   3387243   3381388   3375470   3369507  
  5030.000000   3363520   3357527   3351542   3345576   3339641  
  5020.000000   3333753   3327927   3322187   3316543   3311009  
  5010.000000   3305579   3300255   3295023   3289892   3284858  
  5000.000000   3279946   3275162   3270537   3266070   3261789  
  4990.000000   3257685   3253791   3250100   3246652   3243439  
  4980.000000   3240492   3237783   3235329   3233089   3231087  
  4970.000000   3229302   3227785   3226538   3225629   3225049  
  4960.000000   3224844   3224976   3225464   3226255   3227371  
  4950.000000   3228775   3230509   3232555   3234963   3237712  
  4940.000000   3240846   3244331   3248199   3252401   3256956  
  4930.000000   3261805   3266961   3272371   3278056   3283986  
  4920.000000   3290205   3296700   3303517   3310637   3318081  
  4910.000000   3325809   3333818   3342064   3350540   3359215  
  4900.000000   3368080   3377107   3386276   3395551   3404896  
  4890.000000   3414274   3423644   3432977   3442225   3451360  
  4880.000000   3460321   3469076   3477555   3485730   3493534  
  4870.000000   3500951   3507924   3514454   3520499   3526082  
  4860.000000   3531184   3535854   3540093   3543969   3547488  
  4850.000000   3550710   3553635   3556311   3558729   3560933  
  4840.000000   3562913   3564710   3566318   3567777   3569091  
  4830.000000   3570305   3571441   3572552   3573669   3574838  
  4820.000000   3576074   3577391   3578773   3580200   3581643  
  4810.000000   3583078   3584489   3585873   3587241   3588611  
  4800.000000   3590008   3591457   3592980   3594591   3596297  
  4790.000000   3598094   3599969   3601902   3603872   3605860  
  4780.000000   3607852   3609843   3611826   3613800   3615751  
  4770.000000   3617664   3619511   3621271   3622921   3624458  
  4760.000000   3625883   3627219   3628481   3629696   3630870  
  4750.000000   3632012   3633108   3634152   3635122   3636012  
  4740.000000   3636803   3637495   3638080   3638563   3638947  
  4730.000000   3639245   3639466   3639627   3639738   3639805  
  4720.000000   3639832   3639821   3639775   3639704   3639629  
  4710.000000   3639576   3639582   3639676   3639886   3640221  
  4700.000000   3640687   3641272   3641971   3642770   3643676  
  4690.000000   3644688   3645824   3647090   3648501   3650045  
  4680.000000   3651716   3653479   3655306   3657148   3658979  
  4670.000000   3660758   3662485   3664152   3665792   3667425  
  4660.000000   3669102   3670851   3672718   3674718   3676878  
  4650.000000   3679199   3681689   3684342   3687156   3690117  
  4640.000000   3693214   3696425   3699728   3703095   3706498  
  4630.000000   3709905   3713287   3716617   3719868   3723023  
  4620.000000   3726057   3728956   3731694   3734255   3736610  
  4610.000000   3738748   3740652   3742338   3743818   3745145  
  4600.000000   3746354   3747504   3748614   3749713   3750777  
  4590.000000   3751795   3752716   3753523   3754182   3754696  
  4580.000000   3755058   3755289   3755385   3755359   3755193  
  4570.000000   3754889   3754426   3753814   3753051   3752167  
  4560.000000   3751176   3750117   3749005   3747866   3746699  
  4550.000000   3745512   3744290   3743030   3741716   3740345  
  4540.000000   3738911   3737419   3735878   3734302   3732710  
  4530.000000   3731110   3729518   3727933   3726369   3724823  
  4520.000000   3723320   3721868   3720510   3719260   3718170  
  4510.000000   3717245   3716538   3716044   3715828   3715889  
  4500.000000   3716311   3717101   3718355   3720073   3722346  
  4490.000000   3725164   3728616   3732690   3737472   3742939  
  4480.000000   3749159   3756078   3763721   3772000   3780913  
  4470.000000   3790365   3800359   3810819   3821766   3833136  
  4460.000000   3844945   3857121   3869652   3882448   3895473  
  4450.000000   3908637   3921905   3935216   3948556   3961905  
  4440.000000   3975264   3988635   4002011   4015387   4028723  
  4430.000000   4041999   4055144   4068134   4080888   4093395  
  4420.000000   4105581   4117450   4128935   4140043   4150699  
  4410.000000   4160894   4170535   4179596   4187982   4195682  
  4400.000000   4202642   4208905   4214484   4219490   4223991  
  4390.000000   4228133   4232003   4235742   4239419   4243137  
  4380.000000   4246927   4250840   4254865   4259015   4263265  
  4370.000000   4267616   4272054   4276590   4281220   4285957  
  4360.000000   4290794   4295733   4300751   4305844   4310963  
  4350.000000   4316104   4321192   4326226   4331128   4335918  
  4340.000000   4340540   4345020   4349270   4353217   4356625  
  4330.000000   4359221   4360611   4360445   4358427   4354476  
  4320.000000   4348721   4341560   4333540   4325316   4317459  
  4310.000000   4310435   4304473   4299649   4295855   4292931  
  4300.000000   4290681   4288949   4287622   4286621   4285912  
  4290.000000   4285450   4285236   4285237   4285477   4285946  
  4280.000000   4286666   4287630   4288821   4290208   4291740  
  4270.000000   4293373   4295036   4296661   4298118   4299253  
  4260.000000   4299839   4299644   4298432   4296058   4292473  
  4250.000000   4287790   4282232   4276138   4269850   4263712  
  4240.000000   4257952   4252729   4248057   4243896   4240121  
  4230.000000   4236617   4233252   4229933   4226596   4223202  
  4220.000000   4219759   4216277   4212817   4209420   4206177  
  4210.000000   4203137   4200379   4197926   4195814   4194020  
  4200.000000   4192534   4191298   4190281   4189419   4188696  
  4190.000000   4188061   4187527   4187066   4186716   4186462  
  4180.000000   4186352   4186375   4186582   4186963   4187577  
  4170.000000   4188430   4189601   4191115   4193061   4195462  
  4160.000000   4198388   4201818   4205772   4210177   4215017  
  4150.000000   4220197   4225707   4231475   4237531   4243848  
  4140.000000   4250498   4257480   4264883   4272699   4280995  
  4130.000000   4289734   4298947   4308568   4318613   4329021  
  4120.000000   4339822   4350988   4362574   4374582   4387074  
  4110.000000   4400043   4413519   4427452   4441817   4456518  
  4100.000000   4471495   4486650   4501940   4517316   4532784  
  4090.000000   4548349   4564038   4579861   4595817   4611891  
  4080.000000   4628047   4644267   4660505   4676756   4692966  
  4070.000000   4709118   4725120   4740924   4756405   4771517  
  4060.000000   4786148   4800289   4813854   4826864   4839252  
  4050.000000   4851069   4862275   4872966   4883124   4892853  
  4040.000000   4902100   4910911   4919160   4926847   4933833  
  4030.000000   4940148   4945706   4950581   4954726   4958207  
  4020.000000   4960949   4963017   4964406   4965204   4965371  
  4010.000000   4965037   4964264   4963036   4961096   4958479  
  4000.000000   4955518  
##END= 
