##TITLE= Sample 023 By ssteindl date Montag, November 19 2018
##JCAMP-DX= 4.24
##DATA TYPE= INFRARED SPECTRUM
##ORIGIN= Exported PE Spectrum Data File
##OWNER= Sandra Steindl
##DATE= 18/11/19
##TIME= 16:39:51.00
##SPECTROMETER/DATA SYSTEM= PERKIN-ELMER Frontier FT-IR/NIR IR
##INSTRUMENT PARAMETERS=
  APODIZATION=stark
  DETECTOR=INGAAS
##RESOLUTION= 16.000000
##DELTAX= -2.000000
##XUNITS= 1/CM
##YUNITS= A
##XFACTOR= 1.00
##YFACTOR= 0.00000011920928955078
##FIRSTX= 10000.00
##LASTX= 4000.00
##NPOINTS= 3001
##FIRSTY= 0.170335
##MAXY= 0.604324
##MINY= 0.147423
##XYDATA= (X++(Y..Y))
 10000.000000   1428873   1422064   1415766   1410765   1407533  
  9990.000000   1406059   1406258   1407990   1411032   1414950  
  9980.000000   1419144   1422839   1425272   1425916   1424847  
  9970.000000   1422716   1420671   1419804   1420785   1423412  
  9960.000000   1426731   1429330   1429912   1427834   1423303  
  9950.000000   1417389   1411551   1407223   1405322   1406119  
  9940.000000   1409237   1413873   1418987   1423473   1426295  
  9930.000000   1426624   1424065   1418798   1411721   1404251  
  9920.000000   1398026   1394318   1393642   1395488   1398566  
  9910.000000   1401291   1402432   1401659   1399578   1397543  
  9900.000000   1396894   1398490   1402253   1407345   1412565  
  9890.000000   1416873   1419817   1421474   1422266   1422439  
  9880.000000   1421868   1419984   1416153   1410053   1402059  
  9870.000000   1393237   1385069   1378966   1375750   1375532  
  9860.000000   1377688   1381348   1385639   1390050   1394363  
  9850.000000   1398519   1402411   1405717   1408014   1408860  
  9840.000000   1408090   1405817   1402479   1398595   1394659  
  9830.000000   1391023   1387924   1385617   1384343   1384377  
  9820.000000   1385740   1388179   1391004   1393339   1394340  
  9810.000000   1393572   1391180   1387841   1384514   1381978  
  9800.000000   1380577   1380016   1379625   1378626   1376559  
  9790.000000   1373436   1369711   1366045   1363021   1360992  
  9780.000000   1360062   1360207   1361418   1363716   1367108  
  9770.000000   1371394   1376092   1380447   1383646   1385128  
  9760.000000   1384832   1383288   1381450   1380341   1380684  
  9750.000000   1382620   1385704   1389070   1391777   1393093  
  9740.000000   1392703   1390696   1387452   1383469   1379230  
  9730.000000   1375191   1371752   1369323   1368224   1368644  
  9720.000000   1370505   1373479   1377016   1380552   1383602  
  9710.000000   1385922   1387430   1388175   1388176   1387397  
  9700.000000   1385791   1383382   1380424   1377351   1374701  
  9690.000000   1372847   1371789   1371081   1369918   1367510  
  9680.000000   1363369   1357680   1351231   1345294   1341106  
  9670.000000   1339539   1340730   1344086   1348468   1352523  
  9660.000000   1355132   1355561   1353676   1349708   1344222  
  9650.000000   1337814   1331103   1324601   1318791   1314118  
  9640.000000   1311007   1309846   1310842   1314012   1319017  
  9630.000000   1325286   1332020   1338392   1343685   1347357  
  9620.000000   1349187   1349142   1347490   1344560   1340818  
  9610.000000   1336662   1332488   1328624   1325350   1322938  
  9600.000000   1321566   1321393   1322410   1324540   1327527  
  9590.000000   1331067   1334775   1338270   1341201   1343259  
  9580.000000   1344247   1344063   1342800   1340689   1338120  
  9570.000000   1335544   1333376   1331905   1331189   1331104  
  9560.000000   1331346   1331618   1331660   1331391   1330831  
  9550.000000   1330093   1329266   1328345   1327270   1325894  
  9540.000000   1324175   1322095   1319793   1317406   1315064  
  9530.000000   1312825   1310654   1308591   1306753   1305538  
  9520.000000   1305484   1307232   1311211   1317421   1325260  
  9510.000000   1333544   1340770   1345429   1346449   1343407  
  9500.000000   1336720   1327466   1317210   1307584   1299981  
  9490.000000   1295254   1293573   1294478   1297013   1300056  
  9480.000000   1302552   1303831   1303681   1302398   1300619  
  9470.000000   1299110   1298525   1299177   1301019   1303646  
  9460.000000   1306518   1309114   1311117   1312453   1313246  
  9450.000000   1313709   1314021   1314232   1314267   1313923  
  9440.000000   1312976   1311236   1308632   1305274   1301439  
  9430.000000   1297587   1294252   1291998   1291258   1292269  
  9420.000000   1294915   1298729   1302881   1306398   1308381  
  9410.000000   1308306   1306209   1302672   1298697   1295347  
  9400.000000   1293449   1293269   1294446   1296074   1297069  
  9390.000000   1296569   1294288   1290623   1286481   1282958  
  9380.000000   1280925   1280778   1282310   1284828   1287451  
  9370.000000   1289440   1290488   1290740   1290655   1290740  
  9360.000000   1291316   1292402   1293748   1294954   1295673  
  9350.000000   1295723   1295155   1294176   1293027   1291895  
  9340.000000   1290867   1289993   1289319   1288934   1288903  
  9330.000000   1289205   1289647   1289897   1289580   1288445  
  9320.000000   1286519   1284148   1281926   1280450   1280073  
  9310.000000   1280733   1281969   1283116   1283591   1283141  
  9300.000000   1281952   1280577   1279692   1279796   1280980  
  9290.000000   1282910   1284984   1286594   1287339   1287148  
  9280.000000   1286240   1285011   1283837   1282959   1282428  
  9270.000000   1282170   1282078   1282042   1281947   1281612  
  9260.000000   1280796   1279265   1276900   1273807   1270341  
  9250.000000   1267074   1264619   1263425   1263592   1264832  
  9240.000000   1266578   1268210   1269278   1269626   1269408  
  9230.000000   1268934   1268528   1268331   1268306   1268258  
  9220.000000   1268016   1267497   1266782   1266064   1265556  
  9210.000000   1265418   1265675   1266293   1267189   1268335  
  9200.000000   1269717   1271299   1272960   1274456   1275485  
  9190.000000   1275729   1274988   1273223   1270627   1267538  
  9180.000000   1264385   1261547   1259318   1257870   1257271  
  9170.000000   1257527   1258550   1260204   1262241   1264388  
  9160.000000   1266367   1268018   1269334   1270432   1271489  
  9150.000000   1272600   1273742   1274685   1275112   1274697  
  9140.000000   1273317   1271094   1268404   1265763   1263649  
  9130.000000   1262388   1262031   1262456   1263408   1264698  
  9120.000000   1266194   1267883   1269750   1271747   1273715  
  9110.000000   1275414   1276569   1276941   1276417   1274996  
  9100.000000   1272816   1270069   1266998   1263852   1260858  
  9090.000000   1258218   1256045   1254385   1253180   1252320  
  9080.000000   1251655   1251089   1250609   1250291   1250235  
  9070.000000   1250486   1250969   1251475   1251752   1251583  
  9060.000000   1250934   1249956   1248985   1248353   1248277  
  9050.000000   1248701   1249334   1249721   1249463   1248366  
  9040.000000   1246559   1244445   1242573   1241444   1241350  
  9030.000000   1242315   1244119   1246409   1248820   1251075  
  9020.000000   1253025   1254641   1255950   1257005   1257836  
  9010.000000   1258473   1258934   1259252   1259457   1259561  
  9000.000000   1259545   1259366   1258976   1258334   1257409  
  8990.000000   1256180   1254621   1252696   1250378   1247690  
  8980.000000   1244761   1241840   1239271   1237440   1236673  
  8970.000000   1237129   1238714   1241108   1243842   1246419  
  8960.000000   1248459   1249767   1250414   1250633   1250763  
  8950.000000   1251081   1251765   1252806   1254047   1255247  
  8940.000000   1256177   1256726   1256917   1256942   1257062  
  8930.000000   1257545   1258532   1259984   1261674   1263218  
  8920.000000   1264196   1264262   1263277   1261340   1258784  
  8910.000000   1256097   1253806   1252367   1252044   1252883  
  8900.000000   1254702   1257169   1259871   1262417   1264521  
  8890.000000   1266045   1267021   1267591   1267963   1268305  
  8880.000000   1268719   1269193   1269645   1269988   1270195  
  8870.000000   1270359   1270657   1271318   1272489   1274183  
  8860.000000   1276216   1278236   1279837   1280661   1280550  
  8850.000000   1279546   1277904   1275987   1274195   1272872  
  8840.000000   1272234   1272402   1273377   1275120   1277506  
  8830.000000   1280382   1283535   1286728   1289716   1292262  
  8820.000000   1294191   1295356   1295702   1295191   1293872  
  8810.000000   1291847   1289336   1286674   1284279   1282607  
  8800.000000   1282016   1282722   1284690   1287666   1291213  
  8790.000000   1294823   1298040   1300519   1302079   1302677  
  8780.000000   1302413   1301480   1300177   1298868   1297974  
  8770.000000   1297881   1298858   1300953   1303941   1307365  
  8760.000000   1310636   1313202   1314702   1315050   1314452  
  8750.000000   1313295   1312039   1311054   1310571   1310659  
  8740.000000   1311280   1312362   1313841   1315684   1317845  
  8730.000000   1320252   1322773   1325240   1327482   1329354  
  8720.000000   1330794   1331781   1332377   1332638   1332668  
  8710.000000   1332565   1332482   1332596   1333101   1334162  
  8700.000000   1335849   1338134   1340861   1343825   1346790  
  8690.000000   1349596   1352158   1354477   1356600   1358559  
  8680.000000   1360378   1362016   1363428   1364541   1365311  
  8670.000000   1365703   1365713   1365376   1364783   1364114  
  8660.000000   1363624   1363628   1364422   1366201   1368959  
  8650.000000   1372457   1376252   1379821   1382705   1384665  
  8640.000000   1385741   1386248   1386661   1387473   1389030  
  8630.000000   1391435   1394519   1397902   1401117   1403723  
  8620.000000   1405428   1406108   1405839   1404839   1403438  
  8610.000000   1401985   1400788   1400070   1399953   1400470  
  8600.000000   1401584   1403254   1405441   1408138   1411312  
  8590.000000   1414883   1418677   1422421   1425775   1428409  
  8580.000000   1430141   1430962   1431106   1430946   1430929  
  8570.000000   1431402   1432523   1434216   1436214   1438179  
  8560.000000   1439798   1440934   1441623   1442100   1442651  
  8550.000000   1443570   1445019   1447010   1449384   1451870  
  8540.000000   1454173   1456017   1457229   1457740   1457614  
  8530.000000   1457000   1456094   1455103   1454215   1453580  
  8520.000000   1453299   1453432   1454000   1454989   1456329  
  8510.000000   1457913   1459587   1461186   1462557   1463601  
  8500.000000   1464325   1464819   1465262   1465846   1466736  
  8490.000000   1467997   1469575   1471320   1473044   1474586  
  8480.000000   1475879   1476950   1477931   1478961   1480141  
  8470.000000   1481450   1482753   1483843   1484521   1484704  
  8460.000000   1484483   1484156   1484139   1484872   1486636  
  8450.000000   1489473   1493106   1497007   1500514   1503034  
  8440.000000   1504226   1504079   1502928   1501310   1499821  
  8430.000000   1498905   1498746   1499231   1500049   1500844  
  8420.000000   1501360   1501562   1501610   1501830   1502532  
  8410.000000   1503928   1506013   1508584   1511306   1513807  
  8400.000000   1515813   1517165   1517873   1518045   1517864  
  8390.000000   1517505   1517109   1516764   1516516   1516393  
  8380.000000   1516414   1516619   1517051   1517777   1518842  
  8370.000000   1520263   1521973   1523837   1525645   1527159  
  8360.000000   1528165   1528545   1528329   1527695   1526926  
  8350.000000   1526316   1526084   1526310   1526901   1527653  
  8340.000000   1528301   1528650   1528608   1528230   1527654  
  8330.000000   1527058   1526575   1526250   1526038   1525817  
  8320.000000   1525461   1524865   1523993   1522863   1521556  
  8310.000000   1520202   1518946   1517951   1517351   1517248  
  8300.000000   1517677   1518596   1519872   1521303   1522654  
  8290.000000   1523703   1524294   1524346   1523870   1522937  
  8280.000000   1521680   1520243   1518791   1517461   1516377  
  8270.000000   1515618   1515200   1515079   1515141   1515255  
  8260.000000   1515302   1515229   1515055   1514872   1514791  
  8250.000000   1514901   1515222   1515692   1516196   1516612  
  8240.000000   1516865   1516949   1516915   1516839   1516752  
  8230.000000   1516637   1516403   1515953   1515221   1514221  
  8220.000000   1513044   1511833   1510710   1509728   1508829  
  8210.000000   1507888   1506756   1505364   1503752   1502078  
  8200.000000   1500549   1499344   1498523   1498002   1497566  
  8190.000000   1496957   1495975   1494562   1492828   1491008  
  8180.000000   1489371   1488120   1487318   1486878   1486596  
  8170.000000   1486242   1485641   1484730   1483580   1482337  
  8160.000000   1481163   1480157   1479321   1478561   1477729  
  8150.000000   1476691   1475382   1473848   1472234   1470750  
  8140.000000   1469591   1468882   1468620   1468679   1468841  
  8130.000000   1468858   1468525   1467728   1466472   1464868  
  8120.000000   1463100   1461363   1459817   1458550   1457561  
  8110.000000   1456785   1456114   1455442   1454694   1453846  
  8100.000000   1452921   1451977   1451076   1450255   1449506  
  8090.000000   1448767   1447946   1446941   1445685   1444178  
  8080.000000   1442495   1440777   1439191   1437891   1436965  
  8070.000000   1436418   1436170   1436073   1435969   1435699  
  8060.000000   1435162   1434298   1433108   1431631   1429946  
  8050.000000   1428165   1426436   1424932   1423831   1423274  
  8040.000000   1423326   1423940   1424945   1426078   1427035  
  8030.000000   1427544   1427438   1426680   1425382   1423746  
  8020.000000   1422021   1420427   1419116   1418149   1417501  
  8010.000000   1417093   1416812   1416560   1416258   1415878  
  8000.000000   1415426   1414940   1414466   1414032   1413636  
  7990.000000   1413225   1412719   1412023   1411079   1409886  
  7980.000000   1408534   1407182   1406025   1405236   1404905  
  7970.000000   1405013   1405428   1405953   1406381   1406561  
  7960.000000   1406439   1406057   1405540   1405027   1404641  
  7950.000000   1404427   1404365   1404365   1404317   1404121  
  7940.000000   1403732   1403168   1402514   1401897   1401445  
  7930.000000   1401257   1401364   1401717   1402205   1402675  
  7920.000000   1402986   1403045   1402843   1402442   1401963  
  7910.000000   1401535   1401262   1401194   1401327   1401615  
  7900.000000   1401996   1402412   1402812   1403153   1403386  
  7890.000000   1403467   1403360   1403072   1402657   1402223  
  7880.000000   1401897   1401787   1401926   1402258   1402642  
  7870.000000   1402902   1402893   1402553   1401922   1401122  
  7860.000000   1400293   1399545   1398907   1398340   1397765  
  7850.000000   1397135   1396468   1395858   1395431   1395294  
  7840.000000   1395459   1395837   1396242   1396464   1396341  
  7830.000000   1395812   1394938   1393868   1392784   1391838  
  7820.000000   1391112   1390604   1390253   1389970   1389670  
  7810.000000   1389294   1388804   1388193   1387461   1386641  
  7800.000000   1385782   1384964   1384281   1383813   1383602  
  7790.000000   1383612   1383741   1383825   1383694   1383219  
  7780.000000   1382353   1381153   1379760   1378365   1377145  
  7770.000000   1376233   1375674   1375436   1375423   1375512  
  7760.000000   1375578   1375524   1375285   1374829   1374149  
  7750.000000   1373260   1372194   1371001   1369756   1368540  
  7740.000000   1367446   1366540   1365860   1365389   1365068  
  7730.000000   1364804   1364506   1364106   1363585   1362971  
  7720.000000   1362329   1361734   1361248   1360902   1360701  
  7710.000000   1360623   1360647   1360746   1360903   1361088  
  7700.000000   1361257   1361350   1361303   1361070   1360647  
  7690.000000   1360084   1359480   1358953   1358600   1358467  
  7680.000000   1358529   1358702   1358871   1358930   1358808  
  7670.000000   1358484   1357975   1357320   1356560   1355736  
  7660.000000   1354887   1354064   1353332   1352762   1352410  
  7650.000000   1352294   1352381   1352590   1352816   1352962  
  7640.000000   1352974   1352847   1352631   1352392   1352199  
  7630.000000   1352085   1352058   1352100   1352198   1352356  
  7620.000000   1352601   1352965   1353468   1354096   1354794  
  7610.000000   1355474   1356053   1356470   1356723   1356858  
  7600.000000   1356967   1357142   1357452   1357916   1358497  
  7590.000000   1359117   1359688   1360141   1360460   1360676  
  7580.000000   1360869   1361126   1361516   1362058   1362719  
  7570.000000   1363418   1364067   1364596   1364994   1365301  
  7560.000000   1365608   1366010   1366582   1367346   1368276  
  7550.000000   1369303   1370358   1371386   1372376   1373341  
  7540.000000   1374318   1375332   1376397   1377501   1378634  
  7530.000000   1379784   1380968   1382206   1383530   1384950  
  7520.000000   1386456   1388009   1389567   1391089   1392566  
  7510.000000   1394006   1395445   1396906   1398409   1399942  
  7500.000000   1401490   1403026   1404548   1406065   1407613  
  7490.000000   1409230   1410950   1412795   1414770   1416867  
  7480.000000   1419072   1421361   1423708   1426071   1428404  
  7470.000000   1430643   1432738   1434643   1436353   1437888  
  7460.000000   1439305   1440678   1442094   1443629   1445341  
  7450.000000   1447255   1449370   1451652   1454047   1456490  
  7440.000000   1458926   1461321   1463679   1466027   1468414  
  7430.000000   1470881   1473449   1476107   1478822   1481552  
  7420.000000   1484266   1486958   1489639   1492328   1495025  
  7410.000000   1497710   1500337   1502860   1505255   1507531  
  7400.000000   1509730   1511907   1514097   1516292   1518445  
  7390.000000   1520490   1522383   1524132   1525812   1527543  
  7380.000000   1529448   1531607   1534020   1536610   1539259  
  7370.000000   1541860   1544350   1546740   1549089   1551481  
  7360.000000   1553973   1556580   1559265   1561960   1564596  
  7350.000000   1567111   1569474   1571659   1573659   1575470  
  7340.000000   1577101   1578590   1580009   1581467   1583072  
  7330.000000   1584926   1587077   1589528   1592219   1595067  
  7320.000000   1597978   1600874   1603683   1606343   1608786  
  7310.000000   1610949   1612785   1614290   1615513   1616558  
  7300.000000   1617546   1618593   1619757   1621046   1622393  
  7290.000000   1623721   1624943   1626023   1626951   1627758  
  7280.000000   1628476   1629138   1629761   1630358   1630952  
  7270.000000   1631571   1632252   1633014   1633853   1634728  
  7260.000000   1635587   1636380   1637105   1637795   1638540  
  7250.000000   1639420   1640503   1641781   1643200   1644651  
  7240.000000   1646050   1647349   1648603   1649920   1651465  
  7230.000000   1653371   1655725   1658512   1661661   1665028  
  7220.000000   1668477   1671871   1675133   1678215   1681132  
  7210.000000   1683908   1686615   1689311   1692074   1694944  
  7200.000000   1697963   1701125   1704427   1707838   1711354  
  7190.000000   1714960   1718669   1722481   1726411   1730444  
  7180.000000   1734582   1738811   1743152   1747617   1752248  
  7170.000000   1757057   1762057   1767201   1772447   1777717  
  7160.000000   1782981   1788215   1793461   1798757   1804171  
  7150.000000   1809732   1815464   1821342   1827346   1833425  
  7140.000000   1839558   1845707   1851870   1858027   1864195  
  7130.000000   1870383   1876641   1883010   1889562   1896334  
  7120.000000   1903363   1910632   1918117   1925761   1933529  
  7110.000000   1941377   1949289   1957227   1965169   1973057  
  7100.000000   1980863   1988551   1996145   2003686   2011251  
  7090.000000   2018901   2026676   2034568   2042543   2050554  
  7080.000000   2058581   2066635   2074760   2083001   2091375  
  7070.000000   2099842   2108314   2116676   2124838   2132759  
  7060.000000   2140479   2148082   2155679   2163352   2171132  
  7050.000000   2178997   2186885   2194739   2202522   2210253  
  7040.000000   2217970   2225734   2233578   2241508   2249477  
  7030.000000   2257413   2265222   2272823   2280148   2287175  
  7020.000000   2293911   2300416   2306767   2313064   2319375  
  7010.000000   2325755   2332188   2338636   2345015   2351264  
  7000.000000   2357331   2363230   2368984   2374656   2380269  
  6990.000000   2385839   2391327   2396697   2401903   2406942  
  6980.000000   2411821   2416587   2421259   2425856   2430344  
  6970.000000   2434701   2438884   2442905   2446781   2450575  
  6960.000000   2454318   2458033   2461671   2465170   2468435  
  6950.000000   2471413   2474082   2476492   2478720   2480873  
  6940.000000   2483021   2485213   2487433   2489649   2491800  
  6930.000000   2493860   2495815   2497705   2499579   2501508  
  6920.000000   2503531   2505665   2507866   2510059   2512143  
  6910.000000   2514028   2515654   2517022   2518179   2519222  
  6900.000000   2520246   2521342   2522547   2523867   2525264  
  6890.000000   2526696   2528118   2529508   2530850   2532134  
  6880.000000   2533341   2534442   2535409   2536224   2536899  
  6870.000000   2537477   2538024   2538618   2539320   2540171  
  6860.000000   2541175   2542317   2543565   2544879   2546215  
  6850.000000   2547522   2548747   2549836   2550752   2551481  
  6840.000000   2552048   2552513   2552958   2553469   2554110  
  6830.000000   2554915   2555874   2556958   2558106   2559265  
  6820.000000   2560367   2561362   2562199   2562850   2563303  
  6810.000000   2563581   2563729   2563817   2563905   2564044  
  6800.000000   2564245   2564495   2564751   2564975   2565131  
  6790.000000   2565210   2565202   2565114   2564935   2564659  
  6780.000000   2564276   2563800   2563255   2562696   2562172  
  6770.000000   2561725   2561358   2561048   2560742   2560387  
  6760.000000   2559936   2559370   2558686   2557898   2557022  
  6750.000000   2556076   2555079   2554064   2553067   2552135  
  6740.000000   2551298   2550568   2549921   2549314   2548688  
  6730.000000   2548001   2547231   2546384   2545479   2544533  
  6720.000000   2543546   2542508   2541400   2540223   2538997  
  6710.000000   2537769   2536584   2535475   2534438   2533438  
  6700.000000   2532418   2531332   2530153   2528895   2527589  
  6690.000000   2526277   2524978   2523694   2522403   2521086  
  6680.000000   2519728   2518338   2516929   2515516   2514091  
  6670.000000   2512632   2511103   2509482   2507763   2505975  
  6660.000000   2504156   2502349   2500572   2498823   2497080  
  6650.000000   2495322   2493540   2491746   2489957   2488184  
  6640.000000   2486413   2484613   2482734   2480750   2478660  
  6630.000000   2476509   2474363   2472292   2470337   2468498  
  6620.000000   2466733   2464976   2463162   2461249   2459225  
  6610.000000   2457107   2454927   2452722   2450530   2448390  
  6600.000000   2446339   2444415   2442641   2441015   2439504  
  6590.000000   2438050   2436579   2435025   2433351   2431554  
  6580.000000   2429658   2427706   2425744   2423808   2421927  
  6570.000000   2420123   2418416   2416815   2415315   2413882  
  6560.000000   2412457   2410964   2409339   2407547   2405613  
  6550.000000   2403606   2401626   2399770   2398106   2396656  
  6540.000000   2395402   2394303   2393318   2392412   2391563  
  6530.000000   2390737   2389891   2388965   2387900   2386655  
  6520.000000   2385231   2383673   2382063   2380490   2379030  
  6510.000000   2377723   2376575   2375566   2374666   2373849  
  6500.000000   2373085   2372348   2371602   2370808   2369934  
  6490.000000   2368970   2367943   2366901   2365908   2365001  
  6480.000000   2364178   2363387   2362549   2361587   2360460  
  6470.000000   2359183   2357819   2356458   2355177   2354025  
  6460.000000   2353003   2352082   2351221   2350387   2349560  
  6450.000000   2348734   2347904   2347055   2346165   2345217  
  6440.000000   2344204   2343142   2342063   2340998   2339968  
  6430.000000   2338971   2337989   2337000   2335995   2334987  
  6420.000000   2334006   2333080   2332225   2331427   2330653  
  6410.000000   2329865   2329042   2328193   2327351   2326558  
  6400.000000   2325846   2325216   2324648   2324103   2323553  
  6390.000000   2322986   2322418   2321867   2321347   2320847  
  6380.000000   2320335   2319770   2319122   2318393   2317613  
  6370.000000   2316837   2316114   2315477   2314924   2314431  
  6360.000000   2313964   2313494   2313006   2312498   2311963  
  6350.000000   2311388   2310743   2309998   2309136   2308169  
  6340.000000   2307133   2306089   2305088   2304164   2303314  
  6330.000000   2302513   2301714   2300886   2300009   2299090  
  6320.000000   2298143   2297190   2296227   2295247   2294221  
  6310.000000   2293132   2291961   2290716   2289407   2288058  
  6300.000000   2286679   2285283   2283859   2282401   2280882  
  6290.000000   2279279   2277561   2275707   2273700   2271550  
  6280.000000   2269280   2266946   2264602   2262310   2260100  
  6270.000000   2257983   2255935   2253927   2251918   2249887  
  6260.000000   2247822   2245729   2243606   2241450   2239239  
  6250.000000   2236947   2234549   2232039   2229427   2226750  
  6240.000000   2224052   2221379   2218762   2216218   2213741  
  6230.000000   2211317   2208918   2206520   2204101   2201649  
  6220.000000   2199161   2196645   2194117   2191594   2189088  
  6210.000000   2186605   2184140   2181682   2179224   2176761  
  6200.000000   2174303   2171865   2169464   2167107   2164793  
  6190.000000   2162504   2160221   2157927   2155621   2153312  
  6180.000000   2151021   2148767   2146564   2144412   2142308  
  6170.000000   2140245   2138221   2136240   2134304   2132410  
  6160.000000   2130545   2128684   2126801   2124871   2122889  
  6150.000000   2120865   2118822   2116788   2114789   2112835  
  6140.000000   2110935   2109085   2107287   2105539   2103843  
  6130.000000   2102189   2100562   2098934   2097281   2095583  
  6120.000000   2093845   2092086   2090346   2088665   2087082  
  6110.000000   2085613   2084265   2083025   2081877   2080799  
  6100.000000   2079773   2078775   2077794   2076806   2075809  
  6090.000000   2074801   2073803   2072837   2071939   2071127  
  6080.000000   2070417   2069797   2069259   2068779   2068355  
  6070.000000   2067981   2067670   2067423   2067249   2067131  
  6060.000000   2067063   2067022   2067013   2067032   2067104  
  6050.000000   2067239   2067461   2067772   2068185   2068698  
  6040.000000   2069325   2070075   2070965   2071994   2073162  
  6030.000000   2074439   2075798   2077199   2078625   2080060  
  6020.000000   2081514   2082991   2084503   2086040   2087594  
  6010.000000   2089141   2090668   2092162   2093628   2095073  
  6000.000000   2096511   2097947   2099390   2100838   2102299  
  5990.000000   2103778   2105292   2106851   2108469   2110146  
  5980.000000   2111881   2113664   2115488   2117347   2119246  
  5970.000000   2121186   2123176   2125214   2127302   2129431  
  5960.000000   2131597   2133790   2136005   2138228   2140451  
  5950.000000   2142659   2144848   2147015   2149174   2151339  
  5940.000000   2153534   2155770   2158053   2160372   2162708  
  5930.000000   2165037   2167343   2169613   2171849   2174057  
  5920.000000   2176246   2178422   2180592   2182759   2184929  
  5910.000000   2187104   2189289   2191482   2193679   2195874  
  5900.000000   2198064   2200256   2202466   2204716   2207030  
  5890.000000   2209422   2211889   2214412   2216965   2219512  
  5880.000000   2222032   2224505   2226929   2229297   2231610  
  5870.000000   2233858   2236037   2238143   2240189   2242193  
  5860.000000   2244187   2246199   2248258   2250376   2252565  
  5850.000000   2254834   2257194   2259658   2262244   2264957  
  5840.000000   2267792   2270728   2273735   2276782   2279840  
  5830.000000   2282893   2285926   2288929   2291880   2294757  
  5820.000000   2297526   2300165   2302657   2305010   2307229  
  5810.000000   2309338   2311336   2313233   2315006   2316658  
  5800.000000   2318170   2319566   2320841   2322023   2323093  
  5790.000000   2324051   2324850   2325466   2325855   2326006  
  5780.000000   2325896   2325534   2324909   2324033   2322907  
  5770.000000   2321565   2320047   2318428   2316781   2315187  
  5760.000000   2313696   2312340   2311115   2310009   2309001  
  5750.000000   2308085   2307260   2306535   2305916   2305396  
  5740.000000   2304966   2304605   2304304   2304056   2303872  
  5730.000000   2303759   2303730   2303777   2303895   2304059  
  5720.000000   2304261   2304485   2304736   2305015   2305328  
  5710.000000   2305670   2306040   2306429   2306843   2307291  
  5700.000000   2307794   2308370   2309033   2309781   2310595  
  5690.000000   2311449   2312311   2313158   2313969   2314736  
  5680.000000   2315451   2316113   2316713   2317251   2317719  
  5670.000000   2318117   2318435   2318669   2318799   2318816  
  5660.000000   2318705   2318473   2318132   2317714   2317245  
  5650.000000   2316754   2316244   2315714   2315150   2314548  
  5640.000000   2313914   2313273   2312653   2312083   2311570  
  5630.000000   2311107   2310669   2310231   2309775   2309300  
  5620.000000   2308818   2308347   2307896   2307466   2307044  
  5610.000000   2306613   2306158   2305675   2305165   2304635  
  5600.000000   2304085   2303515   2302918   2302297   2301653  
  5590.000000   2301007   2300369   2299746   2299120   2298460  
  5580.000000   2297720   2296865   2295875   2294760   2293546  
  5570.000000   2292276   2290982   2289688   2288400   2287124  
  5560.000000   2285860   2284619   2283411   2282244   2281113  
  5550.000000   2280002   2278887   2277751   2276590   2275422  
  5540.000000   2274275   2273175   2272130   2271128   2270138  
  5530.000000   2269128   2268080   2267000   2265916   2264868  
  5520.000000   2263883   2262970   2262110   2261269   2260405  
  5510.000000   2259490   2258511   2257471   2256381   2255252  
  5500.000000   2254090   2252903   2251693   2250474   2249255  
  5490.000000   2248049   2246849   2245641   2244395   2243090  
  5480.000000   2241705   2240247   2238727   2237172   2235597  
  5470.000000   2234012   2232403   2230762   2229071   2227328  
  5460.000000   2225534   2223695   2221812   2219883   2217899  
  5450.000000   2215861   2213776   2211668   2209565   2207491  
  5440.000000   2205457   2203455   2201475   2199502   2197544  
  5430.000000   2195619   2193760   2191986   2190309   2188712  
  5420.000000   2187182   2185697   2184268   2182912   2181675  
  5410.000000   2180578   2179642   2178838   2178146   2177524  
  5400.000000   2176975   2176507   2176172   2176000   2176032  
  5390.000000   2176252   2176647   2177167   2177804   2178543  
  5380.000000   2179430   2180487   2181768   2183265   2184988  
  5370.000000   2186880   2188933   2191094   2193384   2195780  
  5360.000000   2198337   2201051   2203996   2207180   2210700  
  5350.000000   2214572   2218892   2223650   2228901   2234585  
  5340.000000   2240734   2247284   2254303   2261766   2269774  
  5330.000000   2278296   2287403   2297016   2307172   2317784  
  5320.000000   2328931   2340587   2352899   2365873   2379663  
  5310.000000   2394234   2409682   2425918   2443009   2460871  
  5300.000000   2479597   2499146   2519648   2541084   2563577  
  5290.000000   2587073   2611619   2637073   2663380   2690344  
  5280.000000   2717903   2745944   2774530   2803695   2833586  
  5270.000000   2864246   2895686   2927750   2960205   2992765  
  5260.000000   3025177   3057313   3089134   3120727   3152130  
  5250.000000   3183387   3214349   3244870   3274648   3303547  
  5240.000000   3331386   3358246   3384134   3409256   3433616  
  5230.000000   3457330   3480256   3502376   3523467   3543522  
  5220.000000   3562405   3580242   3597032   3613003   3628191  
  5210.000000   3642791   3656747   3670116   3682711   3694506  
  5200.000000   3705308   3715161   3723992   3731962   3739073  
  5190.000000   3745493   3751184   3756238   3760561   3764212  
  5180.000000   3767112   3769355   3770903   3771860   3772178  
  5170.000000   3771926   3771036   3769569   3767484   3764876  
  5160.000000   3761744   3758191   3754210   3749877   3745159  
  5150.000000   3740117   3734730   3729067   3723120   3716955  
  5140.000000   3710556   3703967   3697170   3690210   3683089  
  5130.000000   3675864   3668541   3661155   3653686   3646138  
  5120.000000   3638482   3630733   3622898   3615028   3607160  
  5110.000000   3599340   3591578   3583879   3576209   3568545  
  5100.000000   3560852   3553120   3545342   3537527   3529686  
  5090.000000   3521838   3513998   3506195   3498451   3490796  
  5080.000000   3483242   3475797   3468440   3461148   3453876  
  5070.000000   3446595   3439274   3431903   3424472   3416982  
  5060.000000   3409418   3401769   3394015   3386143   3378149  
  5050.000000   3370047   3361858   3353621   3345367   3337130  
  5040.000000   3328932   3320794   3312724   3304733   3296822  
  5030.000000   3288988   3281221   3273503   3265819   3258152  
  5020.000000   3250503   3242872   3235288   3227767   3220349  
  5010.000000   3213048   3205900   3198907   3192098   3185468  
  5000.000000   3179043   3172814   3166802   3160987   3155392  
  4990.000000   3149999   3144846   3139930   3135310   3130991  
  4980.000000   3127031   3123417   3120180   3117276   3114718  
  4970.000000   3112452   3110499   3108822   3107463   3106398  
  4960.000000   3105678   3105279   3105249   3105558   3106250  
  4950.000000   3107291   3108718   3110491   3112644   3115138  
  4940.000000   3118010   3121232   3124849   3128837   3133229  
  4930.000000   3137980   3143095   3148505   3154204   3160132  
  4920.000000   3166305   3172693   3179338   3186225   3193389  
  4910.000000   3200803   3208479   3216377   3224498   3232806  
  4900.000000   3241302   3249956   3258768   3267707   3276767  
  4890.000000   3285919   3295151   3304438   3313762   3323096  
  4880.000000   3332411   3341678   3350863   3359942   3368885  
  4870.000000   3377677   3386291   3394718   3402931   3410931  
  4860.000000   3418699   3426253   3433591   3440745   3447717  
  4850.000000   3454539   3461205   3467740   3474133   3480413  
  4840.000000   3486574   3492649   3498631   3504543   3510364  
  4830.000000   3516098   3521705   3527177   3532468   3537573  
  4820.000000   3542456   3547126   3551567   3555803   3559838  
  4810.000000   3563707   3567418   3571001   3574453   3577790  
  4800.000000   3580997   3584084   3587036   3589874   3592597  
  4790.000000   3595239   3597805   3600328   3602808   3605260  
  4780.000000   3607667   3610026   3612301   3614479   3616523  
  4770.000000   3618428   3620173   3621777   3623235   3624576  
  4760.000000   3625789   3626885   3627828   3628605   3629173  
  4750.000000   3629528   3629650   3629571   3629298   3628879  
  4740.000000   3628317   3627639   3626822   3625865   3624734  
  4730.000000   3623432   3621940   3620278   3618446   3616474  
  4720.000000   3614368   3612155   3609840   3607449   3604990  
  4710.000000   3602491   3599962   3597423   3594879   3592340  
  4700.000000   3589804   3587281   3584774   3582302   3579871  
  4690.000000   3577499   3575184   3572922   3570694   3568470  
  4680.000000   3566216   3563894   3561474   3558928   3556249  
  4670.000000   3553436   3550513   3547510   3544478   3541460  
  4660.000000   3538512   3535670   3532972   3530432   3528067  
  4650.000000   3525876   3523867   3522038   3520396   3518933  
  4640.000000   3517649   3516526   3515549   3514690   3513932  
  4630.000000   3513243   3512611   3512008   3511426   3510840  
  4620.000000   3510243   3509618   3508966   3508279   3507563  
  4610.000000   3506817   3506048   3505253   3504440   3503610  
  4600.000000   3502776   3501949   3501145   3500376   3499651  
  4590.000000   3498973   3498341   3497752   3497204   3496696  
  4580.000000   3496227   3495792   3495380   3494973   3494548  
  4570.000000   3494084   3493565   3492983   3492339   3491641  
  4560.000000   3490898   3490118   3489302   3488451   3487565  
  4550.000000   3486644   3485690   3484706   3483699   3482671  
  4540.000000   3481631   3480582   3479547   3478536   3477587  
  4530.000000   3476712   3475950   3475301   3474800   3474439  
  4520.000000   3474266   3474281   3474555   3475096   3475987  
  4510.000000   3477225   3478884   3480946   3483484   3486479  
  4500.000000   3490014   3494076   3498755   3504031   3509984  
  4490.000000   3516576   3523873   3531827   3540491   3549813  
  4480.000000   3559830   3570478   3581774   3593639   3606069  
  4470.000000   3618977   3632340   3646062   3660103   3674366  
  4460.000000   3688803   3703328   3717897   3732442   3746927  
  4450.000000   3761296   3775514   3789544   3803357   3816951  
  4440.000000   3830323   3843512   3856531   3869440   3882236  
  4430.000000   3894969   3907594   3920135   3932511   3944725  
  4420.000000   3956674   3968353   3979642   3990525   4000863  
  4410.000000   4010622   4019648   4027897   4035221   4041599  
  4400.000000   4046933   4051262   4054570   4056966   4058506  
  4390.000000   4059343   4059568   4059339   4058745   4057926  
  4380.000000   4056962   4055968   4055021   4054227   4053669  
  4370.000000   4053447   4053647   4054341   4055591   4057420  
  4360.000000   4059839   4062811   4066298   4070219   4074511  
  4350.000000   4079089   4083893   4088865   4093975   4099203  
  4340.000000   4104545   4109990   4115509   4121036   4126455  
  4330.000000   4131606   4136291   4140324   4143551   4145913  
  4320.000000   4147440   4148292   4148676   4148864   4149073  
  4310.000000   4149493   4150186   4151180   4152390   4153750  
  4300.000000   4155142   4156509   4157771   4158896   4159831  
  4290.000000   4160552   4161024   4161242   4161214   4160985  
  4280.000000   4160605   4160150   4159666   4159211   4158791  
  4270.000000   4158428   4158095   4157784   4157442   4157029  
  4260.000000   4156459   4155656   4154520   4152984   4151003  
  4250.000000   4148592   4145811   4142775   4139611   4136462  
  4240.000000   4133432   4130604   4128002   4125626   4123433  
  4230.000000   4121381   4119406   4117456   4115474   4113413  
  4220.000000   4111238   4108922   4106473   4103908   4101284  
  4210.000000   4098658   4096110   4093695   4091471   4089456  
  4200.000000   4087667   4086083   4084696   4083469   4082396  
  4190.000000   4081437   4080602   4079857   4079230   4078700  
  4180.000000   4078315   4078066   4078021   4078184   4078645  
  4170.000000   4079424   4080630   4082297   4084533   4087351  
  4160.000000   4090826   4094915   4099644   4104923   4110759  
  4150.000000   4117065   4123872   4131127   4138894   4147141  
  4140.000000   4155945   4165271   4175183   4185631   4196659  
  4130.000000   4208199   4220274   4232806   4245807   4259208  
  4120.000000   4273032   4287232   4301849   4316854   4332292  
  4110.000000   4348139   4364423   4381109   4398200   4415642  
  4100.000000   4433414   4451449   4469714   4488150   4506732  
  4090.000000   4525427   4544219   4563086   4582009   4600967  
  4080.000000   4619934   4638904   4657856   4676807   4695734  
  4070.000000   4714653   4733514   4752311   4770964   4789467  
  4060.000000   4807734   4825772   4843492   4860904   4877899  
  4050.000000   4894485   4910549   4926122   4941106   4955548  
  4040.000000   4969332   4982486   4994856   5006454   5017132  
  4030.000000   5026942   5035773   5043702   5050623   5056577  
  4020.000000   5061401   5065125   5067671   5069126   5069437  
  4010.000000   5068803   5067338   5065143   5062038   5058165  
  4000.000000   5053907  
##END= 
