##TITLE= Sample 037 By ssteindl date Dienstag, November 20 2018
##JCAMP-DX= 4.24
##DATA TYPE= INFRARED SPECTRUM
##ORIGIN= Exported PE Spectrum Data File
##OWNER= Sandra Steindl
##DATE= 18/11/20
##TIME= 15:28:18.00
##SPECTROMETER/DATA SYSTEM= PERKIN-ELMER Frontier FT-IR/NIR IR
##INSTRUMENT PARAMETERS=
  APODIZATION=stark
  DETECTOR=INGAAS
##RESOLUTION= 16.000000
##DELTAX= -2.000000
##XUNITS= 1/CM
##YUNITS= A
##XFACTOR= 1.00
##YFACTOR= 0.00000011920928955078
##FIRSTX= 10000.00
##LASTX= 4000.00
##NPOINTS= 3001
##FIRSTY= 0.194924
##MAXY= 0.610371
##MINY= 0.171429
##XYDATA= (X++(Y..Y))
 10000.000000   1635139   1633271   1630991   1627823   1623940  
  9990.000000   1619879   1616107   1612952   1610876   1610359  
  9980.000000   1611573   1614265   1617833   1621501   1624526  
  9970.000000   1626471   1627382   1627705   1628053   1628870  
  9960.000000   1630236   1631794   1632962   1633179   1632176  
  9950.000000   1630072   1627262   1624278   1621499   1619153  
  9940.000000   1617245   1615759   1614688   1614091   1613993  
  9930.000000   1614243   1614484   1614150   1612691   1609757  
  9920.000000   1605411   1600134   1594698   1589923   1586445  
  9910.000000   1584621   1584522   1586065   1589038   1593164  
  9900.000000   1597981   1602860   1607003   1609639   1610266  
  9890.000000   1608807   1605735   1601830   1597980   1594747  
  9880.000000   1592244   1590083   1587659   1584501   1580535  
  9870.000000   1576227   1572355   1569757   1568941   1569947  
  9860.000000   1572345   1575437   1578517   1581036   1582713  
  9850.000000   1583447   1583291   1582340   1580817   1579040  
  9840.000000   1577526   1576800   1577298   1579075   1581747  
  9830.000000   1584540   1586551   1587159   1586239   1584362  
  9820.000000   1582480   1581695   1582731   1585770   1590339  
  9810.000000   1595532   1600303   1603747   1605323   1604819  
  9800.000000   1602308   1597977   1592100   1585028   1577292  
  9790.000000   1569611   1562866   1557907   1555333   1555324  
  9780.000000   1557518   1561209   1565439   1569399   1572512  
  9770.000000   1574616   1575887   1576711   1577560   1578759  
  9760.000000   1580450   1582443   1584323   1585458   1585257  
  9750.000000   1583290   1579528   1574376   1568632   1563276  
  9740.000000   1559166   1556781   1556079   1556568   1557528  
  9730.000000   1558326   1558643   1558602   1558612   1559204  
  9720.000000   1560714   1563181   1566316   1569641   1572724  
  9710.000000   1575260   1577196   1578547   1579348   1579470  
  9700.000000   1578680   1576733   1573547   1569376   1564784  
  9690.000000   1560600   1557596   1556365   1557026   1559339  
  9680.000000   1562662   1566262   1569396   1571519   1572299  
  9670.000000   1571596   1569453   1565983   1561422   1556021  
  9660.000000   1550123   1544055   1538161   1532735   1528024  
  9650.000000   1524241   1521551   1520106   1519986   1521182  
  9640.000000   1523510   1526597   1529899   1532795   1534783  
  9630.000000   1535590   1535358   1534525   1533784   1533745  
  9620.000000   1534790   1536843   1539427   1541774   1543132  
  9610.000000   1543041   1541521   1539114   1536652   1535033  
  9600.000000   1534832   1536178   1538666   1541579   1544155  
  9590.000000   1545862   1546567   1546462   1545885   1545078  
  9580.000000   1544041   1542573   1540433   1537562   1534235  
  9570.000000   1531045   1528739   1527957   1528954   1531502  
  9560.000000   1534909   1538286   1540821   1542054   1541980  
  9550.000000   1540971   1539592   1538374   1537647   1537522  
  9540.000000   1537896   1538596   1539404   1540147   1540676  
  9530.000000   1540885   1540695   1540061   1538957   1537350  
  9520.000000   1535179   1532323   1528651   1524083   1518728  
  9510.000000   1512967   1507432   1502926   1500138   1499480  
  9500.000000   1500839   1503659   1507039   1510087   1512139  
  9490.000000   1512955   1512692   1511700   1510372   1508872  
  9480.000000   1507227   1505254   1502837   1499918   1496591  
  9470.000000   1493022   1489347   1485707   1482255   1479339  
  9460.000000   1477511   1477439   1479644   1484166   1490388  
  9450.000000   1497027   1502461   1505186   1504375   1500204  
  9440.000000   1493915   1487428   1482743   1481246   1483303  
  9430.000000   1488214   1494542   1500645   1505140   1507258  
  9420.000000   1506883   1504481   1500829   1496801   1493178  
  9410.000000   1490531   1489206   1489242   1490403   1492155  
  9400.000000   1493783   1494598   1494129   1492386   1489830  
  9390.000000   1487306   1485679   1485545   1486990   1489585  
  9380.000000   1492555   1495058   1496459   1496495   1495326  
  9370.000000   1493368   1491140   1489009   1487173   1485607  
  9360.000000   1484205   1482821   1481326   1479664   1477852  
  9350.000000   1476109   1474780   1474398   1475444   1478258  
  9340.000000   1482800   1488577   1494670   1499865   1503016  
  9330.000000   1503320   1500640   1495478   1488859   1481972  
  9320.000000   1475885   1471304   1468477   1467294   1467382  
  9310.000000   1468336   1469758   1471367   1472897   1474151  
  9300.000000   1474940   1475151   1474752   1473783   1472386  
  9290.000000   1470681   1468836   1466952   1465176   1463624  
  9280.000000   1462419   1461625   1461211   1461045   1460912  
  9270.000000   1460618   1460077   1459413   1458932   1459044  
  9260.000000   1460042   1461990   1464612   1467397   1469769  
  9250.000000   1471300   1471887   1471716   1471176   1470574  
  9240.000000   1469994   1469208   1467809   1465399   1461845  
  9230.000000   1457436   1452861   1449021   1446681   1446273  
  9220.000000   1447722   1450554   1454005   1457319   1459930  
  9210.000000   1461569   1462248   1462130   1461452   1460389  
  9200.000000   1459090   1457621   1456064   1454470   1452904  
  9190.000000   1451396   1449953   1448587   1447342   1446351  
  9180.000000   1445799   1445901   1446790   1448443   1450632  
  9170.000000   1452955   1454951   1456232   1456643   1456293  
  9160.000000   1455558   1454918   1454811   1455444   1456733  
  9150.000000   1458331   1459767   1460604   1460607   1459802  
  9140.000000   1458484   1457080   1455988   1455446   1455447  
  9130.000000   1455802   1456216   1456461   1456457   1456346  
  9120.000000   1456410   1456969   1458215   1460129   1462442  
  9110.000000   1464701   1466388   1467070   1466548   1464886  
  9100.000000   1462420   1459635   1457075   1455172   1454153  
  9090.000000   1453984   1454398   1454986   1455325   1455155  
  9080.000000   1454457   1453499   1452714   1452589   1453459  
  9070.000000   1455385   1458095   1461052   1463652   1465380  
  9060.000000   1465995   1465539   1464316   1462720   1461091  
  9050.000000   1459605   1458271   1457016   1455773   1454586  
  9040.000000   1453590   1453000   1452967   1453530   1454544  
  9030.000000   1455744   1456838   1457575   1457825   1457555  
  9020.000000   1456838   1455759   1454401   1452853   1451255  
  9010.000000   1449827   1448846   1448608   1449330   1451044  
  9000.000000   1453527   1456335   1458908   1460716   1461393  
  8990.000000   1460846   1459296   1457194   1455095   1453524  
  8980.000000   1452853   1453218   1454472   1456272   1458175  
  8970.000000   1459762   1460737   1460982   1460577   1459718  
  8960.000000   1458628   1457457   1456259   1455001   1453645  
  8950.000000   1452243   1450992   1450222   1450258   1451334  
  8940.000000   1453419   1456218   1459171   1461666   1463196  
  8930.000000   1463526   1462732   1461133   1459178   1457241  
  8920.000000   1455535   1454045   1452622   1451056   1449212  
  8910.000000   1447071   1444767   1442515   1440552   1439079  
  8900.000000   1438228   1438050   1438515   1439528   1440957  
  8890.000000   1442635   1444414   1446166   1447861   1449517  
  8880.000000   1451211   1452965   1454749   1456412   1457765  
  8870.000000   1458620   1458920   1458770   1458446   1458318  
  8860.000000   1458709   1459808   1461570   1463777   1466083  
  8850.000000   1468181   1469860   1471069   1471871   1472374  
  8840.000000   1472667   1472768   1472644   1472246   1471573  
  8830.000000   1470689   1469722   1468824   1468128   1467728  
  8820.000000   1467673   1467983   1468651   1469643   1470882  
  8810.000000   1472233   1473506   1474508   1475108   1475306  
  8800.000000   1475267   1475274   1475659   1476643   1478276  
  8790.000000   1480357   1482526   1484334   1485437   1485672  
  8780.000000   1485160   1484223   1483321   1482880   1483215  
  8770.000000   1484452   1486542   1489297   1492459   1495781  
  8760.000000   1499059   1502187   1505123   1507908   1510610  
  8750.000000   1513314   1516076   1518874   1521604   1524068  
  8740.000000   1526033   1527276   1527657   1527179   1525998  
  8730.000000   1524420   1522794   1521469   1520692   1520583  
  8720.000000   1521114   1522145   1523470   1524874   1526163  
  8710.000000   1527203   1527906   1528263   1528334   1528261  
  8700.000000   1528274   1528632   1529592   1531297   1533734  
  8690.000000   1536682   1539743   1542430   1544300   1545107  
  8680.000000   1544910   1544045   1543063   1542514   1542816  
  8670.000000   1544072   1546073   1548344   1550338   1551630  
  8660.000000   1552080   1551891   1551530   1551585   1552560  
  8650.000000   1554730   1558044   1562165   1566576   1570724  
  8640.000000   1574165   1576663   1578223   1579041   1579424  
  8630.000000   1579680   1580060   1580672   1581498   1582392  
  8620.000000   1583172   1583672   1583820   1583678   1583432  
  8610.000000   1583364   1583740   1584768   1586510   1588904  
  8600.000000   1591767   1594873   1598011   1601025   1603817  
  8590.000000   1606334   1608543   1610404   1611878   1612931  
  8580.000000   1613588   1613918   1614043   1614090   1614170  
  8570.000000   1614343   1614607   1614928   1615258   1615581  
  8560.000000   1615906   1616293   1616817   1617570   1618624  
  8550.000000   1620041   1621840   1624009   1626466   1629077  
  8540.000000   1631658   1634017   1636008   1637568   1638752  
  8530.000000   1639687   1640547   1641422   1642303   1643039  
  8520.000000   1643424   1643273   1642541   1641390   1640180  
  8510.000000   1639383   1639425   1640576   1642840   1645987  
  8500.000000   1649588   1653188   1656418   1659081   1661170  
  8490.000000   1662801   1664170   1665434   1666687   1667916  
  8480.000000   1669047   1669975   1670623   1670973   1671085  
  8470.000000   1671104   1671209   1671595   1672391   1673640  
  8460.000000   1675254   1677042   1678736   1680082   1680905  
  8450.000000   1681177   1681024   1680700   1680511   1680716  
  8440.000000   1681456   1682702   1684287   1685954   1687439  
  8430.000000   1688554   1689228   1689538   1689658   1689828  
  8420.000000   1690259   1691093   1692334   1693874   1695500  
  8410.000000   1696971   1698071   1698681   1698799   1698533  
  8400.000000   1698039   1697470   1696922   1696403   1695863  
  8390.000000   1695222   1694446   1693556   1692641   1691818  
  8380.000000   1691192   1690832   1690737   1690887   1691260  
  8370.000000   1691887   1692842   1694212   1696034   1698245  
  8360.000000   1700667   1703013   1704964   1706252   1706737  
  8350.000000   1706445   1705539   1704279   1702940   1701763  
  8340.000000   1700893   1700380   1700173   1700165   1700188  
  8330.000000   1700069   1699624   1698739   1697380   1695634  
  8320.000000   1693690   1691801   1690234   1689178   1688702  
  8310.000000   1688714   1689018   1689364   1689551   1689471  
  8300.000000   1689136   1688667   1688233   1688006   1688087  
  8290.000000   1688506   1689219   1690145   1691188   1692260  
  8280.000000   1693280   1694159   1694796   1695073   1694880  
  8270.000000   1694133   1692813   1690984   1688803   1686504  
  8260.000000   1684342   1682561   1681314   1680673   1680576  
  8250.000000   1680897   1681450   1682064   1682596   1682956  
  8240.000000   1683090   1682959   1682526   1681746   1680597  
  8230.000000   1679088   1677307   1675412   1673612   1672120  
  8220.000000   1671070   1670504   1670322   1670349   1670359  
  8210.000000   1670177   1669708   1668969   1668049   1667060  
  8200.000000   1666078   1665115   1664119   1663009   1661724  
  8190.000000   1660263   1658707   1657198   1655889   1654892  
  8180.000000   1654224   1653806   1653468   1653011   1652254  
  8170.000000   1651092   1649530   1647692   1645779   1644023  
  8160.000000   1642606   1641620   1641030   1640693   1640403  
  8150.000000   1639948   1639184   1638062   1636640   1635035  
  8140.000000   1633377   1631747   1630169   1628616   1627060  
  8130.000000   1625510   1624048   1622808   1621942   1621554  
  8120.000000   1621657   1622138   1622795   1623369   1623638  
  8110.000000   1623453   1622792   1621733   1620440   1619103  
  8100.000000   1617901   1616972   1616390   1616168   1616249  
  8090.000000   1616532   1616871   1617119   1617135   1616830  
  8080.000000   1616164   1615158   1613865   1612357   1610696  
  8070.000000   1608934   1607122   1605320   1603615   1602107  
  8060.000000   1600879   1599969   1599327   1598830   1598302  
  8050.000000   1597591   1596619   1595434   1594200   1593138  
  8040.000000   1592451   1592232   1592433   1592861   1593242  
  8030.000000   1593306   1592874   1591908   1590511   1588885  
  8020.000000   1587265   1585834   1584691   1583820   1583120  
  8010.000000   1582430   1581600   1580513   1579138   1577532  
  8000.000000   1575835   1574242   1572951   1572128   1571860  
  7990.000000   1572141   1572877   1573910   1575070   1576197  
  7980.000000   1577189   1577977   1578535   1578830   1578832  
  7970.000000   1578481   1577743   1576610   1575155   1573525  
  7960.000000   1571935   1570625   1569796   1569575   1569947  
  7950.000000   1570797   1571890   1572966   1573773   1574142  
  7940.000000   1574012   1573432   1572542   1571503   1570469  
  7930.000000   1569517   1568662   1567846   1567002   1566089  
  7920.000000   1565130   1564228   1563520   1563149   1563183  
  7910.000000   1563607   1564300   1565087   1565790   1566278  
  7900.000000   1566512   1566518   1566375   1566147   1565873  
  7890.000000   1565536   1565110   1564579   1563977   1563391  
  7880.000000   1562937   1562722   1562798   1563142   1563662  
  7870.000000   1564236   1564754   1565157   1565451   1565682  
  7860.000000   1565909   1566164   1566435   1566673   1566816  
  7850.000000   1566827   1566715   1566537   1566383   1566334  
  7840.000000   1566427   1566644   1566901   1567087   1567095  
  7830.000000   1566870   1566422   1565836   1565239   1564773  
  7820.000000   1564530   1564541   1564743   1565009   1565177  
  7810.000000   1565102   1564697   1563959   1562962   1561833  
  7800.000000   1560704   1559678   1558801   1558071   1557458  
  7790.000000   1556934   1556492   1556147   1555919   1555812  
  7780.000000   1555798   1555822   1555822   1555752   1555605  
  7770.000000   1555408   1555210   1555042   1554904   1554752  
  7760.000000   1554522   1554161   1553658   1553062   1552461  
  7750.000000   1551959   1551621   1551463   1551432   1551443  
  7740.000000   1551402   1551244   1550940   1550492   1549909  
  7730.000000   1549186   1548307   1547249   1546016   1544653  
  7720.000000   1543259   1541960   1540886   1540126   1539714  
  7710.000000   1539615   1539752   1540029   1540356   1540669  
  7700.000000   1540932   1541134   1541290   1541430   1541602  
  7690.000000   1541853   1542230   1542737   1543337   1543933  
  7680.000000   1544398   1544607   1544478   1544014   1543300  
  7670.000000   1542489   1541748   1541214   1540950   1540941  
  7660.000000   1541107   1541337   1541530   1541615   1541558  
  7650.000000   1541354   1541015   1540558   1540012   1539417  
  7640.000000   1538845   1538377   1538105   1538090   1538348  
  7630.000000   1538833   1539450   1540076   1540599   1540944  
  7620.000000   1541093   1541078   1540968   1540844   1540781  
  7610.000000   1540828   1541008   1541307   1541697   1542126  
  7600.000000   1542544   1542901   1543167   1543325   1543385  
  7590.000000   1543372   1543327   1543293   1543312   1543416  
  7580.000000   1543634   1543980   1544466   1545088   1545826  
  7570.000000   1546643   1547484   1548292   1549018   1549636  
  7560.000000   1550157   1550614   1551064   1551549   1552099  
  7550.000000   1552702   1553322   1553903   1554402   1554805  
  7540.000000   1555144   1555488   1555933   1556565   1557437  
  7530.000000   1558541   1559810   1561123   1562360   1563417  
  7520.000000   1564261   1564928   1565527   1566191   1567051  
  7510.000000   1568178   1569578   1571181   1572889   1574596  
  7500.000000   1576231   1577771   1579239   1580682   1582144  
  7490.000000   1583651   1585211   1586815   1588459   1590140  
  7480.000000   1591867   1593634   1595424   1597187   1598864  
  7470.000000   1600392   1601742   1602923   1603998   1605053  
  7460.000000   1606191   1607487   1608991   1610702   1612593  
  7450.000000   1614608   1616691   1618783   1620841   1622830  
  7440.000000   1624747   1626610   1628466   1630371   1632386  
  7430.000000   1634544   1636846   1639253   1641707   1644143  
  7420.000000   1646522   1648837   1651106   1653358   1655602  
  7410.000000   1657823   1659981   1662025   1663926   1665682  
  7400.000000   1667331   1668928   1670521   1672133   1673750  
  7390.000000   1675349   1676907   1678438   1679989   1681643  
  7380.000000   1683479   1685543   1687823   1690245   1692694  
  7370.000000   1695044   1697192   1699080   1700707   1702126  
  7360.000000   1703431   1704735   1706158   1707799   1709713  
  7350.000000   1711905   1714309   1716815   1719279   1721577  
  7340.000000   1723634   1725448   1727078   1728614   1730138  
  7330.000000   1731690   1733260   1734800   1736250   1737577  
  7320.000000   1738788   1739942   1741117   1742398   1743833  
  7310.000000   1745440   1747183   1749006   1750832   1752593  
  7300.000000   1754231   1755712   1757025   1758188   1759243  
  7290.000000   1760248   1761260   1762309   1763391   1764464  
  7280.000000   1765469   1766360   1767129   1767830   1768555  
  7270.000000   1769417   1770497   1771818   1773331   1774933  
  7260.000000   1776513   1777976   1779287   1780455   1781534  
  7250.000000   1782571   1783615   1784677   1785779   1786932  
  7240.000000   1788187   1789590   1791200   1793037   1795097  
  7230.000000   1797330   1799689   1802125   1804632   1807213  
  7220.000000   1809895   1812670   1815523   1818397   1821255  
  7210.000000   1824063   1826855   1829684   1832644   1835793  
  7200.000000   1839169   1842741   1846458   1850249   1854074  
  7190.000000   1857911   1861782   1865700   1869685   1873717  
  7180.000000   1877776   1881819   1885833   1889808   1893769  
  7170.000000   1897728   1901714   1905728   1909794   1913926  
  7160.000000   1918167   1922556   1927138   1931923   1936903  
  7150.000000   1942031   1947263   1952549   1957877   1963237  
  7140.000000   1968648   1974095   1979562   1984993   1990364  
  7130.000000   1995654   2000916   2006213   2011653   2017297  
  7120.000000   2023185   2029286   2035552   2041922   2048382  
  7110.000000   2054943   2061658   2068563   2075677   2082959  
  7100.000000   2090344   2097744   2105106   2112391   2119604  
  7090.000000   2126737   2133786   2140710   2147482   2154087  
  7080.000000   2160576   2167045   2173632   2180452   2187567  
  7070.000000   2194950   2202497   2210076   2217572   2224936  
  7060.000000   2232191   2239406   2246660   2253994   2261392  
  7050.000000   2268790   2276096   2283232   2290151   2296852  
  7040.000000   2303360   2309720   2315970   2322158   2328317  
  7030.000000   2334491   2340704   2346972   2353270   2359560  
  7020.000000   2365775   2371872   2377824   2383654   2389399  
  7010.000000   2395103   2400778   2406404   2411925   2417293  
  7000.000000   2422483   2427531   2432505   2437503   2442584  
  6990.000000   2447773   2453014   2458227   2463306   2468185  
  6980.000000   2472824   2477237   2481445   2485484   2489358  
  6970.000000   2493077   2496625   2500022   2503283   2506462  
  6960.000000   2509588   2512708   2515828   2518957   2522071  
  6950.000000   2525152   2528152   2531026   2533704   2536126  
  6940.000000   2538243   2540060   2541628   2543058   2544476  
  6930.000000   2546007   2547726   2549654   2551748   2553948  
  6920.000000   2556178   2558397   2560571   2562692   2564737  
  6910.000000   2566682   2568492   2570150   2571666   2573084  
  6900.000000   2574464   2575857   2577274   2578684   2580014  
  6890.000000   2581197   2582188   2583012   2583731   2584447  
  6880.000000   2585239   2586153   2587177   2588273   2589382  
  6870.000000   2590469   2591517   2592531   2593509   2594440  
  6860.000000   2595290   2596030   2596640   2597139   2597577  
  6850.000000   2598015   2598504   2599064   2599673   2600290  
  6840.000000   2600869   2601392   2601863   2602312   2602762  
  6830.000000   2603227   2603693   2604139   2604542   2604904  
  6820.000000   2605240   2605576   2605919   2606256   2606542  
  6810.000000   2606731   2606790   2606726   2606583   2606434  
  6800.000000   2606337   2606329   2606395   2606495   2606575  
  6790.000000   2606606   2606582   2606531   2606481   2606455  
  6780.000000   2606437   2606395   2606279   2606056   2605709  
  6770.000000   2605254   2604711   2604102   2603427   2602677  
  6760.000000   2601836   2600907   2599912   2598903   2597935  
  6750.000000   2597066   2596323   2595717   2595227   2594834  
  6740.000000   2594507   2594227   2593969   2593709   2593407  
  6730.000000   2593021   2592505   2591830   2590987   2589996  
  6720.000000   2588897   2587748   2586604   2585518   2584517  
  6710.000000   2583615   2582794   2582026   2581262   2580458  
  6700.000000   2579574   2578594   2577525   2576397   2575247  
  6690.000000   2574113   2573018   2571967   2570952   2569959  
  6680.000000   2568974   2567990   2566998   2565994   2564960  
  6670.000000   2563880   2562736   2561528   2560267   2558981  
  6660.000000   2557695   2556423   2555153   2553854   2552487  
  6650.000000   2551028   2549475   2547866   2546251   2544686  
  6640.000000   2543198   2541791   2540433   2539088   2537726  
  6630.000000   2536342   2534951   2533581   2532248   2530950  
  6620.000000   2529656   2528325   2526916   2525409   2523808  
  6610.000000   2522141   2520440   2518737   2517044   2515358  
  6600.000000   2513665   2511951   2510202   2508418   2506604  
  6590.000000   2504770   2502932   2501108   2499317   2497579  
  6580.000000   2495909   2494316   2492802   2491364   2489997  
  6570.000000   2488698   2487464   2486286   2485144   2484002  
  6560.000000   2482814   2481528   2480114   2478564   2476906  
  6550.000000   2475192   2473484   2471833   2470267   2468793  
  6540.000000   2467403   2466091   2464859   2463720   2462678  
  6530.000000   2461723   2460817   2459903   2458923   2457831  
  6520.000000   2456623   2455321   2453973   2452621   2451294  
  6510.000000   2449996   2448721   2447471   2446268   2445156  
  6500.000000   2444183   2443379   2442732   2442178   2441621  
  6490.000000   2440958   2440115   2439071   2437861   2436557  
  6480.000000   2435243   2433984   2432812   2431723   2430696  
  6470.000000   2429704   2428729   2427764   2426809   2425866  
  6460.000000   2424933   2424005   2423079   2422153   2421231  
  6450.000000   2420313   2419400   2418485   2417563   2416634  
  6440.000000   2415709   2414807   2413948   2413148   2412407  
  6430.000000   2411708   2411034   2410364   2409696   2409034  
  6420.000000   2408395   2407780   2407183   2406576   2405936  
  6410.000000   2405244   2404509   2403765   2403058   2402433  
  6400.000000   2401914   2401502   2401175   2400910   2400689  
  6390.000000   2400507   2400367   2400263   2400174   2400057  
  6380.000000   2399863   2399551   2399111   2398564   2397961  
  6370.000000   2397358   2396795   2396287   2395821   2395376  
  6360.000000   2394934   2394497   2394076   2393686   2393319  
  6350.000000   2392947   2392520   2391996   2391350   2390605  
  6340.000000   2389813   2389044   2388354   2387767   2387257  
  6330.000000   2386776   2386257   2385654   2384943   2384132  
  6320.000000   2383239   2382289   2381292   2380253   2379169  
  6310.000000   2378049   2376908   2375773   2374661   2373584  
  6300.000000   2372533   2371494   2370445   2369384   2368306  
  6290.000000   2367225   2366141   2365051   2363930   2362753  
  6280.000000   2361492   2360140   2358697   2357181   2355607  
  6270.000000   2353984   2352309   2350576   2348776   2346920  
  6260.000000   2345027   2343132   2341260   2339437   2337662  
  6250.000000   2335934   2334237   2332565   2330911   2329272  
  6240.000000   2327637   2325988   2324298   2322544   2320719  
  6230.000000   2318837   2316935   2315062   2313257   2311537  
  6220.000000   2309885   2308254   2306586   2304828   2302952  
  6210.000000   2300965   2298903   2296824   2294788   2292848  
  6200.000000   2291033   2289350   2287782   2286296   2284850  
  6190.000000   2283395   2281894   2280320   2278668   2276951  
  6180.000000   2275194   2273430   2271687   2269983   2268327  
  6170.000000   2266721   2265166   2263666   2262230   2260863  
  6160.000000   2259567   2258328   2257123   2255919   2254685  
  6150.000000   2253400   2252058   2250670   2249262   2247859  
  6140.000000   2246490   2245169   2243905   2242692   2241520  
  6130.000000   2240368   2239216   2238045   2236838   2235588  
  6120.000000   2234300   2232987   2231675   2230389   2229157  
  6110.000000   2227992   2226900   2225873   2224895   2223945  
  6100.000000   2223012   2222087   2221183   2220314   2219511  
  6090.000000   2218792   2218173   2217641   2217177   2216739  
  6080.000000   2216293   2215810   2215293   2214758   2214255  
  6070.000000   2213824   2213512   2213332   2213290   2213358  
  6060.000000   2213518   2213738   2214011   2214326   2214690  
  6050.000000   2215098   2215555   2216053   2216603   2217205  
  6040.000000   2217887   2218659   2219544   2220533   2221620  
  6030.000000   2222773   2223975   2225204   2226467   2227771  
  6020.000000   2229139   2230576   2232090   2233663   2235283  
  6010.000000   2236931   2238604   2240298   2242024   2243775  
  6000.000000   2245550   2247325   2249097   2250854   2252620  
  5990.000000   2254418   2256296   2258283   2260407   2262667  
  5980.000000   2265060   2267564   2270176   2272885   2275697  
  5970.000000   2278599   2281581   2284602   2287633   2290630  
  5960.000000   2293583   2296489   2299385   2302299   2305275  
  5950.000000   2308330   2311475   2314694   2317975   2321299  
  5940.000000   2324663   2328065   2331514   2335018   2338584  
  5930.000000   2342210   2345893   2349618   2353364   2357097  
  5920.000000   2360779   2364365   2367818   2371114   2374250  
  5910.000000   2377240   2380108   2382881   2385577   2388211  
  5900.000000   2390785   2393318   2395831   2398371   2400976  
  5890.000000   2403691   2406522   2409458   2412449   2415434  
  5880.000000   2418344   2421130   2423757   2426218   2428517  
  5870.000000   2430672   2432707   2434648   2436531   2438395  
  5860.000000   2440276   2442206   2444201   2446265   2448389  
  5850.000000   2450566   2452795   2455088   2457462   2459931  
  5840.000000   2462495   2465134   2467809   2470473   2473087  
  5830.000000   2475625   2478080   2480460   2482774   2485031  
  5820.000000   2487226   2489356   2491411   2493398   2495324  
  5810.000000   2497211   2499069   2500913   2502731   2504525  
  5800.000000   2506273   2507988   2509657   2511301   2512903  
  5790.000000   2514468   2515947   2517315   2518499   2519453  
  5780.000000   2520099   2520383   2520240   2519634   2518543  
  5770.000000   2516996   2515053   2512832   2510461   2508089  
  5760.000000   2505830   2503782   2501984   2500452   2499161  
  5750.000000   2498082   2497170   2496381   2495672   2495001  
  5740.000000   2494342   2493674   2493005   2492346   2491727  
  5730.000000   2491159   2490656   2490203   2489794   2489409  
  5720.000000   2489052   2488728   2488458   2488248   2488102  
  5710.000000   2487999   2487916   2487834   2487750   2487682  
  5700.000000   2487661   2487717   2487859   2488071   2488310  
  5690.000000   2488527   2488678   2488748   2488742   2488690  
  5680.000000   2488614   2488533   2488431   2488285   2488053  
  5670.000000   2487705   2487210   2486562   2485748   2484770  
  5660.000000   2483623   2482313   2480848   2479261   2477587  
  5650.000000   2475879   2474177   2472518   2470918   2469385  
  5640.000000   2467915   2466507   2465155   2463859   2462609  
  5630.000000   2461399   2460218   2459059   2457927   2456829  
  5620.000000   2455784   2454797   2453871   2452986   2452115  
  5610.000000   2451225   2450295   2449316   2448298   2447261  
  5600.000000   2446232   2445233   2444277   2443372   2442516  
  5590.000000   2441701   2440914   2440133   2439330   2438476  
  5580.000000   2437547   2436537   2435458   2434338   2433214  
  5570.000000   2432114   2431051   2430020   2429000   2427969  
  5560.000000   2426911   2425826   2424718   2423596   2422460  
  5550.000000   2421300   2420100   2418851   2417558   2416247  
  5540.000000   2414953   2413713   2412548   2411457   2410416  
  5530.000000   2409394   2408357   2407290   2406188   2405061  
  5520.000000   2403919   2402770   2401611   2400439   2399250  
  5510.000000   2398047   2396833   2395614   2394388   2393156  
  5500.000000   2391912   2390665   2389425   2388221   2387068  
  5490.000000   2385976   2384926   2383880   2382787   2381605  
  5480.000000   2380310   2378911   2377437   2375930   2374420  
  5470.000000   2372924   2371434   2369936   2368412   2366852  
  5460.000000   2365255   2363620   2361941   2360207   2358399  
  5450.000000   2356512   2354556   2352566   2350592   2348686  
  5440.000000   2346883   2345193   2343606   2342093   2340634  
  5430.000000   2339207   2337810   2336429   2335060   2333678  
  5420.000000   2332280   2330857   2329449   2328097   2326876  
  5410.000000   2325831   2324994   2324343   2323849   2323457  
  5400.000000   2323153   2322922   2322801   2322806   2322973  
  5390.000000   2323287   2323746   2324314   2325000   2325801  
  5380.000000   2326772   2327933   2329328   2330936   2332748  
  5370.000000   2334696   2336768   2338918   2341181   2343556  
  5360.000000   2346112   2348852   2351843   2355075   2358616  
  5350.000000   2362460   2366684   2371281   2376317   2381754  
  5340.000000   2387638   2393917   2400647   2407788   2415410  
  5330.000000   2423465   2432006   2440961   2450375   2460187  
  5320.000000   2470494   2481292   2492735   2504833   2517728  
  5310.000000   2531376   2545851   2561051   2577025   2593687  
  5300.000000   2611124   2629302   2648354   2668271   2689175  
  5290.000000   2711019   2733847   2757525   2782003   2807100  
  5280.000000   2832765   2858895   2885549   2912749   2940626  
  5270.000000   2969200   2998481   3028318   3058512   3088812  
  5260.000000   3119018   3149031   3178848   3208565   3238244  
  5250.000000   3267929   3297502   3326817   3355597   3383687  
  5240.000000   3410908   3437310   3462898   3487862   3512237  
  5230.000000   3536148   3559501   3582281   3604284   3625466  
  5220.000000   3645669   3664965   3683327   3700940   3717830  
  5210.000000   3734164   3749881   3765014   3779374   3792923  
  5200.000000   3805486   3817125   3827806   3837716   3846890  
  5190.000000   3855500   3863507   3870973   3877776   3883938  
  5180.000000   3889355   3894100   3898126   3901534   3904279  
  5170.000000   3906437   3907951   3908896   3909241   3909090  
  5160.000000   3908431   3907355   3905817   3903863   3901424  
  5150.000000   3898546   3895196   3891462   3887352   3882953  
  5140.000000   3878258   3873315   3868088   3862609   3856856  
  5130.000000   3850881   3844688   3838332   3831813   3825172  
  5120.000000   3818399   3811532   3804575   3797575   3790538  
  5110.000000   3783492   3776421   3769326   3762180   3754985  
  5100.000000   3747737   3740461   3733171   3725889   3718619  
  5090.000000   3711365   3704121   3696895   3689692   3682533  
  5080.000000   3675422   3668365   3661338   3654317   3647265  
  5070.000000   3640161   3632993   3625772   3618512   3611237  
  5060.000000   3603952   3596665   3589364   3582051   3574718  
  5050.000000   3567377   3560032   3552694   3545352   3537993  
  5040.000000   3530584   3523099   3515512   3507820   3500034  
  5030.000000   3492187   3484325   3476495   3468744   3461104  
  5020.000000   3453599   3446228   3438987   3431853   3424815  
  5010.000000   3417855   3410982   3404195   3397529   3390995  
  5000.000000   3384630   3378437   3372442   3366633   3361032  
  4990.000000   3355625   3350439   3345462   3340718   3336185  
  4980.000000   3331881   3327776   3323893   3320216   3316794  
  4970.000000   3313625   3310771   3308227   3306038   3304170  
  4960.000000   3302645   3301415   3300502   3299871   3299564  
  4950.000000   3299564   3299923   3300619   3301698   3303123  
  4940.000000   3304925   3307061   3309560   3312374   3315534  
  4930.000000   3318996   3322789   3326877   3331298   3336026  
  4920.000000   3341105   3346509   3352273   3358359   3364782  
  4910.000000   3371494   3378499   3385756   3393271   3401013  
  4900.000000   3408985   3417158   3425528   3434063   3442746  
  4890.000000   3451545   3460428   3469356   3478276   3487138  
  4880.000000   3495875   3504439   3512765   3520822   3528556  
  4870.000000   3535950   3542959   3549582   3555790   3561612  
  4860.000000   3567048   3572159   3576962   3581516   3585821  
  4850.000000   3589909   3593749   3597356   3600700   3603809  
  4840.000000   3606679   3609367   3611892   3614319   3616669  
  4830.000000   3618990   3621289   3623587   3625865   3628119  
  4820.000000   3630317   3632446   3634482   3636431   3638295  
  4810.000000   3640097   3641850   3643570   3645256   3646904  
  4800.000000   3648506   3650059   3651570   3653060   3654550  
  4790.000000   3656065   3657616   3659208   3660830   3662470  
  4780.000000   3664113   3665753   3667379   3668991   3670576  
  4770.000000   3672123   3673609   3675022   3676340   3677566  
  4760.000000   3678692   3679731   3680675   3681528   3682269  
  4750.000000   3682891   3683369   3683705   3683888   3683937  
  4740.000000   3683857   3683676   3683400   3683052   3682632  
  4730.000000   3682147   3681587   3680949   3680216   3679384  
  4720.000000   3678450   3677423   3676324   3675181   3674028  
  4710.000000   3672896   3671809   3670782   3669826   3668943  
  4700.000000   3668143   3667432   3666823   3666328   3665957  
  4690.000000   3665713   3665598   3665600   3665712   3665913  
  4680.000000   3666186   3666496   3666818   3667108   3667347  
  4670.000000   3667503   3667585   3667596   3667579   3667563  
  4660.000000   3667600   3667717   3667952   3668322   3668854  
  4650.000000   3669561   3670465   3671576   3672904   3674434  
  4640.000000   3676146   3677996   3679941   3681932   3683931  
  4630.000000   3685908   3687846   3689735   3691570   3693345  
  4620.000000   3695046   3696656   3698149   3699499   3700675  
  4610.000000   3701662   3702445   3703040   3703461   3703757  
  4600.000000   3703962   3704136   3704306   3704508   3704739  
  4590.000000   3705000   3705254   3705475   3705606   3705612  
  4580.000000   3705445   3705086   3704518   3703759   3702832  
  4570.000000   3701784   3700653   3699483   3698290   3697085  
  4560.000000   3695851   3694580   3693253   3691871   3690436  
  4550.000000   3688963   3687464   3685947   3684412   3682854  
  4540.000000   3681271   3679662   3678042   3676425   3674841  
  4530.000000   3673302   3671836   3670442   3669144   3667938  
  4520.000000   3666859   3665906   3665122   3664499   3664083  
  4510.000000   3663860   3663888   3664170   3664795   3665786  
  4500.000000   3667250   3669198   3671713   3674765   3678409  
  4490.000000   3682596   3687387   3692752   3698774   3705437  
  4480.000000   3712814   3720863   3729619   3739003   3749021  
  4470.000000   3759582   3770685   3782241   3794243   3806598  
  4460.000000   3819289   3832226   3845390   3858709   3872176  
  4450.000000   3885742   3899402   3913119   3926880   3940658  
  4440.000000   3954436   3968205   3981952   3995684   4009383  
  4430.000000   4023058   4036665   4050200   4063588   4076810  
  4420.000000   4089764   4102425   4114680   4126498   4137765  
  4410.000000   4148448   4158434   4167700   4176156   4183814  
  4400.000000   4190638   4196703   4202040   4206781   4210998  
  4390.000000   4214839   4218372   4221714   4224902   4228006  
  4380.000000   4231034   4234029   4236997   4239986   4243033  
  4370.000000   4246205   4249563   4253175   4257085   4261323  
  4360.000000   4265886   4270753   4275873   4281199   4286649  
  4350.000000   4292175   4297680   4303138   4308472   4313697  
  4340.000000   4318784   4323775   4328625   4333287   4337561  
  4330.000000   4341187   4343776   4344960   4344406   4341986  
  4320.000000   4337771   4332108   4325499   4318572   4311881  
  4310.000000   4305888   4300824   4296772   4293630   4291257  
  4300.000000   4289469   4288138   4287165   4286489   4286074  
  4290.000000   4285866   4285836   4285926   4286131   4286433  
  4280.000000   4286861   4287431   4288165   4289071   4290139  
  4270.000000   4291360   4292695   4294103   4295489   4296727  
  4260.000000   4297619   4297944   4297472   4296032   4293546  
  4250.000000   4290076   4285805   4281029   4276069   4271252  
  4240.000000   4266811   4262908   4259572   4256772   4254394  
  4230.000000   4252318   4250409   4248557   4246677   4244710  
  4220.000000   4242641   4240466   4238237   4235996   4233840  
  4210.000000   4231828   4230054   4228561   4227404   4226582  
  4200.000000   4226101   4225916   4225998   4226277   4226719  
  4190.000000   4227261   4227899   4228599   4229398   4230287  
  4180.000000   4231319   4232482   4233826   4235333   4237058  
  4170.000000   4239005   4241261   4243856   4246893   4250396  
  4160.000000   4254438   4258993   4264087   4269652   4275693  
  4150.000000   4282141   4289016   4296265   4303927   4311964  
  4140.000000   4320429   4329290   4338606   4348346   4358561  
  4130.000000   4369205   4380305   4391799   4403696   4415934  
  4120.000000   4428532   4441451   4454731   4468357   4482378  
  4110.000000   4496786   4511616   4526842   4542465   4558422  
  4100.000000   4574671   4591125   4607727   4624410   4641148  
  4090.000000   4657927   4674759   4691659   4708637   4725700  
  4080.000000   4742826   4760008   4777200   4794390   4811516  
  4070.000000   4828554   4845412   4862052   4878372   4894356  
  4060.000000   4909931   4925128   4939893   4954268   4968182  
  4050.000000   4981660   4994617   5007093   5019016   5030453  
  4040.000000   5041331   5051700   5061446   5070589   5078999  
  4030.000000   5086708   5093613   5099773   5105111   5109678  
  4020.000000   5113372   5116256   5118309   5119624   5120164  
  4010.000000   5120082   5119464   5118328   5116435   5113841  
  4000.000000   5110891  
##END= 
