##TITLE= Sample 044 By ssteindl date Dienstag, November 20 2018
##JCAMP-DX= 4.24
##DATA TYPE= INFRARED SPECTRUM
##ORIGIN= Exported PE Spectrum Data File
##OWNER= Sandra Steindl
##DATE= 18/11/20
##TIME= 15:37:28.00
##SPECTROMETER/DATA SYSTEM= PERKIN-ELMER Frontier FT-IR/NIR IR
##INSTRUMENT PARAMETERS=
  APODIZATION=stark
  DETECTOR=INGAAS
##RESOLUTION= 16.000000
##DELTAX= -2.000000
##XUNITS= 1/CM
##YUNITS= A
##XFACTOR= 1.00
##YFACTOR= 0.00000011920928955078
##FIRSTX= 10000.00
##LASTX= 4000.00
##NPOINTS= 3001
##FIRSTY= 0.202495
##MAXY= 0.609535
##MINY= 0.179351
##XYDATA= (X++(Y..Y))
 10000.000000   1698649   1691900   1686466   1684118   1685012  
  9990.000000   1687937   1691604   1695195   1698192   1700301  
  9980.000000   1701609   1702173   1701826   1700054   1696464  
  9970.000000   1690893   1683672   1675517   1667404   1660229  
  9960.000000   1654633   1650940   1649179   1649246   1650893  
  9950.000000   1653772   1657366   1660986   1663909   1665511  
  9940.000000   1665552   1664218   1662160   1660192   1659057  
  9930.000000   1659100   1660240   1662063   1664075   1665972  
  9920.000000   1667664   1669289   1670925   1672511   1673729  
  9910.000000   1674157   1673477   1671621   1668891   1665728  
  9900.000000   1662582   1659595   1656618   1653291   1649329  
  9890.000000   1644795   1640171   1636327   1634145   1634288  
  9880.000000   1636863   1641487   1647382   1653672   1659607  
  9870.000000   1664641   1668461   1670832   1671601   1670639  
  9860.000000   1667977   1663865   1658866   1653748   1649365  
  9850.000000   1646389   1645146   1645522   1646978   1648791  
  9840.000000   1650160   1650523   1649569   1647387   1644396  
  9830.000000   1641312   1638997   1638245   1639508   1642684  
  9820.000000   1647003   1651228   1653997   1654320   1651952  
  9810.000000   1647493   1642200   1637481   1634389   1633169  
  9800.000000   1633205   1633242   1631957   1628496   1622894  
  9790.000000   1616079   1609548   1604837   1602956   1604137  
  9780.000000   1607764   1612690   1617612   1621478   1623794  
  9770.000000   1624630   1624551   1624283   1624453   1625321  
  9760.000000   1626724   1628120   1628866   1628427   1626685  
  9750.000000   1623980   1621051   1618793   1617866   1618497  
  9740.000000   1620290   1622456   1624074   1624527   1623729  
  9730.000000   1622170   1620662   1619974   1620466   1621936  
  9720.000000   1623726   1625003   1625148   1623959   1621713  
  9710.000000   1618966   1616291   1614043   1612303   1610967  
  9700.000000   1609947   1609291   1609179   1609770   1611018  
  9690.000000   1612593   1613979   1614722   1614706   1614252  
  9680.000000   1614014   1614658   1616493   1619270   1622201  
  9670.000000   1624326   1624902   1623809   1621592   1619286  
  9660.000000   1617910   1618049   1619543   1621559   1622937  
  9650.000000   1622631   1620157   1615658   1609856   1603647  
  9640.000000   1597827   1592853   1588851   1585792   1583652  
  9630.000000   1582571   1582771   1584471   1587668   1592111  
  9620.000000   1597290   1602601   1607485   1611509   1614426  
  9610.000000   1616071   1616396   1615376   1613118   1609856  
  9600.000000   1606006   1602114   1598726   1596278   1594914  
  9590.000000   1594514   1594665   1594888   1594708   1593859  
  9580.000000   1592287   1590145   1587721   1585309   1583183  
  9570.000000   1581489   1580280   1579464   1578872   1578272  
  9560.000000   1577492   1576490   1575420   1574624   1574477  
  9550.000000   1575284   1577048   1579505   1582131   1584384  
  9540.000000   1585875   1586494   1586449   1586046   1585592  
  9530.000000   1585081   1584241   1582506   1579336   1574431  
  9520.000000   1567967   1560669   1553622   1548101   1545148  
  9510.000000   1545442   1549049   1555507   1563877   1572921  
  9500.000000   1581322   1587830   1591535   1591914   1589037  
  9490.000000   1583473   1576310   1568860   1562463   1558140  
  9480.000000   1556404   1557206   1559967   1563869   1567976  
  9470.000000   1571574   1574176   1575651   1576109   1575807  
  9460.000000   1575057   1574063   1572979   1571801   1570511  
  9450.000000   1569048   1567406   1565661   1563975   1562626  
  9440.000000   1561905   1562090   1563292   1565425   1568153  
  9430.000000   1570979   1573335   1574735   1574875   1573718  
  9420.000000   1571513   1568746   1566054   1564033   1563092  
  9410.000000   1563288   1564317   1565577   1566355   1566063  
  9400.000000   1564408   1561531   1557916   1554312   1551431  
  9390.000000   1549804   1549591   1550605   1552412   1554479  
  9380.000000   1556329   1557582   1557971   1557283   1555373  
  9370.000000   1552189   1547894   1542888   1537828   1533453  
  9360.000000   1530410   1529032   1529209   1530450   1532026  
  9350.000000   1533307   1533943   1534007   1533850   1533901  
  9340.000000   1534428   1535375   1536421   1537054   1536876  
  9330.000000   1535687   1533643   1531088   1528442   1525999  
  9320.000000   1523865   1522002   1520316   1518819   1517654  
  9310.000000   1517076   1517309   1518438   1520332   1522679  
  9300.000000   1525067   1527106   1528526   1529214   1529220  
  9290.000000   1528673   1527765   1526686   1525631   1524765  
  9280.000000   1524189   1523897   1523764   1523585   1523153  
  9270.000000   1522359   1521235   1519975   1518839   1518057  
  9260.000000   1517707   1517670   1517720   1517611   1517259  
  9250.000000   1516751   1516348   1516313   1516780   1517669  
  9240.000000   1518719   1519615   1520170   1520446   1520772  
  9230.000000   1521606   1523308   1525954   1529247   1532620  
  9220.000000   1535411   1537122   1537555   1536903   1535621  
  9210.000000   1534261   1533237   1532749   1532749   1533023  
  9200.000000   1533247   1533109   1532353   1530835   1528520  
  9190.000000   1525508   1522055   1518539   1515407   1513040  
  9180.000000   1511633   1511118   1511170   1511341   1511238  
  9170.000000   1510724   1510001   1509530   1509859   1511343  
  9160.000000   1513997   1517367   1520681   1523073   1523937  
  9150.000000   1523087   1520880   1518070   1515624   1514357  
  9140.000000   1514694   1516569   1519486   1522697   1525416  
  9130.000000   1527085   1527543   1527048   1526147   1525499  
  9120.000000   1525646   1526855   1529009   1531674   1534240  
  9110.000000   1536143   1537037   1536925   1536116   1535128  
  9100.000000   1534439   1534363   1534888   1535728   1536392  
  9090.000000   1536402   1535464   1533569   1530975   1528123  
  9080.000000   1525464   1523333   1521826   1520818   1520027  
  9070.000000   1519142   1517944   1516375   1514574   1512804  
  9060.000000   1511368   1510495   1510279   1510647   1511404  
  9050.000000   1512280   1513041   1513535   1513760   1513824  
  9040.000000   1513900   1514156   1514689   1515482   1516417  
  9030.000000   1517303   1517971   1518297   1518261   1517918  
  9020.000000   1517392   1516813   1516262   1515770   1515295  
  9010.000000   1514799   1514244   1513693   1513286   1513248  
  9000.000000   1513788   1515032   1516926   1519191   1521348  
  8990.000000   1522821   1523119   1521966   1519434   1515946  
  8980.000000   1512188   1508913   1506710   1505881   1506375  
  8970.000000   1507859   1509832   1511811   1513457   1514605  
  8960.000000   1515215   1515290   1514844   1513856   1512346  
  8950.000000   1510406   1508293   1506367   1505008   1504505  
  8940.000000   1504955   1506249   1508096   1510168   1512202  
  8930.000000   1514057   1515682   1517045   1518066   1518579  
  8920.000000   1518390   1517375   1515623   1513460   1511405  
  8910.000000   1509987   1509552   1510135   1511405   1512803  
  8900.000000   1513717   1513741   1512811   1511217   1509470  
  8890.000000   1508089   1507420   1507509   1508134   1508905  
  8880.000000   1509454   1509559   1509238   1508690   1508220  
  8870.000000   1508100   1508492   1509387   1510652   1512062  
  8860.000000   1513409   1514520   1515339   1515891   1516301  
  8850.000000   1516731   1517354   1518307   1519654   1521376  
  8840.000000   1523355   1525431   1527427   1529229   1530803  
  8830.000000   1532212   1533563   1534960   1536431   1537889  
  8820.000000   1539141   1539932   1540050   1539392   1538035  
  8810.000000   1536225   1534329   1532748   1531794   1531635  
  8800.000000   1532239   1533428   1534926   1536470   1537871  
  8790.000000   1539057   1540076   1541036   1542064   1543217  
  8780.000000   1544481   1545757   1546922   1547871   1548573  
  8770.000000   1549093   1549560   1550159   1551041   1552306  
  8760.000000   1553947   1555861   1557867   1559730   1561219  
  8750.000000   1562124   1562328   1561786   1560576   1558860  
  8740.000000   1556889   1554966   1553396   1552451   1552317  
  8730.000000   1553094   1554770   1557240   1560298   1563670  
  8720.000000   1567044   1570098   1572568   1574268   1575175  
  8710.000000   1575398   1575211   1574939   1574920   1575376  
  8700.000000   1576380   1577847   1579562   1581300   1582880  
  8690.000000   1584268   1585556   1586932   1588560   1590506  
  8680.000000   1592665   1594776   1596498   1597526   1597725  
  8670.000000   1597168   1596155   1595098   1594423   1594405  
  8660.000000   1595103   1596342   1597809   1599168   1600198  
  8650.000000   1600870   1601356   1601962   1603004   1604704  
  8640.000000   1607110   1610098   1613428   1616819   1620050  
  8630.000000   1622986   1625600   1627899   1629898   1631568  
  8620.000000   1632862   1633739   1634209   1634369   1634392  
  8610.000000   1634502   1634894   1635712   1636984   1638657  
  8600.000000   1640597   1642645   1644631   1646403   1647834  
  8590.000000   1648818   1649302   1649297   1648921   1648379  
  8580.000000   1647948   1647919   1648530   1649903   1651992  
  8570.000000   1654622   1657523   1660426   1663106   1665436  
  8560.000000   1667390   1669004   1670339   1671435   1672306  
  8550.000000   1672935   1673304   1673416   1673327   1673145  
  8540.000000   1673010   1673071   1673436   1674151   1675167  
  8530.000000   1676356   1677536   1678525   1679195   1679518  
  8520.000000   1679588   1679606   1679825   1680494   1681781  
  8510.000000   1683732   1686259   1689165   1692184   1695036  
  8500.000000   1697482   1699349   1700574   1701177   1701276  
  8490.000000   1701032   1700655   1700329   1700191   1700300  
  8480.000000   1700629   1701118   1701685   1702318   1703063  
  8470.000000   1704048   1705393   1707158   1709278   1711539  
  8460.000000   1713624   1715187   1715986   1715942   1715194  
  8450.000000   1714027   1712821   1711920   1711568   1711859  
  8440.000000   1712736   1714055   1715620   1717268   1718863  
  8430.000000   1720343   1721690   1722945   1724164   1725409  
  8420.000000   1726705   1728017   1729248   1730245   1730862  
  8410.000000   1731002   1730678   1730022   1729250   1728593  
  8400.000000   1728211   1728146   1728306   1728532   1728664  
  8390.000000   1728633   1728478   1728342   1728392   1728750  
  8380.000000   1729426   1730322   1731272   1732111   1732737  
  8370.000000   1733136   1733374   1733547   1733735   1733979  
  8360.000000   1734278   1734619   1734991   1735392   1735815  
  8350.000000   1736222   1736538   1736659   1736489   1735984  
  8340.000000   1735186   1734218   1733244   1732425   1731863  
  8330.000000   1731596   1731600   1731836   1732261   1732857  
  8320.000000   1733598   1734434   1735258   1735929   1736301  
  8310.000000   1736287   1735897   1735239   1734479   1733776  
  8300.000000   1733213   1732775   1732366   1731864   1731190  
  8290.000000   1730351   1729421   1728505   1727668   1726906  
  8280.000000   1726144   1725295   1724321   1723276   1722307  
  8270.000000   1721595   1721287   1721417   1721877   1722462  
  8260.000000   1722944   1723166   1723095   1722823   1722518  
  8250.000000   1722343   1722389   1722638   1722975   1723242  
  8240.000000   1723298   1723067   1722546   1721799   1720917  
  8230.000000   1720013   1719176   1718496   1718014   1717751  
  8220.000000   1717658   1717645   1717562   1717257   1716592  
  8210.000000   1715517   1714064   1712366   1710582   1708864  
  8200.000000   1707292   1705865   1704514   1703136   1701640  
  8190.000000   1699976   1698132   1696136   1694017   1691825  
  8180.000000   1689619   1687494   1685577   1684009   1682906  
  8170.000000   1682299   1682092   1682059   1681899   1681318  
  8160.000000   1680145   1678375   1676191   1673881   1671761  
  8150.000000   1670051   1668820   1667988   1667378   1666823  
  8140.000000   1666238   1665663   1665215   1665021   1665126  
  8130.000000   1665440   1665753   1665773   1665246   1664006  
  8120.000000   1662070   1659603   1656905   1654320   1652159  
  8110.000000   1650652   1649894   1649867   1650432   1651383  
  8100.000000   1652466   1653435   1654078   1654266   1653961  
  8090.000000   1653220   1652163   1650929   1649636   1648354  
  8080.000000   1647107   1645903   1644753   1643707   1642826  
  8070.000000   1642177   1641760   1641506   1641249   1640785  
  8060.000000   1639922   1638548   1636686   1634470   1632119  
  8050.000000   1629849   1627811   1626060   1624561   1623243  
  8040.000000   1622047   1620972   1620071   1619420   1619066  
  8030.000000   1618985   1619068   1619149   1619059   1618681  
  8020.000000   1618001   1617087   1616087   1615144   1614367  
  8010.000000   1613782   1613342   1612940   1612462   1611817  
  8000.000000   1610975   1609969   1608889   1607849   1606968  
  7990.000000   1606326   1605956   1605829   1605869   1605974  
  7980.000000   1606051   1606047   1605966   1605867   1605840  
  7970.000000   1605964   1606270   1606707   1607153   1607425  
  7960.000000   1607350   1606795   1605730   1604221   1602435  
  7950.000000   1600591   1598915   1597594   1596732   1596358  
  7940.000000   1596407   1596773   1597319   1597922   1598488  
  7930.000000   1598955   1599301   1599506   1599566   1599449  
  7920.000000   1599133   1598588   1597825   1596894   1595900  
  7910.000000   1594990   1594320   1594023   1594169   1594755  
  7900.000000   1595693   1596836   1597996   1598982   1599631  
  7890.000000   1599823   1599520   1598761   1597680   1596474  
  7880.000000   1595382   1594622   1594342   1594581   1595250  
  7870.000000   1596180   1597156   1598010   1598652   1599096  
  7860.000000   1599420   1599708   1599995   1600227   1600294  
  7850.000000   1600062   1599472   1598563   1597497   1596497  
  7840.000000   1595771   1595438   1595474   1595746   1596055  
  7830.000000   1596244   1596246   1596120   1596004   1596063  
  7820.000000   1596396   1597003   1597773   1598532   1599107  
  7810.000000   1599379   1599318   1598969   1598420   1597748  
  7800.000000   1596998   1596157   1595185   1594040   1592709  
  7790.000000   1591238   1589720   1588299   1587115   1586310  
  7780.000000   1585960   1586093   1586651   1587506   1588468  
  7770.000000   1589317   1589840   1589872   1589346   1588288  
  7760.000000   1586839   1585192   1583567   1582139   1581009  
  7750.000000   1580190   1579615   1579183   1578790   1578379  
  7740.000000   1577939   1577508   1577136   1576853   1576646  
  7730.000000   1576446   1576161   1575686   1574971   1574016  
  7720.000000   1572907   1571770   1570753   1569977   1569505  
  7710.000000   1569343   1569442   1569736   1570157   1570657  
  7700.000000   1571206   1571771   1572306   1572731   1572953  
  7690.000000   1572871   1572434   1571647   1570605   1569460  
  7680.000000   1568394   1567565   1567061   1566892   1566979  
  7670.000000   1567205   1567442   1567600   1567642   1567580  
  7660.000000   1567459   1567325   1567202   1567081   1566932  
  7650.000000   1566722   1566442   1566116   1565810   1565601  
  7640.000000   1565559   1565714   1566039   1566450   1566827  
  7630.000000   1567044   1567008   1566687   1566125   1565426  
  7620.000000   1564731   1564180   1563883   1563891   1564199  
  7610.000000   1564745   1565436   1566166   1566840   1567393  
  7600.000000   1567796   1568056   1568213   1568323   1568456  
  7590.000000   1568667   1568994   1569441   1569982   1570566  
  7580.000000   1571137   1571648   1572080   1572441   1572765  
  7570.000000   1573092   1573455   1573866   1574314   1574770  
  7560.000000   1575211   1575625   1576025   1576437   1576894  
  7550.000000   1577406   1577961   1578509   1578995   1579369  
  7540.000000   1579622   1579788   1579957   1580237   1580738  
  7530.000000   1581523   1582598   1583895   1585307   1586707  
  7520.000000   1587998   1589124   1590098   1590974   1591841  
  7510.000000   1592779   1593848   1595063   1596417   1597870  
  7500.000000   1599383   1600914   1602433   1603916   1605352  
  7490.000000   1606733   1608067   1609370   1610677   1612016  
  7480.000000   1613416   1614876   1616381   1617887   1619351  
  7470.000000   1620743   1622064   1623350   1624663   1626069  
  7460.000000   1627618   1629326   1631179   1633137   1635163  
  7450.000000   1637229   1639329   1641466   1643643   1645840  
  7440.000000   1648015   1650104   1652056   1653837   1655462  
  7430.000000   1656976   1658457   1659977   1661585   1663292  
  7420.000000   1665072   1666884   1668692   1670482   1672270  
  7410.000000   1674094   1675996   1678000   1680102   1682264  
  7400.000000   1684435   1686559   1688607   1690576   1692493  
  7390.000000   1694399   1696332   1698305   1700307   1702297  
  7380.000000   1704228   1706063   1707797   1709457   1711098  
  7370.000000   1712787   1714579   1716509   1718577   1720762  
  7360.000000   1723028   1725338   1727659   1729963   1732220  
  7350.000000   1734395   1736446   1738336   1740052   1741611  
  7340.000000   1743062   1744477   1745924   1747451   1749066  
  7330.000000   1750747   1752446   1754127   1755764   1757367  
  7320.000000   1758955   1760558   1762190   1763844   1765498  
  7310.000000   1767121   1768687   1770174   1771574   1772877  
  7300.000000   1774074   1775157   1776134   1777040   1777938  
  7290.000000   1778913   1780041   1781376   1782910   1784595  
  7280.000000   1786349   1788088   1789752   1791315   1792777  
  7270.000000   1794143   1795405   1796530   1797484   1798248  
  7260.000000   1798857   1799393   1799985   1800750   1801763  
  7250.000000   1803017   1804438   1805905   1807326   1808665  
  7240.000000   1809982   1811394   1813042   1815009   1817301  
  7230.000000   1819822   1822434   1824986   1827396   1829644  
  7220.000000   1831803   1833962   1836231   1838657   1841264  
  7210.000000   1844010   1846852   1849725   1852602   1855464  
  7200.000000   1858335   1861249   1864272   1867466   1870904  
  7190.000000   1874624   1878643   1882911   1887349   1891829  
  7180.000000   1896239   1900484   1904538   1908416   1912189  
  7170.000000   1915925   1919701   1923547   1927488   1931500  
  7160.000000   1935567   1939650   1943728   1947775   1951802  
  7150.000000   1955835   1959949   1964231   1968791   1973690  
  7140.000000   1978946   1984478   1990168   1995861   2001467  
  7130.000000   2006956   2012413   2017963   2023763   2029887  
  7120.000000   2036341   2043008   2049738   2056367   2062816  
  7110.000000   2069083   2075262   2081473   2087835   2094403  
  7100.000000   2101182   2108120   2115160   2122238   2129320  
  7090.000000   2136367   2143348   2150218   2156939   2163494  
  7080.000000   2169909   2176251   2182619   2189099   2195747  
  7070.000000   2202557   2209477   2216430   2223356   2230226  
  7060.000000   2237048   2243856   2250678   2257523   2264382  
  7050.000000   2271236   2278076   2284911   2291760   2298637  
  7040.000000   2305525   2312379   2319126   2325708   2332097  
  7030.000000   2338328   2344474   2350631   2356860   2363182  
  7020.000000   2369546   2375876   2382079   2388105   2393940  
  7010.000000   2399620   2405185   2410681   2416111   2421472  
  7000.000000   2426734   2431893   2436944   2441918   2446827  
  6990.000000   2451690   2456487   2461192   2465753   2470141  
  6980.000000   2474320   2478300   2482090   2485741   2489294  
  6970.000000   2492818   2496357   2499954   2503597   2507250  
  6960.000000   2510820   2514218   2517355   2520206   2522797  
  6950.000000   2525228   2527605   2530032   2532544   2535125  
  6940.000000   2537690   2540159   2542459   2544583   2546558  
  6930.000000   2548449   2550306   2552159   2553993   2555779  
  6920.000000   2557480   2559086   2560605   2562069   2563502  
  6910.000000   2564925   2566334   2567727   2569094   2570447  
  6900.000000   2571794   2573145   2574491   2575808   2577055  
  6890.000000   2578202   2579236   2580174   2581047   2581888  
  6880.000000   2582710   2583504   2584246   2584920   2585532  
  6870.000000   2586121   2586744   2587458   2588291   2589236  
  6860.000000   2590252   2591291   2592315   2593318   2594309  
  6850.000000   2595306   2596308   2597290   2598203   2599002  
  6840.000000   2599663   2600198   2600642   2601039   2601411  
  6830.000000   2601750   2602019   2602186   2602238   2602211  
  6820.000000   2602170   2602198   2602344   2602622   2602985  
  6810.000000   2603366   2603691   2603917   2604035   2604066  
  6800.000000   2604028   2603931   2603759   2603494   2603127  
  6790.000000   2602689   2602239   2601851   2601582   2601443  
  6780.000000   2601391   2601343   2601205   2600919   2600473  
  6770.000000   2599918   2599336   2598819   2598425   2598174  
  6760.000000   2598040   2597969   2597891   2597744   2597474  
  6750.000000   2597045   2596438   2595656   2594724   2593692  
  6740.000000   2592629   2591609   2590692   2589912   2589266  
  6730.000000   2588725   2588236   2587756   2587249   2586709  
  6720.000000   2586145   2585580   2585033   2584515   2584017  
  6710.000000   2583516   2582973   2582346   2581598   2580708  
  6700.000000   2579676   2578528   2577308   2576074   2574873  
  6690.000000   2573739   2572680   2571688   2570741   2569822  
  6680.000000   2568917   2568026   2567140   2566253   2565339  
  6670.000000   2564375   2563340   2562238   2561095   2559955  
  6660.000000   2558861   2557836   2556864   2555904   2554888  
  6650.000000   2553765   2552503   2551114   2549635   2548115  
  6640.000000   2546585   2545059   2543524   2541964   2540362  
  6630.000000   2538729   2537084   2535461   2533879   2532343  
  6620.000000   2530833   2529326   2527792   2526218   2524604  
  6610.000000   2522960   2521297   2519623   2517940   2516249  
  6600.000000   2514551   2512856   2511175   2509519   2507888  
  6590.000000   2506279   2504678   2503076   2501468   2499857  
  6580.000000   2498247   2496640   2495035   2493423   2491801  
  6570.000000   2490167   2488533   2486908   2485303   2483715  
  6560.000000   2482136   2480557   2478979   2477426   2475941  
  6550.000000   2474571   2473348   2472265   2471280   2470317  
  6540.000000   2469302   2468188   2466971   2465691   2464406  
  6530.000000   2463166   2461989   2460852   2459711   2458523  
  6520.000000   2457270   2455965   2454649   2453360   2452119  
  6510.000000   2450917   2449724   2448508   2447259   2445998  
  6500.000000   2444770   2443628   2442606   2441709   2440912  
  6490.000000   2440178   2439471   2438774   2438086   2437406  
  6480.000000   2436722   2435999   2435185   2434231   2433112  
  6470.000000   2431838   2430462   2429057   2427696   2426429  
  6460.000000   2425272   2424212   2423216   2422251   2421294  
  6450.000000   2420331   2419360   2418379   2417387   2416382  
  6440.000000   2415365   2414340   2413317   2412303   2411306  
  6430.000000   2410325   2409368   2408444   2407576   2406787  
  6420.000000   2406104   2405536   2405076   2404696   2404364  
  6410.000000   2404049   2403740   2403439   2403160   2402911  
  6400.000000   2402687   2402465   2402216   2401910   2401534  
  6390.000000   2401092   2400598   2400069   2399516   2398942  
  6380.000000   2398349   2397751   2397173   2396652   2396219  
  6370.000000   2395886   2395628   2395391   2395106   2394716  
  6360.000000   2394196   2393569   2392886   2392217   2391609  
  6350.000000   2391084   2390622   2390185   2389726   2389210  
  6340.000000   2388617   2387943   2387190   2386368   2385484  
  6330.000000   2384554   2383598   2382647   2381722   2380840  
  6320.000000   2379991   2379157   2378305   2377420   2376500  
  6310.000000   2375567   2374642   2373739   2372842   2371911  
  6300.000000   2370894   2369758   2368497   2367154   2365787  
  6290.000000   2364460   2363200   2361994   2360788   2359519  
  6280.000000   2358133   2356622   2355011   2353354   2351700  
  6270.000000   2350074   2348462   2346830   2345132   2343347  
  6260.000000   2341477   2339564   2337656   2335803   2334028  
  6250.000000   2332335   2330697   2329084   2327458   2325787  
  6240.000000   2324047   2322219   2320296   2318284   2316201  
  6230.000000   2314087   2311984   2309935   2307969   2306096  
  6220.000000   2304309   2302591   2300925   2299298   2297701  
  6210.000000   2296123   2294545   2292937   2291267   2289508  
  6200.000000   2287656   2285731   2283775   2281838   2279963  
  6190.000000   2278171   2276461   2274811   2273197   2271594  
  6180.000000   2269990   2268381   2266768   2265153   2263542  
  6170.000000   2261944   2260383   2258887   2257488   2256203  
  6160.000000   2255027   2253929   2252856   2251749   2250568  
  6150.000000   2249298   2247955   2246574   2245197   2243849  
  6140.000000   2242536   2241243   2239949   2238637   2237304  
  6130.000000   2235961   2234627   2233321   2232052   2230819  
  6120.000000   2229614   2228430   2227266   2226124   2225019  
  6110.000000   2223958   2222955   2222008   2221118   2220272  
  6100.000000   2219461   2218665   2217872   2217066   2216244  
  6090.000000   2215405   2214570   2213759   2213003   2212320  
  6080.000000   2211727   2211219   2210792   2210431   2210135  
  6070.000000   2209899   2209733   2209632   2209601   2209625  
  6060.000000   2209701   2209814   2209976   2210191   2210490  
  6050.000000   2210884   2211392   2212003   2212713   2213496  
  6040.000000   2214349   2215263   2216254   2217325   2218494  
  6030.000000   2219752   2221097   2222508   2223980   2225502  
  6020.000000   2227088   2228737   2230463   2232251   2234090  
  6010.000000   2235947   2237799   2239620   2241408   2243163  
  6000.000000   2244912   2246671   2248474   2250335   2252280  
  5990.000000   2254312   2256442   2258660   2260968   2263349  
  5980.000000   2265805   2268330   2270938   2273637   2276449  
  5970.000000   2279376   2282423   2285567   2288790   2292055  
  5960.000000   2295343   2298624   2301892   2305134   2308356  
  5950.000000   2311556   2314755   2317971   2321244   2324612  
  5940.000000   2328113   2331765   2335564   2339482   2343471  
  5930.000000   2347480   2351467   2355410   2359306   2363162  
  5920.000000   2366988   2370784   2374533   2378209   2381781  
  5910.000000   2385221   2388511   2391649   2394641   2397512  
  5900.000000   2400291   2403027   2405764   2408557   2411433  
  5890.000000   2414414   2417475   2420578   2423658   2426665  
  5880.000000   2429557   2432330   2434995   2437581   2440105  
  5870.000000   2442570   2444955   2447226   2449359   2451350  
  5860.000000   2453224   2455033   2456842   2458713   2460690  
  5850.000000   2462797   2465034   2467391   2469844   2472371  
  5840.000000   2474946   2477540   2480126   2482677   2485173  
  5830.000000   2487605   2489977   2492295   2494573   2496813  
  5820.000000   2499015   2501174   2503282   2505338   2507346  
  5810.000000   2509319   2511264   2513198   2515116   2517034  
  5800.000000   2518938   2520843   2522730   2524607   2526439  
  5790.000000   2528212   2529866   2531364   2532631   2533616  
  5780.000000   2534239   2534446   2534171   2533391   2532097  
  5770.000000   2530349   2528231   2525886   2523449   2521062  
  5760.000000   2518810   2516748   2514870   2513163   2511591  
  5750.000000   2510144   2508819   2507630   2506586   2505682  
  5740.000000   2504903   2504213   2503584   2502984   2502403  
  5730.000000   2501831   2501278   2500738   2500222   2499721  
  5720.000000   2499246   2498796   2498384   2498010   2497678  
  5710.000000   2497378   2497103   2496846   2496612   2496416  
  5700.000000   2496281   2496225   2496254   2496361   2496517  
  5690.000000   2496697   2496868   2497019   2497138   2497225  
  5680.000000   2497268   2497252   2497143   2496912   2496518  
  5670.000000   2495940   2495157   2494166   2492960   2491548  
  5660.000000   2489940   2488169   2486274   2484320   2482363  
  5650.000000   2480463   2478648   2476932   2475300   2473736  
  5640.000000   2472222   2470753   2469333   2467970   2466670  
  5630.000000   2465425   2464222   2463043   2461882   2460738  
  5620.000000   2459627   2458564   2457562   2456621   2455730  
  5610.000000   2454871   2454025   2453181   2452334   2451484  
  5600.000000   2450630   2449770   2448899   2448013   2447112  
  5590.000000   2446201   2445283   2444364   2443442   2442511  
  5580.000000   2441561   2440592   2439605   2438613   2437620  
  5570.000000   2436626   2435613   2434557   2433428   2432214  
  5560.000000   2430917   2429565   2428191   2426833   2425507  
  5550.000000   2424216   2422944   2421675   2420400   2419123  
  5540.000000   2417862   2416636   2415455   2414318   2413216  
  5530.000000   2412138   2411080   2410047   2409051   2408097  
  5520.000000   2407175   2406264   2405329   2404341   2403283  
  5510.000000   2402157   2400978   2399766   2398532   2397280  
  5500.000000   2396002   2394694   2393358   2392017   2390692  
  5490.000000   2389403   2388145   2386897   2385614   2384257  
  5480.000000   2382798   2381236   2379588   2377887   2376160  
  5470.000000   2374426   2372686   2370938   2369180   2367419  
  5460.000000   2365663   2363920   2362184   2360436   2358649  
  5450.000000   2356802   2354891   2352937   2350978   2349058  
  5440.000000   2347211   2345447   2343761   2342134   2340551  
  5430.000000   2338997   2337471   2335961   2334461   2332948  
  5420.000000   2331420   2329878   2328368   2326945   2325688  
  5410.000000   2324640   2323823   2323195   2322706   2322282  
  5400.000000   2321895   2321528   2321221   2321009   2320945  
  5390.000000   2321039   2321305   2321715   2322273   2322967  
  5380.000000   2323826   2324853   2326071   2327450   2328988  
  5370.000000   2330634   2332399   2334260   2336264   2338408  
  5360.000000   2340745   2343251   2345964   2348859   2352004  
  5350.000000   2355415   2359203   2363399   2368096   2373266  
  5340.000000   2378945   2385056   2391630   2398611   2406065  
  5330.000000   2413953   2422342   2431171   2440481   2450200  
  5320.000000   2460399   2471051   2482285   2494107   2506658  
  5310.000000   2519911   2533955   2548710   2564231   2580440  
  5300.000000   2597419   2615135   2633717   2653162   2673599  
  5290.000000   2694996   2717407   2740706   2764841   2789617  
  5280.000000   2814964   2840750   2867014   2893766   2921137  
  5270.000000   2949165   2977887   3007185   3036885   3066744  
  5260.000000   3096553   3126185   3155602   3184865   3214021  
  5250.000000   3243110   3272032   3300668   3328774   3356217  
  5240.000000   3382829   3408656   3433696   3458124   3481967  
  5230.000000   3505348   3528176   3550445   3571960   3592686  
  5220.000000   3612466   3631365   3649347   3666578   3683075  
  5210.000000   3698993   3714272   3728954   3742866   3755989  
  5200.000000   3768163   3779455   3789823   3799439   3808320  
  5190.000000   3816621   3824297   3831414   3837863   3843684  
  5180.000000   3848787   3853249   3857020   3860191   3862705  
  5170.000000   3864635   3865924   3866659   3866823   3866531  
  5160.000000   3865779   3864650   3863086   3861109   3858627  
  5150.000000   3855661   3852168   3848221   3843830   3839086  
  5140.000000   3833996   3828625   3822963   3817070   3810952  
  5130.000000   3804682   3798275   3791787   3785205   3778548  
  5120.000000   3771782   3764923   3757962   3750936   3743860  
  5110.000000   3736769   3729663   3722552   3715424   3708288  
  5100.000000   3701147   3694026   3686935   3679888   3672870  
  5090.000000   3665862   3658833   3651771   3644670   3637552  
  5080.000000   3630438   3623358   3616322   3609332   3602370  
  5070.000000   3595422   3588467   3581496   3574498   3567471  
  5060.000000   3560399   3553277   3546094   3538854   3531563  
  5050.000000   3524246   3516920   3509601   3502288   3494974  
  5040.000000   3487640   3480276   3472880   3465465   3458052  
  5030.000000   3450668   3443331   3436047   3428816   3421624  
  5020.000000   3414472   3407356   3400294   3393296   3386394  
  5010.000000   3379598   3372932   3366397   3360012   3353774  
  5000.000000   3347709   3341814   3336119   3330615   3325329  
  4990.000000   3320244   3315384   3310727   3306295   3302065  
  4980.000000   3298062   3294262   3290700   3287362   3284300  
  4970.000000   3281515   3279069   3276959   3275235   3273867  
  4960.000000   3272878   3272214   3271889   3271851   3272129  
  4950.000000   3272692   3273588   3274797   3276372   3278287  
  4940.000000   3280589   3283241   3286275   3289642   3293362  
  4930.000000   3297380   3301714   3306318   3311230   3316428  
  4920.000000   3321967   3327836   3334078   3340664   3347610  
  4910.000000   3354870   3362444   3370290   3378414   3386781  
  4900.000000   3395393   3404207   3413204   3422334   3431567  
  4890.000000   3440865   3450203   3459558   3468897   3478193  
  4880.000000   3487385   3496430   3505251   3513809   3522035  
  4870.000000   3529910   3537382   3544452   3551077   3557274  
  4860.000000   3563017   3568343   3573245   3577779   3581948  
  4850.000000   3585809   3589360   3592652   3595678   3598484  
  4840.000000   3601066   3603471   3605700   3607799   3609774  
  4830.000000   3611666   3613481   3615255   3616989   3618707  
  4820.000000   3620400   3622075   3623721   3625339   3626923  
  4810.000000   3628478   3630004   3631508   3632988   3634448  
  4800.000000   3635887   3637313   3638739   3640184   3641669  
  4790.000000   3643215   3644831   3646524   3648279   3650085  
  4780.000000   3651916   3653754   3655571   3657349   3659059  
  4770.000000   3660680   3662186   3663568   3664812   3665928  
  4760.000000   3666918   3667800   3668574   3669253   3669826  
  4750.000000   3670301   3670666   3670938   3671115   3671220  
  4740.000000   3671251   3671221   3671116   3670935   3670660  
  4730.000000   3670292   3669823   3669264   3668620   3667907  
  4720.000000   3667134   3666312   3665448   3664554   3663643  
  4710.000000   3662731   3661837   3660977   3660170   3659425  
  4700.000000   3658755   3658164   3657665   3657265   3656982  
  4690.000000   3656828   3656823   3656970   3657274   3657717  
  4680.000000   3658275   3658902   3659559   3660192   3660771  
  4670.000000   3661261   3661665   3661981   3662243   3662470  
  4660.000000   3662710   3662990   3663362   3663862   3664541  
  4650.000000   3665433   3666576   3667982   3669652   3671557  
  4640.000000   3673659   3675907   3678252   3680651   3683074  
  4630.000000   3685498   3687910   3690297   3692645   3694935  
  4620.000000   3697142   3699239   3701192   3702972   3704542  
  4610.000000   3705885   3706977   3707832   3708457   3708899  
  4600.000000   3709192   3709394   3709531   3709640   3709719  
  4590.000000   3709777   3709785   3709740   3709607   3709377  
  4580.000000   3709018   3708522   3707865   3707049   3706070  
  4570.000000   3704954   3703715   3702389   3700991   3699539  
  4560.000000   3698030   3696464   3694831   3693137   3691383  
  4550.000000   3689590   3687773   3685950   3684134   3682332  
  4540.000000   3680552   3678804   3677105   3675466   3673907  
  4530.000000   3672426   3671028   3669691   3668419   3667189  
  4520.000000   3666033   3664954   3664014   3663226   3662659  
  4510.000000   3662316   3662261   3662491   3663084   3664050  
  4500.000000   3665486   3667399   3669882   3672914   3676563  
  4490.000000   3680786   3685640   3691085   3697188   3703914  
  4480.000000   3711328   3719380   3728113   3737458   3747435  
  4470.000000   3757965   3769059   3780634   3792690   3805141  
  4460.000000   3817976   3831111   3844530   3858156   3871970  
  4450.000000   3885906   3899943   3914030   3928157   3942307  
  4440.000000   3956486   3970706   3984968   3999279   4013600  
  4430.000000   4027910   4042131   4056229   4070116   4083775  
  4420.000000   4097122   4110151   4122771   4134963   4146611  
  4410.000000   4157684   4168060   4177717   4186561   4194606  
  4400.000000   4201806   4208225   4213868   4218844   4223202  
  4390.000000   4227080   4230554   4233767   4236793   4239744  
  4380.000000   4242663   4245621   4248631   4251737   4254955  
  4370.000000   4258330   4261889   4265679   4269725   4274053  
  4360.000000   4278665   4283558   4288701   4294073   4299606  
  4350.000000   4305265   4310953   4316641   4322240   4327762  
  4340.000000   4333162   4338477   4343640   4348579   4353059  
  4330.000000   4356782   4359325   4360301   4359381   4356463  
  4320.000000   4351666   4345394   4338207   4330778   4323690  
  4310.000000   4317417   4312185   4308065   4304939   4302647  
  4300.000000   4300990   4299825   4299041   4298565   4298352  
  4290.000000   4298338   4298493   4298758   4299139   4299627  
  4280.000000   4300268   4301091   4302131   4303399   4304873  
  4270.000000   4306525   4308286   4310080   4311775   4313219  
  4260.000000   4314194   4314478   4313842   4312132   4309288  
  4250.000000   4305396   4300655   4295384   4289917   4284604  
  4240.000000   4279689   4275351   4271628   4268495   4265836  
  4230.000000   4263527   4261419   4259385   4257320   4255141  
  4220.000000   4252818   4250333   4247737   4245078   4242467  
  4210.000000   4239976   4237712   4235720   4234050   4232694  
  4200.000000   4231649   4230872   4230346   4230022   4229895  
  4190.000000   4229923   4230111   4230419   4230864   4231405  
  4180.000000   4232069   4232826   4233720   4234739   4235952  
  4170.000000   4237374   4239099   4241162   4243666   4246635  
  4160.000000   4250150   4254201   4258830   4263985   4269678  
  4150.000000   4275836   4282464   4289485   4296913   4304684  
  4140.000000   4312838   4321337   4330247   4339548   4349308  
  4130.000000   4359495   4370153   4381223   4392727   4404609  
  4120.000000   4416902   4429582   4442709   4456284   4470367  
  4110.000000   4484945   4500039   4515593   4531577   4547896  
  4100.000000   4564488   4581255   4598143   4615087   4632070  
  4090.000000   4649074   4666110   4683187   4700318   4717521  
  4080.000000   4734796   4752165   4769611   4787139   4804683  
  4070.000000   4822202   4839565   4856698   4873458   4889809  
  4060.000000   4905668   4921070   4935973   4950426   4964359  
  4050.000000   4977798   4990645   5002942   5014621   5025772  
  4040.000000   5036347   5046435   5055951   5064940   5073274  
  4030.000000   5080977   5087919   5094124   5099480   5104009  
  4020.000000   5107590   5110278   5112050   5113012   5113149  
  4010.000000   5112630   5111547   5109950   5107652   5104731  
  4000.000000   5101492  
##END= 
