##TITLE= Sample 006 By ssteindl date Montag, November 19 2018
##JCAMP-DX= 4.24
##DATA TYPE= INFRARED SPECTRUM
##ORIGIN= Exported PE Spectrum Data File
##OWNER= Sandra Steindl
##DATE= 18/11/19
##TIME= 17:25:08.00
##SPECTROMETER/DATA SYSTEM= PERKIN-ELMER Frontier FT-IR/NIR IR
##INSTRUMENT PARAMETERS=
  APODIZATION=stark
  DETECTOR=INGAAS
##RESOLUTION= 16.000000
##DELTAX= -2.000000
##XUNITS= 1/CM
##YUNITS= A
##XFACTOR= 1.00
##YFACTOR= 0.00000011920928955078
##FIRSTX= 10000.00
##LASTX= 4000.00
##NPOINTS= 3001
##FIRSTY= 0.194839
##MAXY= 0.558813
##MINY= 0.172066
##XYDATA= (X++(Y..Y))
 10000.000000   1634427   1637439   1641135   1646353   1652853  
  9990.000000   1659751   1666220   1671652   1675296   1676400  
  9980.000000   1674631   1670130   1663426   1655308   1646785  
  9970.000000   1638869   1632290   1627444   1624273   1622523  
  9960.000000   1621779   1621857   1622710   1624560   1627563  
  9950.000000   1631695   1636579   1641456   1645469   1647765  
  9940.000000   1647898   1645750   1641637   1636039   1629562  
  9930.000000   1622795   1616375   1611009   1607444   1606366  
  9920.000000   1608084   1612372   1618282   1624400   1629194  
  9910.000000   1631573   1631262   1628894   1625745   1623188  
  9900.000000   1622167   1622830   1624588   1626417   1627419  
  9890.000000   1627141   1625788   1623965   1622369   1621351  
  9880.000000   1620751   1619984   1618358   1615504   1611617  
  9870.000000   1607529   1604387   1603329   1605005   1609502  
  9860.000000   1616245   1624284   1632447   1639589   1644771  
  9850.000000   1647305   1646929   1643711   1638144   1630970  
  9840.000000   1623113   1615459   1608712   1603311   1599401  
  9830.000000   1596997   1596008   1596435   1598214   1601246  
  9820.000000   1605166   1609371   1613077   1615515   1616230  
  9810.000000   1615168   1612781   1609744   1606795   1604395  
  9800.000000   1602722   1601655   1600999   1600605   1600460  
  9790.000000   1600639   1601163   1601919   1602621   1602949  
  9780.000000   1602707   1601989   1601178   1600837   1601436  
  9770.000000   1603172   1605822   1608880   1611729   1613932  
  9760.000000   1615347   1616121   1616517   1616675   1616485  
  9750.000000   1615566   1613466   1609876   1604879   1598956  
  9740.000000   1592915   1587609   1583691   1581454   1580768  
  9730.000000   1581255   1582401   1583797   1585192   1586537  
  9720.000000   1587923   1589476   1591317   1593451   1595807  
  9710.000000   1598153   1600184   1601516   1601811   1600884  
  9700.000000   1598792   1595945   1592978   1590689   1589720  
  9690.000000   1590413   1592609   1595701   1598758   1600783  
  9680.000000   1600974   1598912   1594660   1588687   1581759  
  9670.000000   1574732   1568416   1563447   1560230   1558913  
  9660.000000   1559352   1561181   1563835   1566722   1569325  
  9650.000000   1571328   1572671   1573472   1573975   1574332  
  9640.000000   1574584   1574539   1573954   1572587   1570462  
  9630.000000   1567872   1565400   1563702   1563267   1564246  
  9620.000000   1566325   1568902   1571230   1572776   1573352  
  9610.000000   1573244   1573042   1573437   1574909   1577523  
  9600.000000   1580880   1584203   1586620   1587402   1586216  
  9590.000000   1583152   1578690   1573508   1568319   1563730  
  9580.000000   1560172   1557879   1556890   1557075   1558136  
  9570.000000   1559690   1561307   1562661   1563587   1564179  
  9560.000000   1564718   1565591   1567079   1569211   1571713  
  9550.000000   1574047   1575679   1576226   1575680   1574315  
  9540.000000   1572567   1570777   1569016   1567090   1564652  
  9530.000000   1561488   1557710   1553880   1550857   1549518  
  9520.000000   1550359   1553253   1557395   1561567   1564541  
  9510.000000   1565495   1564265   1561327   1557580   1554028  
  9500.000000   1551474   1550354   1550688   1552181   1554346  
  9490.000000   1556631   1558521   1559553   1559414   1557932  
  9480.000000   1555189   1551469   1547251   1543044   1539278  
  9470.000000   1536193   1533857   1532271   1531490   1531736  
  9460.000000   1533289   1536389   1540940   1546454   1552039  
  9450.000000   1556653   1559415   1559876   1558206   1555061  
  9440.000000   1551395   1548053   1545539   1543879   1542721  
  9430.000000   1541586   1540074   1538060   1535647   1533146  
  9420.000000   1530878   1529130   1528035   1527600   1527714  
  9410.000000   1528170   1528717   1529037   1528860   1527977  
  9400.000000   1526397   1524351   1522287   1520725   1520060  
  9390.000000   1520409   1521545   1523013   1524314   1525121  
  9380.000000   1525387   1525332   1525311   1525590   1526212  
  9370.000000   1526911   1527240   1526752   1525217   1522716  
  9360.000000   1519616   1516463   1513819   1512151   1511718  
  9350.000000   1512561   1514480   1517092   1519861   1522193  
  9340.000000   1523525   1523479   1521991   1519401   1516405  
  9330.000000   1513841   1512429   1512491   1513864   1515943  
  9320.000000   1517921   1519041   1518863   1517377   1514981  
  9310.000000   1512280   1509857   1508100   1507147   1506936  
  9300.000000   1507275   1507959   1508819   1509768   1510780  
  9290.000000   1511875   1513085   1514451   1515962   1517537  
  9280.000000   1518936   1519815   1519779   1518589   1516274  
  9270.000000   1513229   1510112   1507690   1506535   1506754  
  9260.000000   1507883   1508999   1509079   1507317   1503437  
  9250.000000   1497738   1491050   1484432   1478896   1475111  
  9240.000000   1473328   1473422   1475061   1477838   1481368  
  9230.000000   1485304   1489356   1493282   1496914   1500158  
  9220.000000   1503041   1505648   1508108   1510454   1512620  
  9210.000000   1514431   1515708   1516382   1516514   1516353  
  9200.000000   1516165   1516173   1516382   1516620   1516579  
  9190.000000   1515953   1514548   1512326   1509400   1505980  
  9180.000000   1502272   1498469   1494719   1491269   1488441  
  9170.000000   1486661   1486273   1487447   1490054   1493645  
  9160.000000   1497522   1500867   1502955   1503305   1501799  
  9150.000000   1498614   1494208   1489219   1484434   1480602  
  9140.000000   1478314   1477865   1479196   1481821   1484891  
  9130.000000   1487412   1488562   1487941   1485686   1482404  
  9120.000000   1479002   1476363   1475118   1475450   1477144  
  9110.000000   1479730   1482710   1485707   1488488   1490976  
  9100.000000   1493131   1494939   1496333   1497277   1497781  
  9090.000000   1497926   1497814   1497503   1496989   1496171  
  9080.000000   1494932   1493200   1491006   1488502   1485850  
  9070.000000   1483198   1480582   1477997   1475435   1473023  
  9060.000000   1471039   1469873   1469847   1471045   1473188  
  9050.000000   1475647   1477652   1478532   1478025   1476308  
  9040.000000   1473981   1471763   1470256   1469705   1469963  
  9030.000000   1470623   1471245   1471598   1471738   1471961  
  9020.000000   1472604   1473875   1475710   1477772   1479552  
  9010.000000   1480563   1480519   1479382   1477359   1474807  
  9000.000000   1472173   1469872   1468217   1467389   1467416  
  8990.000000   1468167   1469339   1470539   1471372   1471587  
  8980.000000   1471151   1470297   1469450   1469082   1469525  
  8970.000000   1470827   1472722   1474718   1476280   1477028  
  8960.000000   1476864   1476008   1474880   1473953   1473547  
  8950.000000   1473740   1474332   1474948   1475179   1474725  
  8940.000000   1473489   1471595   1469342   1467101   1465175  
  8930.000000   1463733   1462771   1462135   1461625   1461059  
  8920.000000   1460388   1459676   1459087   1458787   1458851  
  8910.000000   1459239   1459795   1460351   1460822   1461285  
  8900.000000   1461966   1463139   1464969   1467391   1470061  
  8890.000000   1472439   1473975   1474289   1473355   1471476  
  8880.000000   1469203   1467081   1465471   1464441   1463814  
  8870.000000   1463316   1462733   1462062   1461504   1461384  
  8860.000000   1461963   1463337   1465376   1467785   1470213  
  8850.000000   1472352   1474029   1475175   1475792   1475894  
  8840.000000   1475503   1474687   1473621   1472595   1471987  
  8830.000000   1472105   1473061   1474652   1476385   1477618  
  8820.000000   1477784   1476615   1474272   1471317   1468549  
  8810.000000   1466731   1466349   1467480   1469802   1472757  
  8800.000000   1475735   1478277   1480167   1481445   1482323  
  8790.000000   1483059   1483854   1484767   1485735   1486582  
  8780.000000   1487125   1487203   1486764   1485873   1484718  
  8770.000000   1483583   1482760   1482507   1482945   1484059  
  8760.000000   1485674   1487525   1489317   1490815   1491899  
  8750.000000   1492586   1492983   1493241   1493477   1493754  
  8740.000000   1494069   1494382   1494659   1494891   1495118  
  8730.000000   1495389   1495735   1496126   1496469   1496611  
  8720.000000   1496410   1495766   1494697   1493341   1491951  
  8710.000000   1490836   1490286   1490519   1491604   1493478  
  8700.000000   1495949   1498762   1501675   1504476   1507031  
  8690.000000   1509234   1511023   1512311   1513031   1513125  
  8680.000000   1512631   1511692   1510583   1509668   1509308  
  8670.000000   1509796   1511229   1513528   1516402   1519485  
  8660.000000   1522391   1524842   1526690   1527924   1528636  
  8650.000000   1528949   1528987   1528814   1528468   1527953  
  8640.000000   1527299   1526570   1525861   1525308   1525037  
  8630.000000   1525166   1525754   1526808   1528262   1529981  
  8620.000000   1531781   1533436   1534736   1535514   1535704  
  8610.000000   1535367   1534699   1534010   1533668   1534012  
  8600.000000   1535265   1537459   1540400   1543697   1546844  
  8590.000000   1549337   1550819   1551158   1550506   1549220  
  8580.000000   1547772   1546620   1546088   1546314   1547235  
  8570.000000   1548696   1550508   1552555   1554762   1557102  
  8560.000000   1559510   1561850   1563901   1565396   1566129  
  8550.000000   1565997   1565078   1563594   1561893   1560335  
  8540.000000   1559222   1558753   1559012   1559990   1561584  
  8530.000000   1563626   1565880   1568070   1569896   1571111  
  8520.000000   1571601   1571434   1570871   1570300   1570143  
  8510.000000   1570703   1572069   1574092   1576432   1578687  
  8500.000000   1580510   1581723   1582346   1582563   1582605  
  8490.000000   1582664   1582819   1583029   1583182   1583154  
  8480.000000   1582901   1582466   1581991   1581650   1581600  
  8470.000000   1581913   1582560   1583424   1584347   1585194  
  8460.000000   1585904   1586529   1587219   1588181   1589593  
  8450.000000   1591549   1594007   1596788   1599609   1602161  
  8440.000000   1604200   1605594   1606349   1606579   1606461  
  8430.000000   1606171   1605845   1605559   1605349   1605235  
  8420.000000   1605219   1605318   1605509   1605775   1606054  
  8410.000000   1606319   1606556   1606815   1607167   1607686  
  8400.000000   1608390   1609188   1609898   1610266   1610088  
  8390.000000   1609259   1607849   1606070   1604240   1602675  
  8380.000000   1601614   1601175   1601349   1602070   1603244  
  8370.000000   1604807   1606689   1608817   1611061   1613238  
  8360.000000   1615142   1616578   1617445   1617722   1617497  
  8350.000000   1616881   1615998   1614924   1613707   1612406  
  8340.000000   1611116   1610008   1609269   1609085   1609527  
  8330.000000   1610548   1611944   1613438   1614749   1615681  
  8320.000000   1616166   1616250   1616056   1615706   1615289  
  8310.000000   1614837   1614357   1613860   1613394   1613049  
  8300.000000   1612917   1613064   1613473   1614058   1614657  
  8290.000000   1615113   1615298   1615164   1614742   1614129  
  8280.000000   1613458   1612851   1612388   1612091   1611921  
  8270.000000   1611796   1611611   1611264   1610689   1609885  
  8260.000000   1608918   1607918   1607033   1606399   1606086  
  8250.000000   1606088   1606317   1606643   1606936   1607111  
  8240.000000   1607145   1607070   1606936   1606786   1606616  
  8230.000000   1606386   1606029   1605498   1604784   1603934  
  8220.000000   1603030   1602163   1601396   1600739   1600147  
  8210.000000   1599535   1598801   1597871   1596713   1595358  
  8200.000000   1593890   1592436   1591131   1590104   1589436  
  8190.000000   1589150   1589192   1589439   1589722   1589866  
  8180.000000   1589726   1589227   1588383   1587280   1586056  
  8170.000000   1584852   1583778   1582879   1582140   1581499  
  8160.000000   1580878   1580215   1579477   1578672   1577824  
  8150.000000   1576965   1576113   1575266   1574406   1573509  
  8140.000000   1572567   1571588   1570608   1569675   1568832  
  8130.000000   1568110   1567508   1567002   1566545   1566090  
  8120.000000   1565596   1565036   1564402   1563694   1562911  
  8110.000000   1562052   1561105   1560068   1558944   1557768  
  8100.000000   1556589   1555476   1554495   1553685   1553053  
  8090.000000   1552545   1552071   1551499   1550695   1549537  
  8080.000000   1547964   1545982   1543688   1541268   1538967  
  8070.000000   1537061   1535781   1535284   1535581   1536550  
  8060.000000   1537922   1539363   1540520   1541124   1541040  
  8050.000000   1540285   1539029   1537491   1535898   1534371  
  8040.000000   1532925   1531460   1529834   1527942   1525784  
  8030.000000   1523515   1521403   1519778   1518901   1518890  
  8020.000000   1519642   1520868   1522153   1523083   1523365  
  8010.000000   1522898   1521809   1520375   1518946   1517808  
  8000.000000   1517119   1516854   1516854   1516876   1516702  
  7990.000000   1516189   1515320   1514186   1512942   1511771  
  7980.000000   1510811   1510160   1509846   1509857   1510141  
  7970.000000   1510631   1511246   1511894   1512472   1512875  
  7960.000000   1513008   1512791   1512189   1511194   1509860  
  7950.000000   1508267   1506544   1504830   1503279   1502027  
  7940.000000   1501165   1500737   1500710   1501009   1501507  
  7930.000000   1502093   1502672   1503202   1503682   1504127  
  7920.000000   1504555   1504929   1505178   1505173   1504793  
  7910.000000   1503937   1502589   1500827   1498830   1496845  
  7900.000000   1495135   1493933   1493371   1493479   1494143  
  7890.000000   1495167   1496290   1497275   1497945   1498224  
  7880.000000   1498147   1497817   1497376   1496927   1496520  
  7870.000000   1496112   1495616   1494920   1493958   1492736  
  7860.000000   1491347   1489959   1488749   1487877   1487416  
  7850.000000   1487364   1487635   1488107   1488653   1489179  
  7840.000000   1489639   1490016   1490318   1490537   1490645  
  7830.000000   1490587   1490309   1489768   1488975   1487995  
  7820.000000   1486946   1485976   1485215   1484760   1484623  
  7810.000000   1484759   1485055   1485387   1485639   1485740  
  7800.000000   1485657   1485395   1484967   1484379   1483627  
  7790.000000   1482706   1481636   1480469   1479301   1478237  
  7780.000000   1477364   1476713   1476240   1475845   1475400  
  7770.000000   1474809   1474038   1473145   1472247   1471487  
  7760.000000   1470972   1470738   1470732   1470833   1470893  
  7750.000000   1470774   1470394   1469730   1468818   1467726  
  7740.000000   1466540   1465332   1464160   1463059   1462042  
  7730.000000   1461104   1460229   1459405   1458628   1457921  
  7720.000000   1457323   1456884   1456637   1456573   1456634  
  7710.000000   1456709   1456679   1456441   1455960   1455274  
  7700.000000   1454491   1453750   1453173   1452828   1452707  
  7690.000000   1452740   1452827   1452874   1452823   1452654  
  7680.000000   1452374   1451990   1451500   1450880   1450111  
  7670.000000   1449194   1448176   1447138   1446191   1445437  
  7660.000000   1444943   1444727   1444750   1444941   1445216  
  7650.000000   1445500   1445738   1445894   1445952   1445893  
  7640.000000   1445715   1445418   1445025   1444575   1444129  
  7630.000000   1443751   1443497   1443397   1443447   1443619  
  7620.000000   1443862   1444130   1444388   1444626   1444854  
  7610.000000   1445094   1445367   1445674   1445995   1446282  
  7600.000000   1446483   1446547   1446453   1446211   1445866  
  7590.000000   1445488   1445153   1444921   1444821   1444849  
  7580.000000   1444974   1445151   1445342   1445519   1445673  
  7570.000000   1445803   1445914   1446002   1446068   1446109  
  7560.000000   1446144   1446198   1446320   1446555   1446938  
  7550.000000   1447484   1448175   1448974   1449833   1450707  
  7540.000000   1451568   1452397   1453194   1453946   1454640  
  7530.000000   1455236   1455697   1455983   1456090   1456041  
  7520.000000   1455917   1455835   1455938   1456368   1457229  
  7510.000000   1458562   1460328   1462414   1464657   1466869  
  7500.000000   1468885   1470583   1471921   1472915   1473640  
  7490.000000   1474187   1474661   1475156   1475760   1476544  
  7480.000000   1477568   1478866   1480436   1482229   1484148  
  7470.000000   1486060   1487831   1489356   1490611   1491641  
  7460.000000   1492574   1493556   1494738   1496209   1497989  
  7450.000000   1500028   1502237   1504523   1506818   1509090  
  7440.000000   1511342   1513586   1515825   1518034   1520168  
  7430.000000   1522164   1523973   1525572   1526985   1528262  
  7420.000000   1529478   1530701   1531983   1533349   1534796  
  7410.000000   1536308   1537871   1539481   1541145   1542876  
  7400.000000   1544679   1546547   1548450   1550347   1552198  
  7390.000000   1553978   1555698   1557388   1559103   1560882  
  7380.000000   1562741   1564649   1566542   1568335   1569966  
  7370.000000   1571417   1572735   1574026   1575428   1577073  
  7360.000000   1579045   1581356   1583934   1586643   1589323  
  7350.000000   1591820   1594027   1595910   1597513   1598940  
  7340.000000   1600318   1601765   1603360   1605125   1607028  
  7330.000000   1609004   1610974   1612879   1614680   1616375  
  7320.000000   1617972   1619486   1620912   1622238   1623439  
  7310.000000   1624510   1625471   1626377   1627294   1628293  
  7300.000000   1629397   1630597   1631825   1633004   1634053  
  7290.000000   1634931   1635629   1636174   1636596   1636912  
  7280.000000   1637120   1637211   1637187   1637088   1636997  
  7270.000000   1637025   1637281   1637829   1638664   1639711  
  7260.000000   1640852   1641961   1642954   1643796   1644524  
  7250.000000   1645195   1645890   1646653   1647513   1648458  
  7240.000000   1649487   1650592   1651795   1653114   1654576  
  7230.000000   1656180   1657912   1659736   1661624   1663546  
  7220.000000   1665502   1667490   1669524   1671596   1673707  
  7210.000000   1675830   1677961   1680081   1682203   1684328  
  7200.000000   1686476   1688656   1690898   1693229   1695708  
  7190.000000   1698389   1701337   1704575   1708094   1711814  
  7180.000000   1715629   1719406   1723061   1726544   1729898  
  7170.000000   1733192   1736542   1740026   1743703   1747556  
  7160.000000   1751556   1755641   1759790   1763996   1768306  
  7150.000000   1772761   1777412   1782259   1787284   1792414  
  7140.000000   1797590   1802744   1807866   1812966   1818110  
  7130.000000   1823351   1828758   1834341   1840103   1845989  
  7120.000000   1851951   1857926   1863900   1869871   1875886  
  7110.000000   1881987   1888228   1894622   1901175   1907849  
  7100.000000   1914621   1921444   1928311   1935202   1942129  
  7090.000000   1949083   1956073   1963098   1970177   1977337  
  7080.000000   1984624   1992077   1999728   2007565   2015549  
  7070.000000   2023593   2031615   2039531   2047296   2054892  
  7060.000000   2062335   2069642   2076839   2083941   2090969  
  7050.000000   2097958   2104958   2112032   2119235   2126599  
  7040.000000   2134106   2141703   2149299   2156800   2164121  
  7030.000000   2171216   2178065   2184688   2191121   2197422  
  7020.000000   2203652   2209889   2216187   2222597   2229110  
  7010.000000   2235692   2242246   2248675   2254876   2260805  
  7000.000000   2266449   2271859   2277083   2282177   2287143  
  6990.000000   2291979   2296654   2301178   2305574   2309920  
  6980.000000   2314272   2318681   2323119   2327528   2331796  
  6970.000000   2335846   2339623   2343151   2346479   2349688  
  6960.000000   2352820   2355900   2358895   2361778   2364512  
  6950.000000   2367102   2369554   2371902   2374150   2376305  
  6940.000000   2378349   2380295   2382158   2383993   2385839  
  6930.000000   2387734   2389654   2391561   2393383   2395081  
  6920.000000   2396646   2398130   2399596   2401107   2402667  
  6910.000000   2404230   2405702   2406994   2408053   2408893  
  6900.000000   2409582   2410223   2410900   2411670   2412533  
  6890.000000   2413471   2414458   2415490   2416572   2417712  
  6880.000000   2418888   2420046   2421099   2421964   2422588  
  6870.000000   2422976   2423191   2423335   2423507   2423782  
  6860.000000   2424188   2424728   2425383   2426138   2426982  
  6850.000000   2427903   2428872   2429838   2430728   2431478  
  6840.000000   2432046   2432439   2432703   2432913   2433141  
  6830.000000   2433438   2433819   2434283   2434811   2435395  
  6820.000000   2436021   2436677   2437326   2437914   2438372  
  6810.000000   2438644   2438706   2438587   2438351   2438085  
  6800.000000   2437858   2437705   2437615   2437557   2437486  
  6790.000000   2437392   2437277   2437171   2437091   2437042  
  6780.000000   2436989   2436882   2436664   2436296   2435766  
  6770.000000   2435091   2434304   2433447   2432557   2431675  
  6760.000000   2430834   2430073   2429417   2428875   2428424  
  6750.000000   2428013   2427566   2427015   2426307   2425432  
  6740.000000   2424409   2423286   2422116   2420948   2419813  
  6730.000000   2418742   2417749   2416854   2416056   2415343  
  6720.000000   2414665   2413958   2413146   2412182   2411047  
  6710.000000   2409772   2408412   2407034   2405678   2404361  
  6700.000000   2403068   2401779   2400477   2399166   2397857  
  6690.000000   2396557   2395244   2393882   2392417   2390820  
  6680.000000   2389099   2387320   2385574   2383956   2382520  
  6670.000000   2381257   2380095   2378931   2377668   2376256  
  6660.000000   2374697   2373044   2371366   2369718   2368124  
  6650.000000   2366572   2365029   2363460   2361837   2360151  
  6640.000000   2358399   2356588   2354723   2352826   2350924  
  6630.000000   2349068   2347297   2345642   2344090   2342589  
  6620.000000   2341052   2339392   2337540   2335483   2333257  
  6610.000000   2330936   2328602   2326316   2324106   2321968  
  6600.000000   2319881   2317825   2315794   2313795   2311839  
  6590.000000   2309928   2308054   2306201   2304354   2302509  
  6580.000000   2300676   2298871   2297106   2295380   2293676  
  6570.000000   2291968   2290236   2288472   2286687   2284900  
  6560.000000   2283136   2281407   2279721   2278077   2276477  
  6550.000000   2274929   2273446   2272035   2270694   2269399  
  6540.000000   2268118   2266817   2265484   2264126   2262774  
  6530.000000   2261461   2260216   2259041   2257925   2256844  
  6520.000000   2255782   2254737   2253722   2252752   2251828  
  6510.000000   2250934   2250036   2249096   2248093   2247035  
  6500.000000   2245954   2244895   2243892   2242954   2242056  
  6490.000000   2241156   2240213   2239210   2238163   2237110  
  6480.000000   2236095   2235141   2234244   2233368   2232463  
  6470.000000   2231489   2230433   2229315   2228179   2227074  
  6460.000000   2226038   2225086   2224208   2223381   2222573  
  6450.000000   2221764   2220946   2220124   2219310   2218521  
  6440.000000   2217766   2217045   2216347   2215650   2214923  
  6430.000000   2214138   2213279   2212343   2211352   2210337  
  6420.000000   2209337   2208378   2207470   2206605   2205763  
  6410.000000   2204926   2204086   2203250   2202434   2201655  
  6400.000000   2200916   2200212   2199526   2198845   2198163  
  6390.000000   2197489   2196834   2196205   2195593   2194969  
  6380.000000   2194297   2193541   2192687   2191747   2190759  
  6370.000000   2189770   2188818   2187923   2187077   2186260  
  6360.000000   2185446   2184624   2183795   2182976   2182184  
  6350.000000   2181430   2180711   2180016   2179327   2178628  
  6340.000000   2177906   2177151   2176350   2175491   2174562  
  6330.000000   2173559   2172489   2171378   2170253   2169150  
  6320.000000   2168083   2167062   2166072   2165099   2164123  
  6310.000000   2163141   2162141   2161124   2160068   2158946  
  6300.000000   2157717   2156350   2154821   2153141   2151338  
  6290.000000   2149461   2147553   2145655   2143776   2141924  
  6280.000000   2140082   2138243   2136388   2134510   2132590  
  6270.000000   2130617   2128567   2126434   2124207   2121899  
  6260.000000   2119521   2117100   2114649   2112188   2109718  
  6250.000000   2107248   2104779   2102322   2099880   2097457  
  6240.000000   2095038   2092606   2090135   2087604   2085001  
  6230.000000   2082334   2079618   2076878   2074136   2071414  
  6220.000000   2068727   2066093   2063530   2061053   2058670  
  6210.000000   2056371   2054123   2051877   2049577   2047176  
  6200.000000   2044656   2042027   2039337   2036642   2034004  
  6190.000000   2031464   2029042   2026733   2024515   2022362  
  6180.000000   2020247   2018150   2016058   2013959   2011850  
  6170.000000   2009727   2007594   2005452   2003308   2001166  
  6160.000000   1999034   1996916   1994826   1992774   1990777  
  6150.000000   1988846   1986985   1985186   1983432   1981699  
  6140.000000   1979969   1978232   1976493   1974761   1973045  
  6130.000000   1971345   1969653   1967953   1966240   1964517  
  6120.000000   1962812   1961156   1959587   1958122   1956762  
  6110.000000   1955480   1954246   1953028   1951819   1950624  
  6100.000000   1949469   1948378   1947376   1946464   1945642  
  6090.000000   1944894   1944215   1943592   1943023   1942493  
  6080.000000   1941991   1941494   1940991   1940474   1939964  
  6070.000000   1939487   1939084   1938781   1938597   1938519  
  6060.000000   1938532   1938605   1938723   1938872   1939060  
  6050.000000   1939290   1939574   1939907   1940298   1940742  
  6040.000000   1941257   1941853   1942555   1943367   1944290  
  6030.000000   1945299   1946372   1947479   1948612   1949770  
  6020.000000   1950974   1952237   1953574   1954975   1956423  
  6010.000000   1957885   1959334   1960747   1962119   1963446  
  6000.000000   1964737   1965999   1967242   1968476   1969714  
  5990.000000   1970968   1972247   1973553   1974879   1976208  
  5980.000000   1977529   1978835   1980136   1981452   1982812  
  5970.000000   1984241   1985753   1987343   1989002   1990712  
  5960.000000   1992463   1994248   1996066   1997907   1999756  
  5950.000000   2001583   2003365   2005077   2006723   2008317  
  5940.000000   2009898   2011501   2013157   2014873   2016646  
  5930.000000   2018459   2020302   2022171   2024074   2026022  
  5920.000000   2028025   2030080   2032171   2034275   2036372  
  5910.000000   2038444   2040489   2042505   2044499   2046470  
  5900.000000   2048421   2050351   2052267   2054183   2056115  
  5890.000000   2058082   2060094   2062154   2064252   2066374  
  5880.000000   2068504   2070631   2072744   2074831   2076876  
  5870.000000   2078856   2080753   2082549   2084246   2085856  
  5860.000000   2087413   2088948   2090504   2092110   2093796  
  5850.000000   2095584   2097499   2099559   2101777   2104152  
  5840.000000   2106666   2109286   2111971   2114689   2117417  
  5830.000000   2120154   2122905   2125681   2128473   2131260  
  5820.000000   2133997   2136639   2139139   2141471   2143617  
  5810.000000   2145582   2147361   2148966   2150387   2151638  
  5800.000000   2152718   2153668   2154504   2155279   2155998  
  5790.000000   2156683   2157299   2157828   2158212   2158417  
  5780.000000   2158389   2158102   2157515   2156618   2155402  
  5770.000000   2153895   2152146   2150237   2148258   2146308  
  5760.000000   2144459   2142767   2141254   2139928   2138784  
  5750.000000   2137816   2137015   2136367   2135850   2135429  
  5740.000000   2135069   2134733   2134408   2134087   2133798  
  5730.000000   2133557   2133397   2133320   2133334   2133423  
  5720.000000   2133585   2133807   2134099   2134461   2134902  
  5710.000000   2135417   2136003   2136644   2137335   2138063  
  5700.000000   2138824   2139608   2140401   2141186   2141947  
  5690.000000   2142677   2143379   2144072   2144773   2145496  
  5680.000000   2146233   2146960   2147632   2148203   2148632  
  5670.000000   2148899   2148995   2148933   2148726   2148393  
  5660.000000   2147950   2147424   2146842   2146249   2145681  
  5650.000000   2145172   2144729   2144344   2143983   2143612  
  5640.000000   2143197   2142721   2142181   2141591   2140967  
  5630.000000   2140327   2139690   2139079   2138518   2138032  
  5620.000000   2137636   2137330   2137090   2136872   2136626  
  5610.000000   2136311   2135906   2135426   2134901   2134376  
  5600.000000   2133878   2133419   2132983   2132542   2132063  
  5590.000000   2131528   2130925   2130259   2129531   2128742  
  5580.000000   2127885   2126958   2125960   2124905   2123810  
  5570.000000   2122694   2121567   2120430   2119273   2118090  
  5560.000000   2116878   2115654   2114438   2113257   2112122  
  5550.000000   2111034   2109977   2108934   2107888   2106836  
  5540.000000   2105785   2104743   2103714   2102695   2101676  
  5530.000000   2100648   2099612   2098581   2097577   2096621  
  5520.000000   2095722   2094875   2094061   2093258   2092445  
  5510.000000   2091614   2090764   2089893   2088993   2088051  
  5500.000000   2087045   2085969   2084826   2083645   2082459  
  5490.000000   2081303   2080182   2079081   2077958   2076770  
  5480.000000   2075478   2074078   2072580   2071020   2069427  
  5470.000000   2067826   2066218   2064598   2062952   2061277  
  5460.000000   2059570   2057836   2056068   2054261   2052401  
  5450.000000   2050484   2048519   2046531   2044554   2042620  
  5440.000000   2040742   2038911   2037105   2035297   2033475  
  5430.000000   2031643   2029823   2028032   2026283   2024565  
  5420.000000   2022869   2021183   2019528   2017935   2016470  
  5410.000000   2015172   2014071   2013142   2012348   2011627  
  5400.000000   2010951   2010303   2009720   2009233   2008896  
  5390.000000   2008725   2008733   2008893   2009205   2009647  
  5380.000000   2010239   2010978   2011881   2012922   2014095  
  5370.000000   2015354   2016699   2018104   2019605   2021198  
  5360.000000   2022935   2024804   2026855   2029076   2031540  
  5350.000000   2034263   2037341   2040794   2044692   2049003  
  5340.000000   2053749   2058862   2064375   2070243   2076537  
  5330.000000   2083231   2090397   2097986   2106045   2114512  
  5320.000000   2123456   2132850   2142815   2153346   2164573  
  5310.000000   2176462   2189103   2202423   2216494   2231249  
  5300.000000   2246785   2263067   2280213   2298198   2317125  
  5290.000000   2336939   2357683   2379239   2401580   2424549  
  5280.000000   2448110   2472162   2496753   2521884   2547663  
  5270.000000   2574101   2601202   2628830   2656801   2684878  
  5260.000000   2712855   2740613   2768111   2795402   2822510  
  5250.000000   2849459   2876126   2902387   2927991   2952820  
  5240.000000   2976716   2999743   3021908   3043393   3064220  
  5230.000000   3084513   3104176   3123212   3141435   3158827  
  5220.000000   3175244   3190760   3205335   3219131   3232152  
  5210.000000   3244557   3256301   3267459   3277903   3287651  
  5200.000000   3296568   3304713   3312020   3318612   3324461  
  5190.000000   3329680   3334211   3338122   3341331   3343902  
  5180.000000   3345781   3347064   3347727   3347867   3347445  
  5170.000000   3346533   3345084   3343173   3340782   3338010  
  5160.000000   3334860   3331414   3327646   3323594   3319201  
  5150.000000   3314495   3309442   3304099   3298473   3292633  
  5140.000000   3286588   3280389   3274025   3267529   3260888  
  5130.000000   3254135   3247267   3240318   3233288   3226209  
  5120.000000   3219084   3211946   3204803   3197684   3190591  
  5110.000000   3183530   3176484   3169445   3162395   3155336  
  5100.000000   3148274   3141230   3134219   3127255   3120334  
  5090.000000   3113445   3106567   3099683   3092781   3085864  
  5080.000000   3078939   3072022   3065123   3058255   3051415  
  5070.000000   3044605   3037814   3031033   3024245   3017437  
  5060.000000   3010590   3003695   2996747   2989753   2982727  
  5050.000000   2975689   2968661   2961659   2954693   2947762  
  5040.000000   2940866   2933997   2927152   2920327   2913523  
  5030.000000   2906740   2899989   2893271   2886611   2880021  
  5020.000000   2873533   2867162   2860935   2854849   2848917  
  5010.000000   2843117   2837458   2831926   2826550   2821335  
  5000.000000   2816329   2811541   2807012   2802724   2798698  
  4990.000000   2794892   2791321   2787954   2784830   2781942  
  4980.000000   2779353   2777068   2775152   2773598   2772453  
  4970.000000   2771690   2771342   2771366   2771785   2772549  
  4960.000000   2773677   2775120   2776905   2778990   2781414  
  4950.000000   2784144   2787220   2790607   2794335   2798358  
  4940.000000   2802700   2807316   2812235   2817423   2822913  
  4930.000000   2828676   2834738   2841063   2847667   2854509  
  4920.000000   2861600   2868899   2876423   2884140   2892074  
  4910.000000   2900205   2908559   2917119   2925899   2934868  
  4900.000000   2944016   2953296   2962682   2972133   2981628  
  4890.000000   2991149   3000684   3010221   3019739   3029213  
  4880.000000   3038608   3047898   3057056   3066079   3074958  
  4870.000000   3083704   3092309   3100776   3109080   3117219  
  4860.000000   3125171   3132948   3140542   3147984   3155268  
  4850.000000   3162417   3169415   3176273   3182970   3189526  
  4840.000000   3195928   3202203   3208343   3214369   3220259  
  4830.000000   3226025   3231636   3237099   3242383   3247497  
  4820.000000   3252410   3257128   3261625   3265911   3269969  
  4810.000000   3273824   3277471   3280941   3284232   3287375  
  4800.000000   3290367   3293243   3296009   3298709   3301352  
  4790.000000   3303971   3306557   3309114   3311603   3314012  
  4780.000000   3316299   3318463   3320480   3322364   3324100  
  4770.000000   3325700   3327141   3328427   3329537   3330483  
  4760.000000   3331258   3331891   3332378   3332745   3332973  
  4750.000000   3333071   3333000   3332762   3332322   3331688  
  4740.000000   3330842   3329805   3328569   3327164   3325583  
  4730.000000   3323851   3321959   3319924   3317731   3315390  
  4720.000000   3312887   3310236   3307438   3304527   3301526  
  4710.000000   3298483   3295432   3292418   3289460   3286578  
  4700.000000   3283765   3281018   3278312   3275635   3272964  
  4690.000000   3270289   3267597   3264887   3262157   3259406  
  4680.000000   3256634   3253837   3251010   3248140   3245223  
  4670.000000   3242247   3239223   3236159   3233088   3230041  
  4660.000000   3227063   3224184   3221441   3218846   3216417  
  4650.000000   3214151   3212055   3210121   3208356   3206747  
  4640.000000   3205295   3203977   3202782   3201681   3200663  
  4630.000000   3199702   3198793   3197920   3197085   3196278  
  4620.000000   3195505   3194760   3194051   3193376   3192742  
  4610.000000   3192139   3191564   3190997   3190424   3189828  
  4600.000000   3189205   3188558   3187904   3187269   3186681  
  4590.000000   3186165   3185738   3185405   3185158   3184981  
  4580.000000   3184845   3184723   3184583   3184405   3184170  
  4570.000000   3183874   3183519   3183112   3182660   3182166  
  4560.000000   3181623   3181025   3180361   3179626   3178823  
  4550.000000   3177961   3177056   3176123   3175175   3174216  
  4540.000000   3173256   3172294   3171349   3170429   3169566  
  4530.000000   3168766   3168058   3167435   3166922   3166508  
  4520.000000   3166237   3166113   3166211   3166549   3167208  
  4510.000000   3168191   3169568   3171319   3173510   3176119  
  4500.000000   3179227   3182822   3186995   3191734   3197123  
  4490.000000   3203134   3209839   3217200   3225273   3234006  
  4480.000000   3243436   3253489   3264176   3275411   3287190  
  4470.000000   3299424   3312103   3325140   3338514   3352139  
  4460.000000   3365985   3379972   3394072   3408220   3422393  
  4450.000000   3436542   3450641   3464655   3478557   3492335  
  4440.000000   3505971   3519480   3532847   3546100   3559211  
  4430.000000   3572202   3585020   3597678   3610096   3622282  
  4420.000000   3634132   3645642   3656686   3667245   3677174  
  4410.000000   3686447   3694916   3702560   3709245   3714976  
  4400.000000   3719659   3723341   3725991   3727712   3728535  
  4390.000000   3728602   3727988   3726846   3725259   3723365  
  4380.000000   3721244   3719017   3716773   3714630   3712696  
  4370.000000   3711090   3709925   3709292   3709276   3709910  
  4360.000000   3711232   3713216   3715849   3719066   3722816  
  4350.000000   3727012   3731589   3736472   3741621   3747004  
  4340.000000   3752620   3758454   3764480   3770604   3776671  
  4330.000000   3782446   3787655   3792024   3795343   3797529  
  4320.000000   3798636   3798884   3798572   3798068   3797668  
  4310.000000   3797619   3798002   3798834   3799994   3801374  
  4300.000000   3802815   3804229   3805522   3806664   3807614  
  4290.000000   3808362   3808887   3809184   3809251   3809108  
  4280.000000   3808779   3808319   3807767   3807194   3806637  
  4270.000000   3806160   3805776   3805504   3805293   3805078  
  4260.000000   3804727   3804107   3803067   3801502   3799355  
  4250.000000   3796658   3793504   3790057   3786494   3782999  
  4240.000000   3779707   3776714   3774042   3771679   3769559  
  4230.000000   3767611   3765748   3763895   3761986   3759968  
  4220.000000   3757815   3755513   3753084   3750559   3748003  
  4210.000000   3745474   3743046   3740765   3738675   3736782  
  4200.000000   3735087   3733559   3732177   3730897   3729706  
  4190.000000   3728566   3727486   3726444   3725477   3724579  
  4180.000000   3723809   3723170   3722738   3722523   3722615  
  4170.000000   3723039   3723901   3725233   3727143   3729640  
  4160.000000   3732793   3736557   3740955   3745901   3751405  
  4150.000000   3757389   3763888   3770850   3778333   3786291  
  4140.000000   3794780   3803747   3813238   3823200   3833679  
  4130.000000   3844625   3856079   3867988   3880382   3893203  
  4120.000000   3906477   3920155   3934271   3948787   3963737  
  4110.000000   3979081   3994835   4010946   4027408   4044157  
  4100.000000   4061175   4078402   4095823   4113395   4131114  
  4090.000000   4148957   4166923   4185002   4203190   4221486  
  4080.000000   4239886   4258398   4277011   4295728   4314508  
  4070.000000   4333327   4352101   4370790   4389299   4407614  
  4060.000000   4425665   4443471   4460965   4478165   4494973  
  4050.000000   4511400   4527336   4542814   4557743   4572176  
  4040.000000   4586004   4599253   4611767   4623546   4634428  
  4030.000000   4644444   4653466   4661551   4668586   4674604  
  4020.000000   4679454   4683184   4685742   4687245   4687665  
  4010.000000   4687216   4686018   4684158   4681435   4677968  
  4000.000000   4674123  
##END= 
