##TITLE= Sample 040 By ssteindl date Dienstag, November 20 2018
##JCAMP-DX= 4.24
##DATA TYPE= INFRARED SPECTRUM
##ORIGIN= Exported PE Spectrum Data File
##OWNER= Sandra Steindl
##DATE= 18/11/20
##TIME= 15:32:13.00
##SPECTROMETER/DATA SYSTEM= PERKIN-ELMER Frontier FT-IR/NIR IR
##INSTRUMENT PARAMETERS=
  APODIZATION=stark
  DETECTOR=INGAAS
##RESOLUTION= 16.000000
##DELTAX= -2.000000
##XUNITS= 1/CM
##YUNITS= A
##XFACTOR= 1.00
##YFACTOR= 0.00000011920928955078
##FIRSTX= 10000.00
##LASTX= 4000.00
##NPOINTS= 3001
##FIRSTY= 0.192022
##MAXY= 0.575394
##MINY= 0.173835
##XYDATA= (X++(Y..Y))
 10000.000000   1610793   1602940   1596948   1595207   1597802  
  9990.000000   1602904   1608613   1613536   1616609   1617279  
  9980.000000   1616180   1614542   1613538   1613534   1614259  
  9970.000000   1614752   1613949   1611120   1606382   1600665  
  9960.000000   1595442   1592285   1592262   1595787   1602378  
  9950.000000   1611036   1620408   1629253   1636602   1641883  
  9940.000000   1644890   1645674   1644485   1641651   1637565  
  9930.000000   1632572   1626999   1621081   1615028   1609068  
  9920.000000   1603452   1598540   1594622   1591971   1590588  
  9910.000000   1590308   1590739   1591442   1592070   1592426  
  9900.000000   1592583   1592669   1592860   1593117   1593255  
  9890.000000   1592926   1591856   1589993   1587664   1585525  
  9880.000000   1584411   1585036   1587744   1592327   1598024  
  9870.000000   1603711   1608160   1610419   1610030   1607202  
  9860.000000   1602720   1597793   1593705   1591510   1591698  
  9850.000000   1594082   1597786   1601513   1603886   1603853  
  9840.000000   1601027   1595753   1589055   1582207   1576403  
  9830.000000   1572295   1569931   1568757   1568009   1567049  
  9820.000000   1565724   1564466   1564109   1565614   1569584  
  9810.000000   1576075   1584448   1593596   1602282   1609481  
  9800.000000   1614690   1617894   1619471   1619880   1619465  
  9790.000000   1618349   1616496   1613875   1610601   1606995  
  9780.000000   1603484   1600474   1598139   1596412   1594962  
  9770.000000   1593419   1591499   1589188   1586730   1584525  
  9760.000000   1582979   1582322   1582594   1583637   1585260  
  9750.000000   1587287   1589638   1592259   1595060   1597889  
  9740.000000   1600510   1602767   1604590   1606155   1607728  
  9730.000000   1609634   1611993   1614652   1617137   1618756  
  9720.000000   1618839   1616895   1612788   1606685   1598987  
  9710.000000   1590179   1580740   1571183   1562073   1554139  
  9700.000000   1548170   1544918   1544785   1547678   1552852  
  9690.000000   1559092   1564985   1569312   1571408   1571225  
  9680.000000   1569378   1566729   1564243   1562525   1561848  
  9670.000000   1562033   1562692   1563369   1563712   1563614  
  9660.000000   1563166   1562707   1562617   1563314   1565021  
  9650.000000   1567745   1571165   1574671   1577494   1578862  
  9640.000000   1578289   1575689   1571482   1566437   1561459  
  9630.000000   1557301   1554353   1552615   1551756   1551372  
  9620.000000   1551115   1550890   1550771   1550982   1551689  
  9610.000000   1552935   1554567   1556278   1557693   1558417  
  9600.000000   1558169   1556751   1554187   1550650   1546548  
  9590.000000   1542404   1538792   1536168   1534717   1534321  
  9580.000000   1534559   1534950   1535112   1535016   1534949  
  9570.000000   1535438   1536945   1539615   1543130   1546721  
  9560.000000   1549454   1550502   1549488   1546547   1542298  
  9550.000000   1537576   1533168   1529609   1527097   1525591  
  9540.000000   1524915   1524889   1525345   1526098   1526894  
  9530.000000   1527411   1527336   1526484   1524920   1522944  
  9520.000000   1521054   1519709   1519249   1519710   1520933  
  9510.000000   1522594   1524400   1526156   1527804   1529360  
  9500.000000   1530836   1532206   1533421   1534502   1535575  
  9490.000000   1536889   1538690   1541100   1543994   1547000  
  9480.000000   1549602   1551326   1551907   1551380   1550014  
  9470.000000   1548194   1546200   1544157   1542001   1539676  
  9460.000000   1537246   1535004   1533368   1532692   1533055  
  9450.000000   1534153   1535365   1535964   1535383   1533429  
  9440.000000   1530359   1526801   1523549   1521310   1520508  
  9430.000000   1521219   1523212   1526083   1529337   1532476  
  9420.000000   1534990   1536431   1536477   1535042   1532374  
  9410.000000   1528976   1525539   1522649   1520659   1519506  
  9400.000000   1518771   1517848   1516213   1513721   1510692  
  9390.000000   1507871   1506096   1506011   1507779   1511051  
  9380.000000   1515089   1518999   1522018   1523669   1523882  
  9370.000000   1522904   1521198   1519256   1517499   1516203  
  9360.000000   1515504   1515395   1515782   1516473   1517263  
  9350.000000   1517943   1518345   1518395   1518066   1517429  
  9340.000000   1516543   1515530   1514512   1513731   1513497  
  9330.000000   1514178   1516022   1519014   1522776   1526564  
  9320.000000   1529438   1530440   1528920   1524721   1518329  
  9310.000000   1510736   1503182   1496819   1492453   1490441  
  9300.000000   1490684   1492761   1496028   1499793   1503378  
  9290.000000   1506234   1507962   1508369   1507527   1505764  
  9280.000000   1503675   1501908   1501034   1501295   1502566  
  9270.000000   1504397   1506176   1507369   1507657   1507089  
  9260.000000   1505987   1504816   1503937   1503488   1503354  
  9250.000000   1503227   1502757   1501663   1499861   1497458  
  9240.000000   1494716   1491970   1489525   1487641   1486469  
  9230.000000   1486082   1486427   1487363   1488647   1489985  
  9220.000000   1491074   1491667   1491650   1491028   1489962  
  9210.000000   1488626   1487222   1485830   1484473   1483064  
  9200.000000   1481508   1479779   1477968   1476320   1475152  
  9190.000000   1474834   1475663   1477792   1481127   1485313  
  9180.000000   1489788   1493870   1496921   1498459   1498321  
  9170.000000   1496691   1494097   1491228   1488769   1487229  
  9160.000000   1486830   1487478   1488787   1490266   1491454  
  9150.000000   1492087   1492084   1491580   1490797   1489990  
  9140.000000   1489314   1488807   1488405   1487982   1487441  
  9130.000000   1486727   1485869   1484944   1484034   1483197  
  9120.000000   1482420   1481655   1480838   1479944   1479042  
  9110.000000   1478270   1477842   1477911   1478525   1479541  
  9100.000000   1480662   1481499   1481700   1481115   1479889  
  9090.000000   1478444   1477351   1477162   1478212   1480480  
  9080.000000   1483552   1486748   1489350   1490808   1490902  
  9070.000000   1489773   1487867   1485748   1483906   1482629  
  9060.000000   1481948   1481731   1481750   1481843   1481927  
  9050.000000   1482081   1482415   1483050   1483965   1485026  
  9040.000000   1485990   1486552   1486429   1485400   1483409  
  9030.000000   1480521   1476933   1472923   1468836   1465041  
  9020.000000   1461867   1459585   1458361   1458236   1459098  
  9010.000000   1460700   1462687   1464662   1466265   1467217  
  9000.000000   1467427   1466944   1466027   1464985   1464173  
  8990.000000   1463812   1463987   1464595   1465417   1466232  
  8980.000000   1466910   1467510   1468258   1469482   1471458  
  8970.000000   1474253   1477622   1481044   1483863   1485491  
  8960.000000   1485623   1484348   1482171   1479836   1478080  
  8950.000000   1477411   1477938   1479405   1481286   1483018  
  8940.000000   1484179   1484628   1484486   1484039   1483571  
  8930.000000   1483249   1483081   1482935   1482661   1482171  
  8920.000000   1481534   1480944   1480649   1480869   1481700  
  8910.000000   1483115   1484945   1486976   1488989   1490822  
  8900.000000   1492365   1493553   1494356   1494751   1494743  
  8890.000000   1494363   1493704   1492881   1492025   1491226  
  8880.000000   1490525   1489903   1489300   1488673   1488013  
  8870.000000   1487389   1486915   1486731   1486949   1487619  
  8860.000000   1488690   1490026   1491440   1492729   1493736  
  8850.000000   1494366   1494630   1494610   1494463   1494337  
  8840.000000   1494350   1494532   1494833   1495147   1495367  
  8830.000000   1495452   1495466   1495579   1495992   1496872  
  8820.000000   1498234   1499931   1501664   1503088   1503940  
  8810.000000   1504122   1503770   1503156   1502604   1502325  
  8800.000000   1502347   1502507   1502553   1502281   1501663  
  8790.000000   1500887   1500319   1500357   1501290   1503157  
  8780.000000   1505724   1508543   1511113   1513020   1514086  
  8770.000000   1514377   1514197   1513948   1514044   1514769  
  8760.000000   1516238   1518373   1520943   1523634   1526119  
  8750.000000   1528149   1529596   1530508   1531071   1531574  
  8740.000000   1532302   1533452   1535050   1536933   1538786  
  8730.000000   1540236   1540969   1540849   1539959   1538596  
  8720.000000   1537169   1536092   1535656   1535960   1536896  
  8710.000000   1538185   1539497   1540525   1541110   1541242  
  8700.000000   1541085   1540882   1540906   1541359   1542354  
  8690.000000   1543878   1545837   1548101   1550566   1553191  
  8680.000000   1555988   1558992   1562209   1565578   1568960  
  8670.000000   1572142   1574910   1577071   1578533   1579302  
  8660.000000   1579496   1579314   1578991   1578770   1578842  
  8650.000000   1579348   1580324   1581736   1583447   1585269  
  8640.000000   1586983   1588412   1589453   1590099   1590421  
  8630.000000   1590530   1590536   1590514   1590514   1590566  
  8620.000000   1590736   1591126   1591863   1593053   1594704  
  8610.000000   1596701   1598811   1600759   1602331   1603445  
  8600.000000   1604205   1604832   1605587   1606638   1607998  
  8590.000000   1609526   1610991   1612209   1613119   1613834  
  8580.000000   1614570   1615567   1616950   1618686   1620565  
  8570.000000   1622295   1623587   1624264   1624296   1623793  
  8560.000000   1622952   1622006   1621168   1620618   1620479  
  8550.000000   1620815   1621606   1622729   1623964   1625035  
  8540.000000   1625704   1625830   1625450   1624750   1624045  
  8530.000000   1623625   1623689   1624253   1625209   1626377  
  8520.000000   1627628   1628950   1630459   1632342   1634744  
  8510.000000   1637681   1641007   1644447   1647696   1650504  
  8500.000000   1652764   1654489   1655796   1656810   1657628  
  8490.000000   1658297   1658830   1659255   1659637   1660086  
  8480.000000   1660714   1661599   1662736   1664049   1665404  
  8470.000000   1666658   1667700   1668476   1669000   1669332  
  8460.000000   1669571   1669838   1670271   1671006   1672144  
  8450.000000   1673733   1675742   1678066   1680531   1682954  
  8440.000000   1685185   1687142   1688800   1690175   1691283  
  8430.000000   1692131   1692698   1692994   1693070   1693053  
  8420.000000   1693098   1693349   1693847   1694517   1695158  
  8410.000000   1695514   1695353   1694573   1693232   1691524  
  8400.000000   1689700   1687995   1686568   1685497   1684791  
  8390.000000   1684447   1684484   1684928   1685783   1686967  
  8380.000000   1688315   1689587   1690550   1691037   1691026  
  8370.000000   1690642   1690132   1689768   1689763   1690216  
  8360.000000   1691105   1692329   1693741   1695196   1696567  
  8350.000000   1697751   1698646   1699151   1699178   1698681  
  8340.000000   1697694   1696338   1694815   1693356   1692184  
  8330.000000   1691460   1691249   1691527   1692177   1693052  
  8320.000000   1693976   1694811   1695447   1695848   1696045  
  8310.000000   1696132   1696229   1696441   1696818   1697330  
  8300.000000   1697870   1698273   1698372   1698054   1697290  
  8290.000000   1696157   1694787   1693349   1691983   1690804  
  8280.000000   1689869   1689206   1688802   1688625   1688604  
  8270.000000   1688639   1688589   1688298   1687631   1686523  
  8260.000000   1685012   1683233   1681400   1679733   1678416  
  8250.000000   1677539   1677086   1676950   1676975   1677018  
  8240.000000   1676978   1676831   1676604   1676368   1676199  
  8230.000000   1676148   1676224   1676381   1676529   1676558  
  8220.000000   1676360   1675865   1675045   1673940   1672627  
  8210.000000   1671228   1669862   1668634   1667588   1666717  
  8200.000000   1665940   1665140   1664169   1662898   1661245  
  8190.000000   1659206   1656874   1654418   1652051   1649969  
  8180.000000   1648296   1647056   1646168   1645488   1644870  
  8170.000000   1644218   1643527   1642865   1642325   1641952  
  8160.000000   1641706   1641446   1640993   1640193   1638999  
  8150.000000   1637502   1635915   1634502   1633465   1632884  
  8140.000000   1632664   1632598   1632430   1631971   1631144  
  8130.000000   1630004   1628699   1627380   1626155   1625020  
  8120.000000   1623894   1622630   1621113   1619278   1617173  
  8110.000000   1614940   1612790   1610969   1609685   1609096  
  8100.000000   1609248   1610089   1611459   1613132   1614849  
  8090.000000   1616372   1617521   1618185   1618321   1617926  
  8080.000000   1617029   1615666   1613911   1611861   1609668  
  8070.000000   1607513   1605570   1603973   1602755   1601868  
  8060.000000   1601173   1600536   1599849   1599102   1598355  
  8050.000000   1597704   1597220   1596882   1596591   1596178  
  8040.000000   1595507   1594500   1593210   1591776   1590391  
  8030.000000   1589220   1588363   1587838   1587604   1587612  
  8020.000000   1587825   1588237   1588830   1589556   1590303  
  8010.000000   1590915   1591234   1591150   1590647   1589792  
  8000.000000   1588715   1587533   1586315   1585057   1583709  
  7990.000000   1582225   1580607   1578934   1577338   1575969  
  7980.000000   1574924   1574233   1573832   1573620   1573491  
  7970.000000   1573380   1573275   1573193   1573160   1573159  
  7960.000000   1573143   1573026   1572741   1572242   1571545  
  7950.000000   1570699   1569787   1568883   1568051   1567333  
  7940.000000   1566760   1566359   1566149   1566143   1566328  
  7930.000000   1566668   1567103   1567567   1568003   1568374  
  7920.000000   1568669   1568884   1569017   1569047   1568956  
  7910.000000   1568723   1568362   1567916   1567464   1567095  
  7900.000000   1566876   1566846   1566982   1567242   1567559  
  7890.000000   1567887   1568205   1568521   1568848   1569183  
  7880.000000   1569487   1569678   1569649   1569295   1568557  
  7870.000000   1567443   1566052   1564551   1563152   1562058  
  7860.000000   1561412   1561259   1561529   1562060   1562637  
  7850.000000   1563061   1563209   1563068   1562736   1562390  
  7840.000000   1562219   1562362   1562862   1563654   1564586  
  7830.000000   1565475   1566158   1566542   1566616   1566453  
  7820.000000   1566161   1565860   1565630   1565498   1565429  
  7810.000000   1565336   1565110   1564646   1563877   1562798  
  7800.000000   1561472   1560029   1558628   1557434   1556566  
  7790.000000   1556085   1555976   1556169   1556563   1557053  
  7780.000000   1557550   1557982   1558289   1558410   1558287  
  7770.000000   1557874   1557167   1556217   1555142   1554101  
  7760.000000   1553259   1552738   1552570   1552696   1552969  
  7750.000000   1553221   1553290   1553084   1552583   1551837  
  7740.000000   1550931   1549956   1548985   1548060   1547204  
  7730.000000   1546421   1545715   1545075   1544482   1543899  
  7720.000000   1543284   1542593   1541808   1540932   1540012  
  7710.000000   1539108   1538294   1537634   1537177   1536960  
  7700.000000   1537010   1537350   1537988   1538913   1540075  
  7690.000000   1541374   1542670   1543799   1544619   1545029  
  7680.000000   1545007   1544600   1543909   1543054   1542151  
  7670.000000   1541285   1540513   1539871   1539379   1539048  
  7660.000000   1538864   1538796   1538772   1538705   1538506  
  7650.000000   1538125   1537566   1536898   1536239   1535711  
  7640.000000   1535409   1535359   1535518   1535789   1536063  
  7630.000000   1536256   1536338   1536334   1536301   1536296  
  7620.000000   1536351   1536457   1536585   1536693   1536765  
  7610.000000   1536801   1536832   1536889   1536995   1537157  
  7600.000000   1537368   1537627   1537948   1538361   1538902  
  7590.000000   1539581   1540370   1541181   1541899   1542396  
  7580.000000   1542595   1542478   1542114   1541621   1541142  
  7570.000000   1540806   1540699   1540865   1541313   1542034  
  7560.000000   1543012   1544219   1545605   1547077   1548511  
  7550.000000   1549759   1550699   1551255   1551450   1551374  
  7540.000000   1551181   1551031   1551062   1551352   1551924  
  7530.000000   1552749   1553771   1554928   1556162   1557420  
  7520.000000   1558653   1559815   1560874   1561819   1562678  
  7510.000000   1563502   1564367   1565334   1566448   1567708  
  7500.000000   1569086   1570529   1571989   1573429   1574835  
  7490.000000   1576202   1577537   1578832   1580079   1581262  
  7480.000000   1582378   1583430   1584442   1585448   1586492  
  7470.000000   1587617   1588866   1590267   1591836   1593559  
  7460.000000   1595392   1597252   1599046   1600683   1602126  
  7450.000000   1603402   1604619   1605927   1607487   1609405  
  7440.000000   1611696   1614269   1616967   1619609   1622057  
  7430.000000   1624243   1626186   1627954   1629626   1631248  
  7420.000000   1632814   1634281   1635601   1636765   1637825  
  7410.000000   1638891   1640094   1641550   1643309   1645348  
  7400.000000   1647563   1649817   1651972   1653933   1655665  
  7390.000000   1657199   1658615   1660017   1661502   1663138  
  7380.000000   1664954   1666931   1669012   1671121   1673187  
  7370.000000   1675161   1677023   1678786   1680474   1682116  
  7360.000000   1683722   1685286   1686794   1688236   1689627  
  7350.000000   1691009   1692439   1693975   1695635   1697400  
  7340.000000   1699202   1700962   1702612   1704127   1705532  
  7330.000000   1706889   1708265   1709709   1711226   1712785  
  7320.000000   1714329   1715807   1717194   1718500   1719761  
  7310.000000   1721022   1722310   1723631   1724964   1726277  
  7300.000000   1727540   1728738   1729872   1730955   1732002  
  7290.000000   1733027   1734035   1735031   1736018   1737005  
  7280.000000   1737997   1738996   1739991   1740972   1741925  
  7270.000000   1742851   1743768   1744706   1745706   1746786  
  7260.000000   1747943   1749126   1750272   1751293   1752143  
  7250.000000   1752805   1753340   1753848   1754469   1755333  
  7240.000000   1756544   1758133   1760082   1762311   1764731  
  7230.000000   1767247   1769802   1772350   1774887   1777399  
  7220.000000   1779890   1782340   1784751   1787116   1789474  
  7210.000000   1791862   1794355   1797003   1799847   1802877  
  7200.000000   1806056   1809315   1812595   1815848   1819074  
  7190.000000   1822284   1825520   1828799   1832136   1835498  
  7180.000000   1838856   1842164   1845414   1848611   1851804  
  7170.000000   1855046   1858413   1861956   1865727   1869742  
  7160.000000   1874005   1878474   1883101   1887796   1892484  
  7150.000000   1897081   1901562   1905932   1910276   1914691  
  7140.000000   1919294   1924137   1929226   1934479   1939799  
  7130.000000   1945079   1950285   1955430   1960609   1965922  
  7120.000000   1971470   1977282   1983338   1989554   1995847  
  7110.000000   2002141   2008418   2014687   2020992   2027357  
  7100.000000   2033805   2040317   2046878   2053457   2060045  
  7090.000000   2066625   2073192   2079720   2086183   2092551  
  7080.000000   2098818   2105009   2111184   2117422   2123790  
  7070.000000   2130318   2136984   2143717   2150417   2156991  
  7060.000000   2163379   2169563   2175573   2181458   2187278  
  7050.000000   2193080   2198891   2204731   2210606   2216535  
  7040.000000   2222538   2228648   2234891   2241288   2247825  
  7030.000000   2254459   2261104   2267652   2273976   2279970  
  7020.000000   2285569   2290776   2295650   2300307   2304871  
  7010.000000   2309462   2314144   2318945   2323838   2328797  
  7000.000000   2333779   2338775   2343763   2348735   2353643  
  6990.000000   2358428   2363001   2367300   2371290   2375001  
  6980.000000   2378503   2381909   2385314   2388798   2392379  
  6970.000000   2396054   2399772   2403493   2407156   2410724  
  6960.000000   2414138   2417364   2420353   2423097   2425605  
  6950.000000   2427934   2430155   2432349   2434560   2436802  
  6940.000000   2439031   2441196   2443234   2445125   2446872  
  6930.000000   2448527   2450137   2451752   2453379   2455013  
  6920.000000   2456616   2458165   2459638   2461040   2462378  
  6910.000000   2463666   2464902   2466079   2467179   2468193  
  6900.000000   2469122   2469989   2470824   2471674   2472574  
  6890.000000   2473556   2474630   2475793   2477021   2478281  
  6880.000000   2479527   2480720   2481828   2482838   2483756  
  6870.000000   2484603   2485402   2486171   2486915   2487630  
  6860.000000   2488306   2488942   2489549   2490152   2490774  
  6850.000000   2491429   2492111   2492797   2493449   2494041  
  6840.000000   2494556   2495005   2495411   2495802   2496198  
  6830.000000   2496610   2497032   2497462   2497896   2498339  
  6820.000000   2498790   2499244   2499673   2500043   2500314  
  6810.000000   2500462   2500484   2500411   2500280   2500142  
  6800.000000   2500023   2499939   2499882   2499845   2499810  
  6790.000000   2499772   2499715   2499620   2499446   2499151  
  6780.000000   2498697   2498073   2497300   2496438   2495560  
  6770.000000   2494736   2494007   2493382   2492840   2492352  
  6760.000000   2491894   2491459   2491046   2490660   2490289  
  6750.000000   2489910   2489491   2489014   2488478   2487906  
  6740.000000   2487331   2486777   2486246   2485713   2485140  
  6730.000000   2484496   2483779   2483019   2482268   2481579  
  6720.000000   2480974   2480443   2479941   2479421   2478847  
  6710.000000   2478225   2477587   2476981   2476435   2475947  
  6700.000000   2475469   2474933   2474265   2473422   2472391  
  6690.000000   2471201   2469896   2468529   2467138   2465755  
  6680.000000   2464393   2463071   2461793   2460565   2459377  
  6670.000000   2458212   2457038   2455833   2454579   2453282  
  6660.000000   2451958   2450630   2449315   2448017   2446729  
  6650.000000   2445437   2444132   2442817   2441500   2440192  
  6640.000000   2438892   2437593   2436276   2434928   2433544  
  6630.000000   2432136   2430725   2429333   2427966   2426615  
  6620.000000   2425255   2423859   2422408   2420901   2419350  
  6610.000000   2417776   2416197   2414628   2413072   2411538  
  6600.000000   2410037   2408585   2407190   2405847   2404520  
  6590.000000   2403159   2401701   2400106   2398368   2396523  
  6580.000000   2394644   2392813   2391093   2389513   2388059  
  6570.000000   2386691   2385356   2384016   2382652   2381271  
  6560.000000   2379888   2378520   2377175   2375851   2374542  
  6550.000000   2373238   2371940   2370645   2369357   2368074  
  6540.000000   2366796   2365522   2364259   2363011   2361789  
  6530.000000   2360590   2359408   2358225   2357030   2355815  
  6520.000000   2354591   2353381   2352214   2351109   2350071  
  6510.000000   2349087   2348134   2347192   2346256   2345337  
  6500.000000   2344457   2343633   2342868   2342142   2341417  
  6490.000000   2340650   2339810   2338881   2337873   2336802  
  6480.000000   2335689   2334550   2333393   2332224   2331057  
  6470.000000   2329912   2328815   2327786   2326828   2325926  
  6460.000000   2325048   2324156   2323221   2322234   2321209  
  6450.000000   2320176   2319174   2318237   2317388   2316635  
  6440.000000   2315972   2315378   2314824   2314268   2313674  
  6430.000000   2313006   2312248   2311400   2310486   2309538  
  6420.000000   2308592   2307669   2306781   2305927   2305110  
  6410.000000   2304346   2303666   2303105   2302690   2302415  
  6400.000000   2302243   2302104   2301927   2301654   2301274  
  6390.000000   2300813   2300330   2299884   2299514   2299222  
  6380.000000   2298975   2298725   2298423   2298047   2297594  
  6370.000000   2297087   2296549   2296003   2295455   2294912  
  6360.000000   2294372   2293842   2293328   2292831   2292337  
  6350.000000   2291818   2291238   2290568   2289795   2288938  
  6340.000000   2288031   2287129   2286274   2285498   2284805  
  6330.000000   2284184   2283610   2283056   2282495   2281902  
  6320.000000   2281252   2280524   2279702   2278787   2277789  
  6310.000000   2276739   2275668   2274605   2273558   2272523  
  6300.000000   2271476   2270400   2269279   2268115   2266914  
  6290.000000   2265686   2264426   2263133   2261789   2260396  
  6280.000000   2258965   2257526   2256112   2254749   2253435  
  6270.000000   2252142   2250816   2249403   2247856   2246162  
  6260.000000   2244336   2242421   2240468   2238529   2236638  
  6250.000000   2234816   2233067   2231383   2229744   2228126  
  6240.000000   2226500   2224843   2223141   2221405   2219662  
  6230.000000   2217952   2216311   2214754   2213267   2211808  
  6220.000000   2210319   2208746   2207059   2205258   2203371  
  6210.000000   2201441   2199513   2197618   2195771   2193979  
  6200.000000   2192242   2190563   2188944   2187384   2185871  
  6190.000000   2184385   2182903   2181407   2179893   2178369  
  6180.000000   2176853   2175360   2173897   2172456   2171023  
  6170.000000   2169584   2168139   2166698   2165278   2163893  
  6160.000000   2162542   2161209   2159870   2158500   2157093  
  6150.000000   2155657   2154219   2152804   2151430   2150099  
  6140.000000   2148797   2147509   2146224   2144946   2143688  
  6130.000000   2142462   2141273   2140103   2138929   2137718  
  6120.000000   2136457   2135150   2133826   2132525   2131288  
  6110.000000   2130142   2129099   2128151   2127287   2126491  
  6100.000000   2125754   2125064   2124411   2123775   2123135  
  6090.000000   2122472   2121781   2121071   2120372   2119717  
  6080.000000   2119145   2118673   2118309   2118033   2117823  
  6070.000000   2117643   2117473   2117288   2117088   2116874  
  6060.000000   2116670   2116499   2116404   2116415   2116568  
  6050.000000   2116866   2117308   2117859   2118487   2119154  
  6040.000000   2119846   2120557   2121315   2122141   2123069  
  6030.000000   2124112   2125281   2126563   2127951   2129424  
  6020.000000   2130973   2132575   2134213   2135856   2137486  
  6010.000000   2139076   2140620   2142114   2143578   2145022  
  6000.000000   2146474   2147941   2149443   2150990   2152607  
  5990.000000   2154310   2156128   2158068   2160140   2162324  
  5980.000000   2164604   2166948   2169344   2171782   2174274  
  5970.000000   2176829   2179466   2182183   2184981   2187842  
  5960.000000   2190754   2193692   2196646   2199593   2202524  
  5950.000000   2205420   2208280   2211103   2213912   2216733  
  5940.000000   2219606   2222559   2225613   2228769   2232014  
  5930.000000   2235327   2238687   2242080   2245492   2248912  
  5920.000000   2252318   2255677   2258950   2262092   2265074  
  5910.000000   2267879   2270516   2273008   2275393   2277714  
  5900.000000   2280012   2282335   2284714   2287188   2289767  
  5890.000000   2292456   2295226   2298039   2300840   2303587  
  5880.000000   2306244   2308802   2311264   2313638   2315930  
  5870.000000   2318134   2320233   2322214   2324074   2325832  
  5860.000000   2327528   2329214   2330940   2332747   2334655  
  5850.000000   2336672   2338791   2341004   2343299   2345659  
  5840.000000   2348065   2350489   2352902   2355280   2357608  
  5830.000000   2359887   2362132   2364360   2366583   2368801  
  5820.000000   2370999   2373158   2375256   2377283   2379236  
  5810.000000   2381123   2382945   2384713   2386420   2388078  
  5800.000000   2389681   2391259   2392815   2394379   2395939  
  5790.000000   2397491   2398980   2400367   2401569   2402533  
  5780.000000   2403177   2403451   2403292   2402678   2401600  
  5770.000000   2400105   2398267   2396214   2394070   2391964  
  5760.000000   2389979   2388165   2386518   2385020   2383636  
  5750.000000   2382351   2381153   2380049   2379043   2378132  
  5740.000000   2377305   2376544   2375842   2375190   2374603  
  5730.000000   2374079   2373628   2373234   2372883   2372550  
  5720.000000   2372233   2371932   2371672   2371476   2371364  
  5710.000000   2371335   2371375   2371452   2371540   2371617  
  5700.000000   2371676   2371719   2371753   2371781   2371801  
  5690.000000   2371815   2371823   2371839   2371870   2371929  
  5680.000000   2372001   2372067   2372079   2371997   2371777  
  5670.000000   2371402   2370860   2370160   2369304   2368298  
  5660.000000   2367134   2365816   2364348   2362764   2361100  
  5650.000000   2359411   2357739   2356119   2354564   2353078  
  5640.000000   2351656   2350295   2348995   2347755   2346571  
  5630.000000   2345435   2344338   2343270   2342236   2341243  
  5620.000000   2340310   2339441   2338634   2337864   2337098  
  5610.000000   2336303   2335463   2334580   2333678   2332785  
  5600.000000   2331925   2331106   2330314   2329528   2328726  
  5590.000000   2327900   2327055   2326205   2325363   2324533  
  5580.000000   2323703   2322859   2321983   2321069   2320123  
  5570.000000   2319155   2318175   2317185   2316175   2315128  
  5560.000000   2314030   2312879   2311683   2310463   2309243  
  5550.000000   2308044   2306878   2305751   2304661   2303609  
  5540.000000   2302590   2301597   2300616   2299629   2298614  
  5530.000000   2297558   2296459   2295335   2294214   2293127  
  5520.000000   2292095   2291123   2290197   2289289   2288368  
  5510.000000   2287410   2286397   2285328   2284202   2283027  
  5500.000000   2281810   2280567   2279315   2278078   2276872  
  5490.000000   2275703   2274558   2273410   2272221   2270964  
  5480.000000   2269623   2268210   2266750   2265279   2263822  
  5470.000000   2262392   2260981   2259578   2258165   2256734  
  5460.000000   2255281   2253804   2252294   2250733   2249100  
  5450.000000   2247382   2245576   2243703   2241803   2239915  
  5440.000000   2238078   2236310   2234616   2232987   2231420  
  5430.000000   2229907   2228451   2227047   2225691   2224366  
  5420.000000   2223070   2221798   2220581   2219451   2218461  
  5410.000000   2217633   2216981   2216473   2216082   2215760  
  5400.000000   2215502   2215307   2215211   2215233   2215402  
  5390.000000   2215699   2216118   2216620   2217211   2217889  
  5380.000000   2218703   2219673   2220840   2222188   2223712  
  5370.000000   2225357   2227114   2228944   2230881   2232917  
  5360.000000   2235111   2237460   2240026   2242808   2245884  
  5350.000000   2249272   2253068   2257281   2261980   2267120  
  5340.000000   2272720   2278697   2285073   2291786   2298891  
  5330.000000   2306351   2314233   2322493   2331197   2340299  
  5320.000000   2349892   2359962   2370635   2381905   2393889  
  5310.000000   2406543   2419939   2433992   2448755   2464156  
  5300.000000   2480280   2497101   2514744   2533210   2552624  
  5290.000000   2572952   2594242   2616367   2639265   2662743  
  5280.000000   2686729   2711100   2735906   2761167   2787026  
  5270.000000   2813523   2840693   2868410   2896498   2924716  
  5260.000000   2952871   2980860   3008682   3036427   3064166  
  5250.000000   3091945   3119651   3147133   3174110   3200407  
  5240.000000   3225832   3250414   3274157   3297248   3319740  
  5230.000000   3341775   3363291   3384290   3404592   3424158  
  5220.000000   3442839   3460698   3477710   3494049   3509746  
  5210.000000   3524961   3539638   3553804   3567272   3579989  
  5200.000000   3591776   3602672   3612630   3621812   3630243  
  5190.000000   3638082   3645294   3651952   3657957   3663356  
  5180.000000   3668076   3672209   3675723   3678716   3681138  
  5170.000000   3683043   3684352   3685114   3685281   3684942  
  5160.000000   3684084   3682799   3681057   3678916   3676325  
  5150.000000   3673339   3669939   3666207   3662150   3657845  
  5140.000000   3653272   3648465   3643381   3638048   3632448  
  5130.000000   3626639   3620635   3614495   3608219   3601834  
  5120.000000   3595318   3588688   3581938   3575106   3568210  
  5110.000000   3561292   3554360   3547433   3540503   3533582  
  5100.000000   3526672   3519795   3512962   3506186   3499456  
  5090.000000   3492757   3486063   3479359   3472639   3465917  
  5080.000000   3459212   3452547   3445928   3439353   3432797  
  5070.000000   3426242   3419662   3413052   3406403   3399724  
  5060.000000   3393008   3386257   3379456   3372601   3365682  
  5050.000000   3358707   3351682   3344627   3337551   3330467  
  5040.000000   3323375   3316276   3309167   3302046   3294913  
  5030.000000   3287772   3280627   3273486   3266360   3259263  
  5020.000000   3252219   3245250   3238382   3231631   3225013  
  5010.000000   3218520   3212155   3205892   3199731   3193651  
  5000.000000   3187663   3181758   3175968   3170295   3164783  
  4990.000000   3159444   3154327   3149441   3144829   3140485  
  4980.000000   3136434   3132653   3129158   3125920   3122964  
  4970.000000   3120266   3117861   3115723   3113878   3112284  
  4960.000000   3110962   3109867   3109033   3108438   3108139  
  4950.000000   3108132   3108478   3109157   3110210   3111593  
  4940.000000   3113330   3115375   3117759   3120447   3123477  
  4930.000000   3126818   3130499   3134482   3138792   3143394  
  4920.000000   3148321   3153547   3159108   3164974   3171166  
  4910.000000   3177638   3184393   3191382   3198602   3206014  
  4900.000000   3213618   3221384   3229307   3237360   3245527  
  4890.000000   3253779   3262088   3270420   3278731   3286980  
  4880.000000   3295112   3303090   3310863   3318411   3325694  
  4870.000000   3332706   3339406   3345790   3351815   3357485  
  4860.000000   3362772   3367705   3372279   3376546   3380510  
  4850.000000   3384220   3387669   3390892   3393875   3396651  
  4840.000000   3399215   3401610   3403846   3405971   3407996  
  4830.000000   3409965   3411879   3413763   3415607   3417416  
  4820.000000   3419171   3420871   3422503   3424078   3425600  
  4810.000000   3427095   3428574   3430053   3431530   3432997  
  4800.000000   3434434   3435827   3437165   3438453   3439700  
  4790.000000   3440931   3442161   3443409   3444678   3445971  
  4780.000000   3447279   3448599   3449919   3451232   3452518  
  4770.000000   3453763   3454937   3456022   3456995   3457854  
  4760.000000   3458596   3459239   3459794   3460278   3460694  
  4750.000000   3461049   3461329   3461537   3461658   3461697  
  4740.000000   3461642   3461500   3461260   3460929   3460501  
  4730.000000   3459985   3459383   3458711   3457975   3457188  
  4720.000000   3456348   3455460   3454520   3453531   3452499  
  4710.000000   3451439   3450376   3449335   3448344   3447426  
  4700.000000   3446600   3445875   3445259   3444751   3444355  
  4690.000000   3444066   3443888   3443816   3443849   3443975  
  4680.000000   3444189   3444465   3444786   3445118   3445440  
  4670.000000   3445719   3445947   3446110   3446226   3446306  
  4660.000000   3446393   3446520   3446742   3447096   3447632  
  4650.000000   3448377   3449355   3450566   3452000   3453625  
  4640.000000   3455408   3457305   3459283   3461310   3463367  
  4630.000000   3465436   3467506   3469560   3471579   3473543  
  4620.000000   3475430   3477226   3478914   3480487   3481931  
  4610.000000   3483239   3484395   3485400   3486249   3486967  
  4600.000000   3487575   3488119   3488624   3489124   3489613  
  4590.000000   3490085   3490497   3490824   3491021   3491079  
  4580.000000   3490981   3490747   3490382   3489912   3489339  
  4570.000000   3488680   3487929   3487094   3486169   3485169  
  4560.000000   3484094   3482962   3481778   3480558   3479304  
  4550.000000   3478024   3476713   3475368   3473981   3472543  
  4540.000000   3471049   3469503   3467918   3466313   3464723  
  4530.000000   3463172   3461699   3460315   3459048   3457894  
  4520.000000   3456876   3455984   3455250   3454663   3454271  
  4510.000000   3454065   3454106   3454395   3455008   3455949  
  4500.000000   3457305   3459074   3461336   3464074   3467360  
  4490.000000   3471167   3475568   3480541   3486159   3492393  
  4480.000000   3499300   3506826   3515000   3523749   3533082  
  4470.000000   3542922   3553275   3564061   3575278   3586839  
  4460.000000   3598728   3610859   3623211   3635711   3648344  
  4450.000000   3661054   3673835   3686648   3699494   3712358  
  4440.000000   3725247   3738168   3751120   3764112   3777119  
  4430.000000   3790133   3803099   3816000   3828763   3841372  
  4420.000000   3853748   3865876   3877661   3889076   3900008  
  4410.000000   3910417   3920184   3929279   3937605   3945165  
  4400.000000   3951907   3957883   3963090   3967626   3971536  
  4390.000000   3974949   3977945   3980670   3983209   3985687  
  4380.000000   3988160   3990703   3993327   3996063   3998908  
  4370.000000   4001889   4005022   4008348   4011901   4015715  
  4360.000000   4019810   4024188   4028829   4033709   4038768  
  4350.000000   4043972   4049237   4054538   4059801   4065035  
  4340.000000   4070200   4075323   4080339   4085184   4089641  
  4330.000000   4093442   4096194   4097530   4097120   4094837  
  4320.000000   4090750   4085206   4078708   4071888   4065307  
  4310.000000   4059440   4054524   4050643   4047682   4045474  
  4300.000000   4043803   4042507   4041465   4040611   4039922  
  4290.000000   4039378   4038992   4038749   4038677   4038773  
  4280.000000   4039069   4039567   4040273   4041175   4042247  
  4270.000000   4043473   4044814   4046237   4047656   4048953  
  4260.000000   4049937   4050386   4050063   4048780   4046440  
  4250.000000   4043084   4038875   4034095   4029061   4024104  
  4240.000000   4019470   4015338   4011757   4008714   4006110  
  4230.000000   4003839   4001774   3999811   3997867   3995880  
  4220.000000   3993836   3991725   3989598   3987488   3985486  
  4210.000000   3983642   3982036   3980698   3979669   3978941  
  4200.000000   3978518   3978360   3978448   3978722   3979150  
  4190.000000   3979663   3980236   3980813   3981405   3981989  
  4180.000000   3982618   3983300   3984116   3985089   3986305  
  4170.000000   3987792   3989640   3991875   3994582   3997767  
  4160.000000   4001487   4005712   4010463   4015677   4021361  
  4150.000000   4027442   4033931   4040764   4047963   4055471  
  4140.000000   4063328   4071495   4080028   4088902   4098181  
  4130.000000   4107835   4117909   4128360   4139214   4150430  
  4120.000000   4162042   4174034   4186461   4199323   4212669  
  4110.000000   4226482   4240774   4255486   4270586   4285982  
  4100.000000   4301621   4317414   4333321   4349291   4365321  
  4090.000000   4381407   4397566   4413812   4430150   4446581  
  4080.000000   4463082   4479642   4496217   4512796   4529318  
  4070.000000   4545763   4562049   4578147   4593965   4609490  
  4060.000000   4624643   4639435   4653790   4667723   4681146  
  4050.000000   4694086   4706473   4718373   4729749   4740694  
  4040.000000   4751149   4761165   4770619   4779510   4787691  
  4030.000000   4795176   4801854   4807778   4812874   4817196  
  4020.000000   4820655   4823320   4825179   4826333   4826753  
  4010.000000   4826585   4825902   4824723   4822827   4820276  
  4000.000000   4817393  
##END= 
