##TITLE= Sample 018 By ssteindl date Montag, November 19 2018
##JCAMP-DX= 4.24
##DATA TYPE= INFRARED SPECTRUM
##ORIGIN= Exported PE Spectrum Data File
##OWNER= Sandra Steindl
##DATE= 18/11/19
##TIME= 16:29:32.00
##SPECTROMETER/DATA SYSTEM= PERKIN-ELMER Frontier FT-IR/NIR IR
##INSTRUMENT PARAMETERS=
  APODIZATION=stark
  DETECTOR=INGAAS
##RESOLUTION= 16.000000
##DELTAX= -2.000000
##XUNITS= 1/CM
##YUNITS= A
##XFACTOR= 1.00
##YFACTOR= 0.00000011920928955078
##FIRSTX= 10000.00
##LASTX= 4000.00
##NPOINTS= 3001
##FIRSTY= 0.147036
##MAXY= 0.553617
##MINY= 0.124611
##XYDATA= (X++(Y..Y))
 10000.000000   1233428   1229073   1224472   1219640   1215322  
  9990.000000   1212397   1211255   1211677   1213354   1215938  
  9980.000000   1219034   1222146   1224790   1226529   1226973  
  9970.000000   1226006   1223920   1221469   1219714   1219670  
  9960.000000   1221974   1226475   1232219   1237566   1240667  
  9950.000000   1240039   1235015   1226053   1214586   1202736  
  9940.000000   1192736   1186445   1184864   1187936   1194531  
  9930.000000   1202729   1210280   1215139   1215996   1212563  
  9920.000000   1205699   1197069   1188752   1182534   1179526  
  9910.000000   1179823   1182666   1186754   1190752   1193795  
  9900.000000   1195676   1196904   1198311   1200701   1204431  
  9890.000000   1209221   1214287   1218490   1220836   1220634  
  9880.000000   1217819   1212863   1206684   1200426   1195152  
  9870.000000   1191738   1190627   1191910   1195253   1200066  
  9860.000000   1205535   1210817   1215115   1217843   1218682  
  9850.000000   1217634   1215006   1211320   1207238   1203389  
  9840.000000   1200274   1198153   1197032   1196726   1196927  
  9830.000000   1197349   1197726   1197881   1197669   1196994  
  9820.000000   1195813   1194135   1192091   1189870   1187758  
  9810.000000   1186024   1184892   1184450   1184631   1185263  
  9800.000000   1186145   1187187   1188429   1190037   1192143  
  9790.000000   1194726   1197512   1200008   1201685   1202137  
  9780.000000   1201302   1199432   1197034   1194626   1192558  
  9770.000000   1190906   1189507   1188140   1186684   1185282  
  9760.000000   1184243   1183964   1184608   1186070   1187890  
  9750.000000   1189525   1190524   1190754   1190403   1189828  
  9740.000000   1189340   1188950   1188377   1187090   1184660  
  9730.000000   1180911   1176134   1170950   1166100   1162171  
  9720.000000   1159390   1157701   1156873   1156816   1157622  
  9710.000000   1159613   1163040   1167886   1173655   1179413  
  9700.000000   1184088   1186743   1187024   1185102   1181687  
  9690.000000   1177540   1173260   1169027   1164730   1160233  
  9680.000000   1155665   1151620   1149011   1148801   1151513  
  9670.000000   1156999   1164295   1171964   1178438   1182582  
  9660.000000   1183962   1182948   1180516   1177869   1176066  
  9650.000000   1175693   1176764   1178771   1180881   1182187  
  9640.000000   1181904   1179571   1175111   1168904   1161692  
  9630.000000   1154464   1148200   1143631   1141028   1140149  
  9620.000000   1140297   1140625   1140358   1139174   1137219  
  9610.000000   1135137   1133753   1133765   1135480   1138577  
  9600.000000   1142271   1145359   1146727   1145476   1141351  
  9590.000000   1134653   1126312   1117590   1109859   1104310  
  9580.000000   1101715   1102338   1105911   1111772   1119027  
  9570.000000   1126755   1134157   1140660   1145924   1149805  
  9560.000000   1152312   1153529   1153680   1153074   1152203  
  9550.000000   1151589   1151722   1152864   1154917   1157446  
  9540.000000   1159716   1161007   1160771   1158925   1155809  
  9530.000000   1152164   1148833   1146546   1145653   1146077  
  9520.000000   1147346   1148816   1149869   1150127   1149491  
  9510.000000   1148124   1146319   1144381   1142538   1140893  
  9500.000000   1139454   1138139   1136843   1135446   1133866  
  9490.000000   1132080   1130145   1128212   1126510   1125270  
  9480.000000   1124684   1124784   1125448   1126341   1127047  
  9470.000000   1127151   1126423   1124918   1123005   1121293  
  9460.000000   1120425   1120925   1122975   1126415   1130717  
  9450.000000   1135194   1139124   1141968   1143440   1143533  
  9440.000000   1142425   1140363   1137528   1134013   1129840  
  9430.000000   1125054   1119807   1114384   1109184   1104624  
  9420.000000   1101019   1098479   1096833   1095686   1094536  
  9410.000000   1092969   1090835   1088306   1085857   1084087  
  9400.000000   1083540   1084484   1086858   1090237   1094025  
  9390.000000   1097576   1100434   1102372   1103420   1103758  
  9380.000000   1103600   1103117   1102402   1101527   1100605  
  9370.000000   1099813   1099363   1099385   1099829   1100426  
  9360.000000   1100720   1100220   1098557   1095665   1091840  
  9350.000000   1087699   1083984   1081351   1080161   1080430  
  9340.000000   1081864   1084001   1086355   1088528   1090260  
  9330.000000   1091408   1091914   1091757   1090983   1089701  
  9320.000000   1088151   1086630   1085478   1084907   1084963  
  9310.000000   1085470   1086110   1086572   1086632   1086293  
  9300.000000   1085701   1085169   1084969   1085322   1086254  
  9290.000000   1087653   1089306   1090964   1092404   1093373  
  9280.000000   1093605   1092765   1090572   1086876   1081817  
  9270.000000   1075831   1069633   1064063   1059911   1057704  
  9260.000000   1057552   1059183   1062002   1065338   1068544  
  9250.000000   1071190   1073079   1074272   1075011   1075570  
  9240.000000   1076197   1076970   1077851   1078598   1078884  
  9230.000000   1078328   1076684   1073954   1070436   1066708  
  9220.000000   1063396   1061090   1060078   1060339   1061502  
  9210.000000   1063035   1064441   1065401   1065845   1065829  
  9200.000000   1065443   1064649   1063304   1061201   1058280  
  9190.000000   1054722   1051058   1048034   1046397   1046610  
  9180.000000   1048655   1052054   1056004   1059663   1062399  
  9170.000000   1063963   1064518   1064451   1064167   1063899  
  9160.000000   1063690   1063441   1063056   1062528   1061998  
  9150.000000   1061704   1061862   1062555   1063638   1064810  
  9140.000000   1065705   1066035   1065674   1064687   1063304  
  9130.000000   1061832   1060552   1059657   1059213   1059208  
  9120.000000   1059577   1060241   1061117   1062124   1063178  
  9110.000000   1064173   1064966   1065398   1065319   1064646  
  9100.000000   1063394   1061725   1059940   1058431   1057566  
  9090.000000   1057570   1058414   1059807   1061258   1062198  
  9080.000000   1062180   1060995   1058784   1055927   1052932  
  9070.000000   1050232   1048112   1046642   1045747   1045315  
  9060.000000   1045317   1045847   1047055   1049061   1051819  
  9050.000000   1055088   1058462   1061489   1063827   1065331  
  9040.000000   1066104   1066385   1066461   1066526   1066642  
  9030.000000   1066748   1066723   1066501   1066090   1065601  
  9020.000000   1065137   1064785   1064524   1064286   1063948  
  9010.000000   1063436   1062749   1061948   1061121   1060296  
  9000.000000   1059445   1058454   1057195   1055584   1053655  
  8990.000000   1051592   1049704   1048351   1047848   1048373  
  8980.000000   1049917   1052272   1055076   1057878   1060252  
  8970.000000   1061877   1062619   1062544   1061905   1061055  
  8960.000000   1060365   1060105   1060383   1061122   1062118  
  8950.000000   1063105   1063845   1064194   1064121   1063694  
  8940.000000   1063014   1062188   1061298   1060409   1059583  
  8930.000000   1058895   1058448   1058340   1058618   1059269  
  8920.000000   1060186   1061231   1062245   1063130   1063848  
  8910.000000   1064423   1064912   1065345   1065726   1065989  
  8900.000000   1066046   1065795   1065194   1064252   1063058  
  8890.000000   1061740   1060458   1059370   1058598   1058234  
  8880.000000   1058306   1058819   1059726   1060974   1062485  
  8870.000000   1064187   1066011   1067870   1069669   1071260  
  8860.000000   1072498   1073204   1073261   1072618   1071363  
  8850.000000   1069709   1067959   1066469   1065554   1065447  
  8840.000000   1066237   1067870   1070178   1072894   1075704  
  8830.000000   1078259   1080234   1081363   1081500   1080668  
  8820.000000   1079093   1077196   1075539   1074699   1075132  
  8810.000000   1077032   1080248   1084308   1088514   1092134  
  8800.000000   1094570   1095517   1095009   1093400   1091256  
  8790.000000   1089178   1087673   1087013   1087244   1088181  
  8780.000000   1089514   1090896   1092031   1092758   1093048  
  8770.000000   1093024   1092910   1092979   1093505   1094663  
  8760.000000   1096510   1098917   1101607   1104205   1106352  
  8750.000000   1107819   1108596   1108905   1109144   1109739  
  8740.000000   1110996   1112959   1115398   1117855   1119827  
  8730.000000   1120933   1121070   1120459   1119575   1118993  
  8720.000000   1119185   1120386   1122522   1125284   1128234  
  8710.000000   1130976   1133240   1134956   1136210   1137193  
  8700.000000   1138104   1139080   1140174   1141330   1142439  
  8690.000000   1143340   1143894   1143995   1143618   1142850  
  8680.000000   1141885   1141012   1140546   1140756   1141796  
  8670.000000   1143649   1146147   1148985   1151818   1154340  
  8660.000000   1156370   1157881   1159002   1159965   1161064  
  8650.000000   1162561   1164639   1167332   1170516   1173915  
  8640.000000   1177173   1179944   1181999   1183302   1184010  
  8630.000000   1184443   1184943   1185788   1187066   1188684  
  8620.000000   1190410   1191998   1193296   1194301   1195130  
  8610.000000   1195938   1196803   1197673   1198369   1198680  
  8600.000000   1198489   1197863   1197083   1196560   1196696  
  8590.000000   1197744   1199704   1202348   1205287   1208142  
  8580.000000   1210632   1212671   1214326   1215766   1217170  
  8570.000000   1218650   1220246   1221896   1223489   1224848  
  8560.000000   1225782   1226082   1225596   1224285   1222304  
  8550.000000   1220021   1217967   1216719   1216729   1218173  
  8540.000000   1220852   1224261   1227725   1230644   1232671  
  8530.000000   1233816   1234414   1234964   1235954   1237650  
  8520.000000   1240038   1242815   1245539   1247760   1249195  
  8510.000000   1249781   1249691   1249265   1248884   1248898  
  8500.000000   1249488   1250682   1252312   1254117   1255802  
  8490.000000   1257154   1258085   1258666   1259061   1259455  
  8480.000000   1259947   1260500   1260945   1261045   1260630  
  8470.000000   1259683   1258405   1257151   1256312   1256175  
  8460.000000   1256810   1258051   1259557   1260954   1261990  
  8450.000000   1262600   1262916   1263172   1263611   1264370  
  8440.000000   1265464   1266795   1268245   1269723   1271204  
  8430.000000   1272703   1274233   1275780   1277279   1278666  
  8420.000000   1279902   1281017   1282095   1283231   1284475  
  8410.000000   1285770   1286966   1287866   1288307   1288242  
  8400.000000   1287757   1287066   1286433   1286100   1286201  
  8390.000000   1286758   1287674   1288810   1289999   1291120  
  8380.000000   1292082   1292862   1293460   1293924   1294322  
  8370.000000   1294721   1295165   1295625   1296017   1296185  
  8360.000000   1295976   1295274   1294070   1292491   1290766  
  8350.000000   1289185   1287987   1287340   1287296   1287821  
  8340.000000   1288808   1290124   1291619   1293126   1294443  
  8330.000000   1295350   1295653   1295260   1294250   1292872  
  8320.000000   1291503   1290527   1290225   1290652   1291614  
  8310.000000   1292732   1293593   1293890   1293528   1292627  
  8300.000000   1291461   1290346   1289527   1289112   1289074  
  8290.000000   1289313   1289722   1290248   1290882   1291649  
  8280.000000   1292544   1293533   1294521   1295399   1296059  
  8270.000000   1296434   1296498   1296244   1295680   1294812  
  8260.000000   1293656   1292266   1290734   1289198   1287794  
  8250.000000   1286636   1285760   1285129   1284642   1284188  
  8240.000000   1283676   1283077   1282410   1281727   1281084  
  8230.000000   1280519   1280046   1279663   1279364   1279136  
  8220.000000   1278960   1278798   1278588   1278261   1277766  
  8210.000000   1277108   1276356   1275625   1275022   1274601  
  8200.000000   1274311   1274025   1273559   1272776   1271628  
  8190.000000   1270212   1268721   1267384   1266364   1265690  
  8180.000000   1265247   1264810   1264138   1263045   1261469  
  8170.000000   1259467   1257194   1254852   1252631   1250695  
  8160.000000   1249155   1248089   1247528   1247465   1247822  
  8150.000000   1248453   1249149   1249674   1249826   1249475  
  8140.000000   1248617   1247329   1245767   1244077   1242377  
  8130.000000   1240718   1239110   1237547   1236042   1234657  
  8120.000000   1233470   1232582   1232043   1231865   1231977  
  8110.000000   1232282   1232650   1232965   1233128   1233056  
  8100.000000   1232685   1231956   1230830   1229289   1227367  
  8090.000000   1225136   1222723   1220266   1217900   1215726  
  8080.000000   1213797   1212136   1210736   1209604   1208742  
  8070.000000   1208171   1207890   1207874   1208053   1208308  
  8060.000000   1208508   1208513   1208243   1207658   1206799  
  8050.000000   1205739   1204579   1203406   1202284   1201246  
  8040.000000   1200310   1199491   1198808   1198290   1197953  
  8030.000000   1197784   1197722   1197665   1197487   1197077  
  8020.000000   1196382   1195429   1194328   1193238   1192316  
  8010.000000   1191669   1191313   1191183   1191157   1191112  
  8000.000000   1190970   1190717   1190400   1190074   1189774  
  7990.000000   1189459   1189038   1188380   1187391   1186056  
  7980.000000   1184477   1182859   1181462   1180532   1180222  
  7970.000000   1180562   1181441   1182653   1183939   1185057  
  7960.000000   1185821   1186132   1185982   1185434   1184616  
  7950.000000   1183668   1182739   1181934   1181314   1180872  
  7940.000000   1180552   1180267   1179935   1179517   1179028  
  7930.000000   1178547   1178179   1178029   1178148   1178518  
  7920.000000   1179050   1179611   1180071   1180336   1180382  
  7910.000000   1180248   1180016   1179775   1179585   1179463  
  7900.000000   1179382   1179293   1179154   1178942   1178670  
  7890.000000   1178370   1178076   1177805   1177545   1177257  
  7880.000000   1176889   1176406   1175813   1175165   1174567  
  7870.000000   1174144   1174000   1174193   1174701   1175436  
  7860.000000   1176260   1177032   1177648   1178070   1178330  
  7850.000000   1178503   1178665   1178852   1179037   1179133  
  7840.000000   1179034   1178648   1177952   1176999   1175910  
  7830.000000   1174840   1173921   1173246   1172825   1172625  
  7820.000000   1172570   1172589   1172624   1172646   1172637  
  7810.000000   1172588   1172481   1172291   1171995   1171577  
  7800.000000   1171045   1170417   1169726   1169001   1168265  
  7790.000000   1167532   1166799   1166069   1165339   1164622  
  7780.000000   1163936   1163319   1162809   1162451   1162275  
  7770.000000   1162281   1162424   1162606   1162690   1162519  
  7760.000000   1161971   1160984   1159598   1157941   1156210  
  7750.000000   1154614   1153316   1152403   1151866   1151632  
  7740.000000   1151594   1151664   1151785   1151938   1152120  
  7730.000000   1152307   1152451   1152460   1152243   1151716  
  7720.000000   1150861   1149703   1148344   1146904   1145518  
  7710.000000   1144299   1143328   1142661   1142312   1142283  
  7700.000000   1142541   1143036   1143691   1144421   1145134  
  7690.000000   1145748   1146202   1146454   1146489   1146297  
  7680.000000   1145894   1145296   1144548   1143700   1142822  
  7670.000000   1141976   1141205   1140525   1139918   1139355  
  7660.000000   1138812   1138304   1137885   1137639   1137648  
  7650.000000   1137949   1138510   1139217   1139911   1140422  
  7640.000000   1140636   1140524   1140158   1139681   1139264  
  7630.000000   1139041   1139069   1139308   1139647   1139942  
  7620.000000   1140078   1139999   1139733   1139366   1139009  
  7610.000000   1138756   1138647   1138664   1138746   1138831  
  7600.000000   1138892   1138958   1139116   1139466   1140089  
  7590.000000   1140994   1142111   1143289   1144355   1145155  
  7580.000000   1145618   1145764   1145697   1145564   1145506  
  7570.000000   1145620   1145949   1146482   1147188   1148029  
  7560.000000   1148972   1149979   1150993   1151924   1152669  
  7550.000000   1153131   1153274   1153143   1152882   1152684  
  7540.000000   1152752   1153226   1154148   1155451   1156992  
  7530.000000   1158598   1160133   1161524   1162780   1163951  
  7520.000000   1165110   1166291   1167500   1168694   1169830  
  7510.000000   1170864   1171801   1172674   1173553   1174520  
  7500.000000   1175650   1177002   1178597   1180425   1182441  
  7490.000000   1184573   1186745   1188872   1190900   1192794  
  7480.000000   1194562   1196228   1197831   1199390   1200912  
  7470.000000   1202377   1203771   1205087   1206362   1207663  
  7460.000000   1209080   1210696   1212559   1214657   1216921  
  7450.000000   1219245   1221524   1223685   1225710   1227641  
  7440.000000   1229563   1231569   1233724   1236040   1238474  
  7430.000000   1240933   1243311   1245514   1247506   1249307  
  7420.000000   1250997   1252679   1254451   1256365   1258412  
  7410.000000   1260525   1262606   1264570   1266379   1268065  
  7400.000000   1269722   1271476   1273438   1275664   1278135  
  7390.000000   1280757   1283391   1285901   1288188   1290223  
  7380.000000   1292047   1293755   1295471   1297305   1299330  
  7370.000000   1301555   1303927   1306340   1308655   1310742  
  7360.000000   1312513   1313963   1315181   1316344   1317661  
  7350.000000   1319331   1321462   1324037   1326900   1329810  
  7340.000000   1332518   1334856   1336777   1338366   1339790  
  7330.000000   1341234   1342823   1344585   1346450   1348296  
  7320.000000   1350006   1351522   1352859   1354106   1355373  
  7310.000000   1356759   1358301   1359985   1361740   1363488  
  7300.000000   1365161   1366725   1368169   1369499   1370721  
  7290.000000   1371834   1372835   1373727   1374531   1375283  
  7280.000000   1376026   1376789   1377577   1378366   1379116  
  7270.000000   1379785   1380360   1380870   1381390   1382018  
  7260.000000   1382855   1383960   1385347   1386959   1388711  
  7250.000000   1390487   1392204   1393809   1395309   1396747  
  7240.000000   1398200   1399730   1401394   1403202   1405157  
  7230.000000   1407226   1409390   1411606   1413850   1416072  
  7220.000000   1418238   1420300   1422253   1424108   1425945  
  7210.000000   1427861   1429988   1432420   1435211   1438334  
  7200.000000   1441713   1445231   1448798   1452355   1455922  
  7190.000000   1459538   1463281   1467170   1471198   1475268  
  7180.000000   1479278   1483103   1486699   1490074   1493335  
  7170.000000   1496626   1500121   1503951   1508208   1512886  
  7160.000000   1517929   1523213   1528614   1534005   1539313  
  7150.000000   1544490   1549560   1554560   1559575   1564666  
  7140.000000   1569896   1575269   1580781   1586390   1592080  
  7130.000000   1597834   1603684   1609659   1615801   1622117  
  7120.000000   1628596   1635181   1641821   1648454   1655063  
  7110.000000   1661632   1668185   1674725   1681265   1687798  
  7100.000000   1694345   1700932   1707632   1714521   1721675  
  7090.000000   1729118   1736820   1744681   1752572   1760363  
  7080.000000   1767972   1775378   1782628   1789806   1797005  
  7070.000000   1804294   1811704   1819222   1826813   1834424  
  7060.000000   1842005   1849500   1856859   1864037   1871007  
  7050.000000   1877775   1884384   1890915   1897458   1904100  
  7040.000000   1910885   1917821   1924867   1931979   1939104  
  7030.000000   1946221   1953317   1960389   1967410   1974333  
  7020.000000   1981081   1987584   1993792   1999705   2005372  
  7010.000000   2010887   2016344   2021836   2027403   2033064  
  7000.000000   2038778   2044504   2050170   2055733   2061139  
  6990.000000   2066378   2071439   2076352   2081138   2085835  
  6980.000000   2090446   2094966   2099342   2103526   2107464  
  6970.000000   2111150   2114602   2117897   2121106   2124316  
  6960.000000   2127557   2130846   2134152   2137456   2140727  
  6950.000000   2143960   2147131   2150218   2153157   2155879  
  6940.000000   2158311   2160433   2162273   2163929   2165522  
  6930.000000   2167175   2168946   2170844   2172799   2174740  
  6920.000000   2176596   2178364   2180079   2181820   2183640  
  6910.000000   2185562   2187539   2189484   2191290   2192872  
  6900.000000   2194188   2195256   2196133   2196906   2197656  
  6890.000000   2198456   2199348   2200356   2201468   2202658  
  6880.000000   2203874   2205063   2206171   2207172   2208065  
  6870.000000   2208889   2209697   2210543   2211461   2212450  
  6860.000000   2213481   2214504   2215466   2216332   2217083  
  6850.000000   2217726   2218282   2218789   2219292   2219846  
  6840.000000   2220503   2221307   2222265   2223342   2224450  
  6830.000000   2225477   2226310   2226878   2227178   2227283  
  6820.000000   2227318   2227421   2227693   2228174   2228824  
  6810.000000   2229559   2230273   2230883   2231340   2231647  
  6800.000000   2231828   2231928   2231983   2232023   2232062  
  6790.000000   2232114   2232185   2232279   2232388   2232494  
  6780.000000   2232567   2232582   2232511   2232349   2232092  
  6770.000000   2231749   2231326   2230831   2230269   2229654  
  6760.000000   2229007   2228357   2227729   2227138   2226573  
  6750.000000   2226009   2225405   2224736   2223989   2223186  
  6740.000000   2222360   2221561   2220819   2220149   2219542  
  6730.000000   2218978   2218425   2217858   2217247   2216560  
  6720.000000   2215763   2214820   2213708   2212429   2211016  
  6710.000000   2209531   2208046   2206632   2205330   2204159  
  6700.000000   2203105   2202153   2201280   2200475   2199720  
  6690.000000   2198993   2198247   2197422   2196458   2195315  
  6680.000000   2193988   2192517   2190968   2189418   2187924  
  6670.000000   2186518   2185194   2183936   2182712   2181504  
  6660.000000   2180288   2179046   2177740   2176332   2174781  
  6650.000000   2173074   2171226   2169298   2167365   2165509  
  6640.000000   2163775   2162170   2160657   2159179   2157680  
  6630.000000   2156126   2154506   2152834   2151122   2149376  
  6620.000000   2147589   2145752   2143862   2141935   2140001  
  6610.000000   2138098   2136254   2134475   2132743   2131029  
  6600.000000   2129303   2127551   2125781   2124019   2122298  
  6590.000000   2120644   2119066   2117554   2116083   2114610  
  6580.000000   2113093   2111487   2109761   2107902   2105930  
  6570.000000   2103897   2101881   2099976   2098260   2096775  
  6560.000000   2095516   2094425   2093418   2092408   2091330  
  6550.000000   2090158   2088902   2087584   2086232   2084849  
  6540.000000   2083428   2081951   2080417   2078838   2077256  
  6530.000000   2075717   2074265   2072921   2071685   2070541  
  6520.000000   2069466   2068450   2067491   2066596   2065770  
  6510.000000   2065008   2064290   2063588   2062880   2062148  
  6500.000000   2061395   2060627   2059856   2059082   2058303  
  6490.000000   2057507   2056688   2055849   2055001   2054165  
  6480.000000   2053358   2052590   2051854   2051133   2050399  
  6470.000000   2049624   2048781   2047850   2046821   2045692  
  6460.000000   2044478   2043207   2041917   2040656   2039464  
  6450.000000   2038370   2037381   2036486   2035658   2034869  
  6440.000000   2034095   2033319   2032531   2031722   2030887  
  6430.000000   2030018   2029121   2028212   2027321   2026482  
  6420.000000   2025725   2025057   2024462   2023900   2023327  
  6410.000000   2022713   2022051   2021362   2020682   2020044  
  6400.000000   2019459   2018915   2018381   2017823   2017222  
  6390.000000   2016582   2015927   2015286   2014679   2014108  
  6380.000000   2013552   2012982   2012374   2011717   2011023  
  6370.000000   2010320   2009641   2009016   2008462   2007985  
  6360.000000   2007574   2007211   2006861   2006483   2006026  
  6350.000000   2005448   2004722   2003855   2002886   2001888  
  6340.000000   2000940   2000108   1999419   1998861   1998376  
  6330.000000   1997899   1997363   1996733   1995998   1995181  
  6320.000000   1994304   1993398   1992473   1991534   1990578  
  6310.000000   1989608   1988625   1987638   1986643   1985633  
  6300.000000   1984585   1983483   1982303   1981046   1979714  
  6290.000000   1978329   1976899   1975443   1973956   1972439  
  6280.000000   1970882   1969281   1967623   1965905   1964107  
  6270.000000   1962218   1960225   1958131   1955952   1953727  
  6260.000000   1951499   1949315   1947196   1945153   1943161  
  6250.000000   1941195   1939217   1937210   1935166   1933098  
  6240.000000   1931024   1928966   1926939   1924950   1922994  
  6230.000000   1921056   1919108   1917117   1915045   1912862  
  6220.000000   1910551   1908119   1905597   1903035   1900496  
  6210.000000   1898035   1895693   1893487   1891410   1889440  
  6200.000000   1887547   1885701   1883875   1882046   1880198  
  6190.000000   1878319   1876404   1874455   1872482   1870499  
  6180.000000   1868522   1866557   1864608   1862673   1860750  
  6170.000000   1858844   1856964   1855128   1853348   1851627  
  6160.000000   1849956   1848310   1846659   1844975   1843241  
  6150.000000   1841449   1839609   1837736   1835852   1833978  
  6140.000000   1832137   1830350   1828638   1827013   1825477  
  6130.000000   1824021   1822629   1821274   1819937   1818602  
  6120.000000   1817263   1815913   1814548   1813158   1811741  
  6110.000000   1810291   1808831   1807386   1806006   1804728  
  6100.000000   1803582   1802565   1801654   1800810   1800002  
  6090.000000   1799212   1798455   1797755   1797147   1796639  
  6080.000000   1796225   1795863   1795517   1795145   1794743  
  6070.000000   1794315   1793898   1793515   1793193   1792935  
  6060.000000   1792744   1792614   1792559   1792588   1792728  
  6050.000000   1792985   1793359   1793824   1794360   1794935  
  6040.000000   1795549   1796208   1796941   1797765   1798697  
  6030.000000   1799722   1800823   1801966   1803136   1804324  
  6020.000000   1805546   1806816   1808153   1809559   1811029  
  6010.000000   1812540   1814078   1815618   1817153   1818667  
  6000.000000   1820158   1821615   1823039   1824427   1825794  
  5990.000000   1827152   1828523   1829916   1831343   1832798  
  5980.000000   1834283   1835798   1837356   1838972   1840671  
  5970.000000   1842461   1844349   1846320   1848365   1850470  
  5960.000000   1852639   1854878   1857204   1859614   1862102  
  5950.000000   1864632   1867168   1869667   1872107   1874478  
  5940.000000   1876798   1879086   1881368   1883657   1885965  
  5930.000000   1888297   1890663   1893075   1895545   1898078  
  5920.000000   1900663   1903270   1905856   1908377   1910799  
  5910.000000   1913107   1915309   1917425   1919482   1921508  
  5900.000000   1923525   1925552   1927611   1929722   1931905  
  5890.000000   1934177   1936536   1938971   1941457   1943965  
  5880.000000   1946468   1948945   1951387   1953782   1956119  
  5870.000000   1958380   1960555   1962632   1964627   1966567  
  5860.000000   1968501   1970477   1972538   1974702   1976972  
  5850.000000   1979332   1981762   1984251   1986794   1989403  
  5840.000000   1992089   1994864   1997725   2000660   2003645  
  5830.000000   2006647   2009629   2012555   2015391   2018110  
  5820.000000   2020693   2023138   2025446   2027639   2029727  
  5810.000000   2031733   2033653   2035497   2037248   2038918  
  5800.000000   2040494   2042002   2043433   2044806   2046094  
  5790.000000   2047293   2048359   2049276   2050004   2050531  
  5780.000000   2050818   2050845   2050564   2049953   2048990  
  5770.000000   2047701   2046137   2044398   2042586   2040813  
  5760.000000   2039150   2037644   2036301   2035112   2034058  
  5750.000000   2033130   2032323   2031636   2031065   2030591  
  5740.000000   2030196   2029852   2029551   2029281   2029056  
  5730.000000   2028874   2028748   2028669   2028641   2028656  
  5720.000000   2028726   2028861   2029081   2029388   2029777  
  5710.000000   2030221   2030692   2031162   2031622   2032074  
  5700.000000   2032540   2033035   2033564   2034122   2034688  
  5690.000000   2035247   2035791   2036333   2036886   2037467  
  5680.000000   2038066   2038660   2039200   2039643   2039946  
  5670.000000   2040094   2040085   2039935   2039651   2039240  
  5660.000000   2038697   2038030   2037249   2036392   2035502  
  5650.000000   2034630   2033803   2033034   2032307   2031602  
  5640.000000   2030894   2030181   2029469   2028779   2028128  
  5630.000000   2027521   2026952   2026408   2025873   2025343  
  5620.000000   2024819   2024305   2023803   2023308   2022808  
  5610.000000   2022294   2021764   2021227   2020700   2020196  
  5600.000000   2019713   2019235   2018733   2018179   2017555  
  5590.000000   2016865   2016127   2015366   2014596   2013820  
  5580.000000   2013021   2012181   2011286   2010342   2009368  
  5570.000000   2008392   2007432   2006496   2005569   2004630  
  5560.000000   2003659   2002653   2001618   2000576   1999540  
  5550.000000   1998519   1997505   1996483   1995443   1994386  
  5540.000000   1993325   1992282   1991277   1990317   1989395  
  5530.000000   1988494   1987595   1986684   1985758   1984821  
  5520.000000   1983880   1982937   1981994   1981050   1980107  
  5510.000000   1979171   1978251   1977353   1976467   1975576  
  5500.000000   1974652   1973671   1972621   1971512   1970368  
  5490.000000   1969222   1968091   1966980   1965867   1964723  
  5480.000000   1963515   1962224   1960842   1959385   1957864  
  5470.000000   1956301   1954702   1953081   1951440   1949790  
  5460.000000   1948132   1946469   1944787   1943069   1941293  
  5450.000000   1939449   1937541   1935594   1933648   1931737  
  5440.000000   1929887   1928100   1926368   1924676   1923021  
  5430.000000   1921408   1919854   1918365   1916943   1915560  
  5420.000000   1914199   1912835   1911485   1910178   1908983  
  5410.000000   1907951   1907129   1906509   1906068   1905747  
  5400.000000   1905512   1905324   1905192   1905117   1905137  
  5390.000000   1905259   1905512   1905894   1906434   1907137  
  5380.000000   1908040   1909142   1910460   1911952   1913605  
  5370.000000   1915359   1917213   1919139   1921178   1923332  
  5360.000000   1925664   1928174   1930926   1933913   1937211  
  5350.000000   1940824   1944833   1949230   1954068   1959296  
  5340.000000   1964940   1970935   1977330   1984092   1991302  
  5330.000000   1998930   2007047   2015598   2024635   2034101  
  5320.000000   2044085   2054570   2065690   2077438   2089935  
  5310.000000   2103127   2117084   2131712   2147073   2163098  
  5300.000000   2179891   2197430   2215852   2235143   2255418  
  5290.000000   2276619   2298786   2321788   2345582   2370004  
  5280.000000   2395014   2420517   2446572   2473194   2500500  
  5270.000000   2528501   2557195   2586430   2616012   2645695  
  5260.000000   2675282   2704671   2733844   2762873   2791795  
  5250.000000   2820630   2849240   2877474   2905057   2931847  
  5240.000000   2957673   2982597   3006625   3029948   3052597  
  5230.000000   3074703   3096178   3117030   3137072   3156286  
  5220.000000   3174525   3191863   3208260   3223886   3238749  
  5210.000000   3253013   3266621   3279632   3291882   3303360  
  5200.000000   3313904   3323568   3332294   3340237   3347401  
  5190.000000   3353939   3359807   3365082   3369663   3373598  
  5180.000000   3376807   3379378   3381275   3382607   3383339  
  5170.000000   3383553   3383200   3382354   3380983   3379180  
  5160.000000   3376929   3374313   3371301   3367943   3364195  
  5150.000000   3360106   3355652   3350902   3345848   3340546  
  5140.000000   3334975   3329164   3323090   3316794   3310283  
  5130.000000   3303627   3296850   3290008   3283096   3276129  
  5120.000000   3269080   3261954   3254745   3247485   3240191  
  5110.000000   3232901   3225620   3218361   3211108   3203860  
  5100.000000   3196610   3189368   3182140   3174939   3167769  
  5090.000000   3160631   3153518   3146431   3139371   3132347  
  5080.000000   3125365   3118429   3111533   3104669   3097818  
  5070.000000   3090972   3084115   3077247   3070356   3063436  
  5060.000000   3056463   3049423   3042296   3035081   3027786  
  5050.000000   3020437   3013060   3005686   2998325   2990983  
  5040.000000   2983647   2976306   2968949   2961577   2954198  
  5030.000000   2946826   2939477   2932164   2924902   2917696  
  5020.000000   2910563   2903509   2896556   2889710   2882991  
  5010.000000   2876394   2869933   2863596   2857398   2851329  
  5000.000000   2845418   2839663   2834103   2828736   2823600  
  4990.000000   2818689   2814036   2809624   2805484   2801594  
  4980.000000   2797985   2794631   2791567   2788770   2786279  
  4970.000000   2784071   2782186   2780595   2779330   2778355  
  4960.000000   2777700   2777332   2777290   2777552   2778167  
  4950.000000   2779110   2780423   2782067   2784069   2786381  
  4940.000000   2789027   2791967   2795230   2798779   2802640  
  4930.000000   2806770   2811189   2815853   2820789   2825968  
  4920.000000   2831430   2837154   2843173   2849456   2856012  
  4910.000000   2862795   2869806   2877005   2884401   2891967  
  4900.000000   2899717   2907626   2915695   2923900   2932233  
  4890.000000   2940675   2949217   2957841   2966526   2975241  
  4880.000000   2983944   2992593   3001142   3009560   3017815  
  4870.000000   3025893   3033775   3041458   3048923   3056179  
  4860.000000   3063213   3070047   3076682   3083146   3089437  
  4850.000000   3095578   3101555   3107387   3113061   3118603  
  4840.000000   3124009   3129309   3134497   3139592   3144574  
  4830.000000   3149452   3154200   3158829   3163318   3167676  
  4820.000000   3171884   3175947   3179841   3183574   3187130  
  4810.000000   3190526   3193760   3196854   3199808   3202642  
  4800.000000   3205351   3207959   3210470   3212917   3215311  
  4790.000000   3217679   3220016   3222323   3224570   3226744  
  4780.000000   3228814   3230780   3232632   3234390   3236054  
  4770.000000   3237643   3239148   3240576   3241907   3243144  
  4760.000000   3244267   3245278   3246155   3246897   3247476  
  4750.000000   3247897   3248138   3248218   3248131   3247904  
  4740.000000   3247530   3247026   3246371   3245568   3244594  
  4730.000000   3243454   3242138   3240667   3239041   3237288  
  4720.000000   3235409   3233428   3231350   3229202   3226998  
  4710.000000   3224770   3222538   3220327   3218145   3216003  
  4700.000000   3213897   3211835   3209813   3207839   3205916  
  4690.000000   3204046   3202222   3200433   3198657   3196871  
  4680.000000   3195051   3193176   3191232   3189206   3187100  
  4670.000000   3184913   3182660   3180357   3178037   3175726  
  4660.000000   3173466   3171285   3169219   3167286   3165513  
  4650.000000   3163907   3162487   3161256   3160224   3159384  
  4640.000000   3158731   3158239   3157892   3157655   3157508  
  4630.000000   3157422   3157383   3157368   3157367   3157361  
  4620.000000   3157340   3157288   3157201   3157069   3156891  
  4610.000000   3156660   3156375   3156034   3155639   3155196  
  4600.000000   3154718   3154225   3153737   3153275   3152852  
  4590.000000   3152477   3152145   3151853   3151586   3151335  
  4580.000000   3151081   3150815   3150517   3150176   3149778  
  4570.000000   3149317   3148789   3148198   3147549   3146848  
  4560.000000   3146095   3145293   3144437   3143527   3142562  
  4550.000000   3141543   3140476   3139366   3138222   3137050  
  4540.000000   3135867   3134688   3133544   3132454   3131454  
  4530.000000   3130551   3129767   3129091   3128538   3128093  
  4520.000000   3127787   3127619   3127643   3127862   3128339  
  4510.000000   3129066   3130103   3131439   3133145   3135216  
  4500.000000   3137739   3140706   3144199   3148192   3152755  
  4490.000000   3157853   3163560   3169851   3176807   3184408  
  4480.000000   3192720   3201701   3211386   3221706   3232666  
  4470.000000   3244184   3256242   3268745   3281651   3294852  
  4460.000000   3308292   3321869   3335533   3349205   3362848  
  4450.000000   3376400   3389822   3403065   3416097   3428901  
  4440.000000   3441482   3453879   3466131   3478313   3490448  
  4430.000000   3502589   3514699   3526781   3538742   3550558  
  4420.000000   3562117   3573405   3584315   3594842   3604877  
  4410.000000   3614404   3623299   3631531   3638975   3645610  
  4400.000000   3651349   3656220   3660203   3663390   3665823  
  4390.000000   3667635   3668902   3669759   3670282   3670589  
  4380.000000   3670748   3670862   3671008   3671293   3671810  
  4370.000000   3672668   3673958   3675752   3678096   3680992  
  4360.000000   3684421   3688321   3692628   3697257   3702131  
  4350.000000   3707179   3712340   3717578   3722868   3728218  
  4340.000000   3733630   3739121   3744659   3750170   3755493  
  4330.000000   3760408   3764635   3767911   3770027   3770918  
  4320.000000   3770655   3769493   3767766   3765883   3764179  
  4310.000000   3762930   3762241   3762139   3762517   3763265  
  4300.000000   3764230   3765314   3766417   3767487   3768467  
  4290.000000   3769320   3770016   3770536   3770889   3771102  
  4280.000000   3771218   3771292   3771365   3771489   3771684  
  4270.000000   3771989   3772399   3772917   3773479   3774001  
  4260.000000   3774325   3774286   3773696   3772427   3770410  
  4250.000000   3767688   3764386   3760711   3756886   3753134  
  4240.000000   3749614   3746435   3743617   3741144   3738942  
  4230.000000   3736939   3735044   3733182   3731281   3729288  
  4220.000000   3727173   3724918   3722550   3720096   3717626  
  4210.000000   3715192   3712867   3710689   3708701   3706911  
  4200.000000   3705333   3703952   3702768   3701757   3700917  
  4190.000000   3700217   3699662   3699216   3698896   3698667  
  4180.000000   3698557   3698535   3698647   3698886   3699339  
  4170.000000   3700048   3701154   3702734   3704937   3707805  
  4160.000000   3711419   3715724   3720709   3726247   3732301  
  4150.000000   3738756   3745617   3752823   3760435   3768427  
  4140.000000   3776880   3785772   3795180   3805069   3815493  
  4130.000000   3826395   3837796   3849613   3861847   3874423  
  4120.000000   3887358   3900617   3914253   3928263   3942706  
  4110.000000   3957565   3972867   3988559   4004631   4021014  
  4100.000000   4037685   4054586   4071703   4088998   4106467  
  4090.000000   4124087   4141850   4159737   4177735   4195828  
  4080.000000   4213999   4232246   4250547   4268904   4287274  
  4070.000000   4305641   4323927   4342103   4360081   4377848  
  4060.000000   4395332   4412544   4429408   4445930   4462007  
  4050.000000   4477640   4492726   4507301   4521286   4534750  
  4040.000000   4547605   4559898   4571494   4582416   4592521  
  4030.000000   4601856   4610312   4617956   4624684   4630529  
  4020.000000   4635333   4639119   4641808   4643477   4644073  
  4010.000000   4643779   4642707   4640949   4638334   4634994  
  4000.000000   4631290  
##END= 
