##TITLE= Sample 012 By ssteindl date Montag, November 19 2018
##JCAMP-DX= 4.24
##DATA TYPE= INFRARED SPECTRUM
##ORIGIN= Exported PE Spectrum Data File
##OWNER= Sandra Steindl
##DATE= 18/11/19
##TIME= 16:18:39.00
##SPECTROMETER/DATA SYSTEM= PERKIN-ELMER Frontier FT-IR/NIR IR
##INSTRUMENT PARAMETERS=
  APODIZATION=stark
  DETECTOR=INGAAS
##RESOLUTION= 16.000000
##DELTAX= -2.000000
##XUNITS= 1/CM
##YUNITS= A
##XFACTOR= 1.00
##YFACTOR= 0.00000011920928955078
##FIRSTX= 10000.00
##LASTX= 4000.00
##NPOINTS= 3001
##FIRSTY= 0.142768
##MAXY= 0.568821
##MINY= 0.117541
##XYDATA= (X++(Y..Y))
 10000.000000   1197621   1200540   1202932   1204111   1203990  
  9990.000000   1203101   1202041   1201272   1200965   1200927  
  9980.000000   1200498   1198888   1195638   1190896   1185419  
  9970.000000   1180287   1176450   1174315   1173533   1173223  
  9960.000000   1172385   1170423   1167471   1164355   1162274  
  9950.000000   1162236   1164592   1168834   1173759   1177928  
  9940.000000   1180231   1180246   1178411   1175744   1173478  
  9930.000000   1172569   1173381   1175640   1178546   1181148  
  9920.000000   1182633   1182631   1181250   1179029   1176648  
  9910.000000   1174732   1173570   1173077   1172818   1172179  
  9900.000000   1170620   1167831   1163875   1159134   1154195  
  9890.000000   1149655   1145950   1143255   1141534   1140604  
  9880.000000   1140313   1140561   1141311   1142507   1143994  
  9870.000000   1145547   1146929   1148052   1149029   1150189  
  9860.000000   1151915   1154440   1157696   1161198   1164247  
  9850.000000   1166073   1166210   1164554   1161419   1157302  
  9840.000000   1152683   1147895   1143118   1138602   1134733  
  9830.000000   1132205   1131710   1133814   1138475   1145041  
  9820.000000   1152233   1158581   1162845   1164375   1163267  
  9810.000000   1160086   1155602   1150305   1144396   1137778  
  9800.000000   1130488   1122876   1115733   1110077   1106701  
  9790.000000   1105905   1107196   1109647   1112161   1114089  
  9780.000000   1115397   1116649   1118619   1121758   1125892  
  9770.000000   1130105   1133145   1133849   1131714   1127003  
  9760.000000   1120720   1114129   1108385   1104142   1101523  
  9750.000000   1100221   1099754   1099678   1099665   1099516  
  9740.000000   1099076   1098309   1097297   1096423   1096285  
  9730.000000   1097614   1100943   1106311   1113128   1120206  
  9720.000000   1126176   1129838   1130630   1128665   1124677  
  9710.000000   1119602   1114264   1109131   1104328   1099886  
  9700.000000   1095937   1092931   1091443   1092028   1094795  
  9690.000000   1099356   1104786   1109975   1113923   1116016  
  9680.000000   1116146   1114541   1111684   1108023   1104017  
  9670.000000   1100035   1096478   1093722   1092077   1091673  
  9660.000000   1092380   1093845   1095581   1097196   1098497  
  9650.000000   1099592   1100755   1102254   1104157   1106251  
  9640.000000   1108164   1109544   1110280   1110553   1110745  
  9630.000000   1111227   1112147   1113362   1114474   1115063  
  9620.000000   1114830   1113776   1112109   1110180   1108252  
  9610.000000   1106453   1104742   1103048   1101339   1099697  
  9600.000000   1098220   1096913   1095581   1093844   1091327  
  9590.000000   1087858   1083673   1079367   1075694   1073236  
  9580.000000   1072114   1071947   1072006   1071611   1070451  
  9570.000000   1068793   1067355   1066970   1068160   1070793  
  9560.000000   1074114   1076929   1078155   1077130   1073920  
  9550.000000   1069159   1063829   1058871   1054953   1052400  
  9540.000000   1051267   1051498   1052989   1055615   1059119  
  9530.000000   1063081   1066873   1069846   1071481   1071639  
  9520.000000   1070603   1068989   1067515   1066687   1066646  
  9510.000000   1067111   1067556   1067407   1066262   1063992  
  9500.000000   1060723   1056754   1052430   1048077   1043978  
  9490.000000   1040397   1037601   1035825   1035205   1035708  
  9480.000000   1037089   1038977   1040950   1042708   1044130  
  9470.000000   1045313   1046499   1047922   1049715   1051760  
  9460.000000   1053766   1055265   1055838   1055163   1053186  
  9450.000000   1050092   1046307   1042408   1038976   1036523  
  9440.000000   1035329   1035468   1036767   1038930   1041606  
  9430.000000   1044475   1047280   1049817   1051899   1053313  
  9420.000000   1053853   1053344   1051804   1049469   1046872  
  9410.000000   1044668   1043481   1043669   1045172   1047555  
  9400.000000   1050096   1052112   1053115   1053064   1052272  
  9390.000000   1051341   1050834   1051117   1052195   1053748  
  9380.000000   1055279   1056239   1056230   1055016   1052576  
  9370.000000   1049026   1044574   1039504   1034155   1028961  
  9360.000000   1024399   1020980   1019101   1018993   1020550  
  9350.000000   1023392   1026851   1030175   1032679   1033892  
  9340.000000   1033709   1032298   1030102   1027543   1024966  
  9330.000000   1022429   1019834   1016987   1013845   1010594  
  9320.000000   1007677   1005701   1005171   1006344   1009017  
  9310.000000   1012627   1016428   1019739   1022233   1023927  
  9300.000000   1025169   1026290   1027426   1028343   1028585  
  9290.000000   1027741   1025734   1023015   1020459   1019191  
  9280.000000   1020107   1023568   1029101   1035590   1041586  
  9270.000000   1045796   1047392   1046151   1042396   1036813  
  9260.000000   1030256   1023542   1017385   1012344   1008844  
  9250.000000   1007100   1007010   1008118   1009630   1010728  
  9240.000000   1010756   1009542   1007388   1005041   1003425  
  9230.000000   1003252   1004786   1007663   1011132   1014266  
  9220.000000   1016299   1016770   1015578   1012978   1009474  
  9210.000000   1005698   1002309   0999915   0999019   0999828  
  9200.000000   1002115   1005157   1007885   1009186   1008241  
  9190.000000   1004891   0999739   0994080   0989472   0987182  
  9180.000000   0987753   0990830   0995409   1000118   1003715  
  9170.000000   1005393   1005011   1002953   0999895   0996542  
  9160.000000   0993516   0991313   0990333   0990845   0992955  
  9150.000000   0996545   1001207   1006304   1011032   1014733  
  9140.000000   1017046   1018056   1018160   1017875   1017604  
  9130.000000   1017432   1017135   1016300   1014584   1011907  
  9120.000000   1008513   1004904   1001630   0999121   0997509  
  9110.000000   0996668   0996253   0995897   0995319   0994416  
  9100.000000   0993266   0992059   0991051   0990468   0990470  
  9090.000000   0991093   0992233   0993631   0994959   0995891  
  9080.000000   0996264   0996115   0995711   0995430   0995611  
  9070.000000   0996375   0997556   0998753   0999521   0999549  
  9060.000000   0998826   0997644   0996480   0995779   0995731  
  9050.000000   0996223   0996899   0997392   0997495   0997294  
  9040.000000   0997107   0997324   0998186   0999641   1001347  
  9030.000000   1002805   1003568   1003407   1002376   1000756  
  9020.000000   0998926   0997221   0995848   0994924   0994505  
  9010.000000   0994659   0995395   0996651   0998209   0999697  
  9000.000000   1000670   1000764   0999882   0998209   0996186  
  8990.000000   0994274   0992819   0991853   0991157   0990369  
  8980.000000   0989267   0987895   0986623   0986003   0986537  
  8970.000000   0988456   0991572   0995378   0999209   1002536  
  8960.000000   1005098   1006969   1008450   1009884   1011485  
  8950.000000   1013229   1014893   1016131   1016638   1016195  
  8940.000000   1014732   1012312   1009116   1005433   1001610  
  8930.000000   0998085   0995286   0993605   0993211   0994055  
  8920.000000   0995810   0998011   1000141   1001812   1002835  
  8910.000000   1003223   1003128   1002695   1002032   1001107  
  8900.000000   0999877   0998291   0996429   0994459   0992619  
  8890.000000   0991121   0990087   0989547   0989455   0989750  
  8880.000000   0990405   0991411   0992764   0994365   0996028  
  8870.000000   0997458   0998377   0998608   0998199   0997415  
  8860.000000   0996712   0996582   0997423   0999397   1002376  
  8850.000000   1005995   1009742   1013110   1015699   1017313  
  8840.000000   1017995   1017979   1017620   1017267   1017198  
  8830.000000   1017515   1018162   1018932   1019564   1019850  
  8820.000000   1019704   1019243   1018715   1018473   1018826  
  8810.000000   1019968   1021911   1024465   1027319   1030072  
  8800.000000   1032373   1033933   1034620   1034443   1033580  
  8790.000000   1032346   1031150   1030442   1030607   1031892  
  8780.000000   1034310   1037648   1041494   1045347   1048728  
  8770.000000   1051277   1052830   1053394   1053135   1052273  
  8760.000000   1051059   1049717   1048470   1047541   1047133  
  8750.000000   1047431   1048518   1050388   1052874   1055728  
  8740.000000   1058615   1061221   1063299   1064698   1065402  
  8730.000000   1065458   1064987   1064111   1062978   1061733  
  8720.000000   1060536   1059556   1058954   1058888   1059447  
  8710.000000   1060663   1062442   1064604   1066871   1068948  
  8700.000000   1070575   1071591   1072003   1071945   1071678  
  8690.000000   1071452   1071453   1071711   1072130   1072527  
  8680.000000   1072757   1072786   1072745   1072896   1073521  
  8670.000000   1074810   1076756   1079147   1081638   1083866  
  8660.000000   1085613   1086843   1087727   1088512   1089425  
  8650.000000   1090550   1091820   1093046   1094052   1094759  
  8640.000000   1095270   1095817   1096692   1098104   1100103  
  8630.000000   1102546   1105150   1107596   1109645   1111212  
  8620.000000   1112388   1113408   1114564   1116124   1118263  
  8610.000000   1121014   1124279   1127828   1131355   1134521  
  8600.000000   1137030   1138693   1139481   1139556   1139245  
  8590.000000   1138976   1139170   1140142   1142015   1144693  
  8580.000000   1147859   1151098   1153973   1156194   1157640  
  8570.000000   1158433   1158859   1159292   1160066   1161357  
  8560.000000   1163128   1165112   1166901   1168064   1168300  
  8550.000000   1167541   1165994   1164104   1162418   1161441  
  8540.000000   1161477   1162565   1164488   1166860   1169257  
  8530.000000   1171336   1172923   1174030   1174807   1175472  
  8520.000000   1176239   1177258   1178618   1180321   1182328  
  8510.000000   1184533   1186808   1188981   1190874   1192337  
  8500.000000   1193294   1193781   1193945   1194024   1194276  
  8490.000000   1194910   1196010   1197532   1199317   1201159  
  8480.000000   1202861   1204296   1205431   1206304   1206974  
  8470.000000   1207480   1207825   1207981   1207938   1207730  
  8460.000000   1207486   1207400   1207701   1208565   1210053  
  8450.000000   1212078   1214412   1216768   1218883   1220612  
  8440.000000   1221972   1223125   1224309   1225739   1227518  
  8430.000000   1229607   1231829   1233953   1235753   1237111  
  8420.000000   1238015   1238572   1238911   1239167   1239410  
  8410.000000   1239654   1239848   1239917   1239777   1239354  
  8400.000000   1238578   1237400   1235809   1233880   1231781  
  8390.000000   1229780   1228179   1227255   1227159   1227866  
  8380.000000   1229161   1230720   1232203   1233364   1234107  
  8370.000000   1234497   1234695   1234874   1235140   1235495  
  8360.000000   1235878   1236194   1236392   1236448   1236381  
  8350.000000   1236191   1235842   1235252   1234317   1232998  
  8340.000000   1231352   1229574   1227929   1226700   1226082  
  8330.000000   1226141   1226772   1227757   1228806   1229661  
  8320.000000   1230131   1230128   1229659   1228799   1227687  
  8310.000000   1226473   1225310   1224312   1223546   1223005  
  8300.000000   1222615   1222272   1221877   1221401   1220885  
  8290.000000   1220441   1220179   1220156   1220327   1220545  
  8280.000000   1220615   1220361   1219717   1218738   1217591  
  8270.000000   1216480   1215567   1214926   1214522   1214271  
  8260.000000   1214078   1213906   1213763   1213691   1213696  
  8250.000000   1213729   1213671   1213387   1212784   1211854  
  8240.000000   1210690   1209440   1208237   1207149   1206139  
  8230.000000   1205114   1203964   1202658   1201249   1199882  
  8220.000000   1198700   1197798   1197144   1196606   1195978  
  8210.000000   1195072   1193784   1192129   1190220   1188215  
  8200.000000   1186252   1184401   1182662   1180985   1179316  
  8190.000000   1177632   1175954   1174345   1172871   1171576  
  8180.000000   1170463   1169500   1168623   1167767   1166874  
  8170.000000   1165904   1164839   1163687   1162482   1161272  
  8160.000000   1160110   1159029   1158031   1157064   1156043  
  8150.000000   1154862   1153439   1151738   1149797   1147707  
  8140.000000   1145599   1143598   1141803   1140274   1139034  
  8130.000000   1138083   1137402   1136958   1136688   1136496  
  8120.000000   1136252   1135827   1135135   1134167   1133028  
  8110.000000   1131886   1130940   1130313   1130016   1129912  
  8100.000000   1129767   1129330   1128438   1127090   1125470  
  8090.000000   1123902   1122728   1122206   1122388   1123128  
  8080.000000   1124101   1124944   1125353   1125193   1124523  
  8070.000000   1123538   1122489   1121558   1120791   1120077  
  8060.000000   1119199   1117925   1116123   1113823   1111235  
  8050.000000   1108698   1106568   1105122   1104454   1104470  
  8040.000000   1104913   1105454   1105791   1105725   1105213  
  8030.000000   1104348   1103321   1102338   1101571   1101097  
  8020.000000   1100909   1100912   1100980   1100980   1100819  
  8010.000000   1100462   1099932   1099303   1098666   1098098  
  8000.000000   1097634   1097250   1096882   1096441   1095868  
  7990.000000   1095155   1094361   1093600   1092993   1092629  
  7980.000000   1092515   1092577   1092680   1092679   1092474  
  7970.000000   1092049   1091473   1090866   1090347   1089977  
  7960.000000   1089748   1089577   1089361   1089014   1088517  
  7950.000000   1087914   1087302   1086782   1086422   1086233  
  7940.000000   1086167   1086149   1086112   1086024   1085909  
  7930.000000   1085817   1085817   1085945   1086199   1086520  
  7920.000000   1086825   1087014   1087023   1086831   1086482  
  7910.000000   1086070   1085717   1085543   1085628   1086002  
  7900.000000   1086631   1087438   1088324   1089196   1089987  
  7890.000000   1090652   1091167   1091506   1091638   1091524  
  7880.000000   1091142   1090501   1089667   1088760   1087927  
  7870.000000   1087314   1087006   1087028   1087321   1087797  
  7860.000000   1088353   1088928   1089497   1090071   1090657  
  7850.000000   1091226   1091707   1091991   1091988   1091653  
  7840.000000   1091034   1090251   1089467   1088834   1088437  
  7830.000000   1088281   1088290   1088364   1088414   1088400  
  7820.000000   1088332   1088248   1088179   1088124   1088040  
  7810.000000   1087874   1087584   1087181   1086732   1086340  
  7800.000000   1086109   1086094   1086271   1086540   1086749  
  7790.000000   1086749   1086435   1085786   1084862   1083791  
  7780.000000   1082725   1081802   1081114   1080686   1080479  
  7770.000000   1080397   1080322   1080131   1079737   1079111  
  7760.000000   1078288   1077379   1076530   1075901   1075618  
  7750.000000   1075736   1076226   1076971   1077801   1078525  
  7740.000000   1078979   1079049   1078699   1077960   1076922  
  7730.000000   1075712   1074471   1073331   1072400   1071748  
  7720.000000   1071401   1071335   1071484   1071752   1072027  
  7710.000000   1072202   1072196   1071962   1071506   1070874  
  7700.000000   1070156   1069460   1068896   1068550   1068463  
  7690.000000   1068619   1068949   1069343   1069685   1069880  
  7680.000000   1069886   1069714   1069424   1069095   1068797  
  7670.000000   1068574   1068437   1068377   1068383   1068459  
  7660.000000   1068625   1068902   1069291   1069755   1070216  
  7650.000000   1070569   1070721   1070614   1070260   1069730  
  7640.000000   1069137   1068604   1068225   1068058   1068111  
  7630.000000   1068369   1068804   1069388   1070089   1070863  
  7620.000000   1071637   1072318   1072799   1072996   1072879  
  7610.000000   1072486   1071930   1071356   1070909   1070677  
  7600.000000   1070675   1070836   1071050   1071194   1071182  
  7590.000000   1070992   1070671   1070321   1070065   1070015  
  7580.000000   1070237   1070742   1071489   1072399   1073383  
  7570.000000   1074352   1075242   1076002   1076610   1077050  
  7560.000000   1077329   1077454   1077458   1077385   1077307  
  7550.000000   1077302   1077453   1077820   1078432   1079279  
  7540.000000   1080315   1081477   1082698   1083915   1085078  
  7530.000000   1086135   1087046   1087768   1088281   1088587  
  7520.000000   1088744   1088851   1089049   1089469   1090209  
  7510.000000   1091282   1092626   1094115   1095609   1096992  
  7500.000000   1098217   1099306   1100338   1101402   1102571  
  7490.000000   1103864   1105268   1106738   1108242   1109756  
  7480.000000   1111291   1112854   1114454   1116066   1117651  
  7470.000000   1119157   1120550   1121821   1123001   1124140  
  7460.000000   1125304   1126548   1127917   1129437   1131120  
  7450.000000   1132966   1134957   1137051   1139186   1141272  
  7440.000000   1143227   1144979   1146508   1147829   1148998  
  7430.000000   1150080   1151141   1152228   1153377   1154626  
  7420.000000   1156022   1157636   1159532   1161755   1164286  
  7410.000000   1167043   1169890   1172664   1175223   1177467  
  7400.000000   1179370   1180956   1182289   1183434   1184468  
  7390.000000   1185466   1186518   1187729   1189204   1191028  
  7380.000000   1193224   1195735   1198421   1201103   1203604  
  7370.000000   1205807   1207672   1209239   1210604   1211874  
  7360.000000   1213144   1214474   1215903   1217455   1219147  
  7350.000000   1220991   1222970   1225039   1227112   1229092  
  7340.000000   1230894   1232493   1233920   1235262   1236619  
  7330.000000   1238069   1239640   1241299   1242981   1244616  
  7320.000000   1246165   1247627   1249035   1250427   1251825  
  7310.000000   1253223   1254599   1255934   1257235   1258540  
  7300.000000   1259909   1261388   1262997   1264705   1266443  
  7290.000000   1268136   1269726   1271205   1272607   1273998  
  7280.000000   1275442   1276976   1278601   1280282   1281969  
  7270.000000   1283607   1285159   1286602   1287936   1289162  
  7260.000000   1290302   1291373   1292418   1293479   1294615  
  7250.000000   1295872   1297290   1298883   1300647   1302562  
  7240.000000   1304604   1306748   1308979   1311274   1313621  
  7230.000000   1315986   1318355   1320698   1323012   1325288  
  7220.000000   1327547   1329793   1332059   1334355   1336723  
  7210.000000   1339189   1341801   1344583   1347554   1350691  
  7200.000000   1353962   1357311   1360710   1364145   1367654  
  7190.000000   1371282   1375084   1379069   1383211   1387420  
  7180.000000   1391601   1395656   1399553   1403300   1406969  
  7170.000000   1410631   1414361   1418178   1422081   1426029  
  7160.000000   1430001   1433981   1437993   1442064   1446233  
  7150.000000   1450515   1454919   1459433   1464061   1468799  
  7140.000000   1473665   1478649   1483741   1488890   1494050  
  7130.000000   1499169   1504244   1509299   1514416   1519679  
  7120.000000   1525175   1530936   1536956   1543161   1549467  
  7110.000000   1555772   1562010   1568128   1574122   1579997  
  7100.000000   1585798   1591572   1597392   1603319   1609406  
  7090.000000   1615664   1622070   1628557   1635048   1641471  
  7080.000000   1647795   1654027   1660212   1666400   1672628  
  7070.000000   1678891   1685159   1691382   1697535   1703626  
  7060.000000   1709699   1715816   1722024   1728332   1734698  
  7050.000000   1741048   1747300   1753404   1759352   1765182  
  7040.000000   1770953   1776721   1782509   1788316   1794110  
  7030.000000   1799862   1805549   1811175   1816748   1822286  
  7020.000000   1827786   1833242   1838631   1843942   1849166  
  7010.000000   1854318   1859410   1864461   1869467   1874422  
  7000.000000   1879294   1884070   1888723   1893260   1897682  
  6990.000000   1902017   1906276   1910482   1914633   1918734  
  6980.000000   1922761   1926696   1930500   1934145   1937604  
  6970.000000   1940879   1943983   1946964   1949867   1952755  
  6960.000000   1955656   1958600   1961580   1964595   1967620  
  6950.000000   1970644   1973634   1976560   1979367   1982004  
  6940.000000   1984416   1986579   1988499   1990229   1991841  
  6930.000000   1993429   1995062   1996790   1998619   2000535  
  6920.000000   2002499   2004472   2006411   2008280   2010044  
  6910.000000   2011684   2013187   2014575   2015889   2017200  
  6900.000000   2018577   2020074   2021701   2023419   2025145  
  6890.000000   2026780   2028230   2029442   2030412   2031183  
  6880.000000   2031828   2032427   2033049   2033738   2034512  
  6870.000000   2035373   2036310   2037317   2038389   2039535  
  6860.000000   2040761   2042075   2043470   2044917   2046362  
  6850.000000   2047731   2048947   2049951   2050724   2051299  
  6840.000000   2051755   2052198   2052723   2053393   2054210  
  6830.000000   2055125   2056053   2056907   2057615   2058144  
  6820.000000   2058486   2058659   2058691   2058619   2058488  
  6810.000000   2058361   2058307   2058401   2058684   2059161  
  6800.000000   2059771   2060422   2061001   2061429   2061676  
  6790.000000   2061778   2061806   2061839   2061920   2062044  
  6780.000000   2062159   2062195   2062099   2061860   2061511  
  6770.000000   2061110   2060712   2060347   2060011   2059680  
  6760.000000   2059337   2058986   2058667   2058435   2058341  
  6750.000000   2058411   2058630   2058950   2059315   2059672  
  6740.000000   2059997   2060287   2060551   2060796   2061016  
  6730.000000   2061194   2061313   2061369   2061381   2061385  
  6720.000000   2061422   2061527   2061703   2061934   2062178  
  6710.000000   2062397   2062558   2062657   2062703   2062722  
  6700.000000   2062734   2062750   2062758   2062731   2062625  
  6690.000000   2062400   2062018   2061465   2060747   2059904  
  6680.000000   2058986   2058068   2057210   2056468   2055860  
  6670.000000   2055386   2055009   2054682   2054341   2053929  
  6660.000000   2053391   2052692   2051813   2050762   2049572  
  6650.000000   2048302   2047020   2045793   2044660   2043632  
  6640.000000   2042678   2041752   2040794   2039776   2038688  
  6630.000000   2037564   2036442   2035368   2034357   2033401  
  6620.000000   2032461   2031488   2030433   2029260   2027956  
  6610.000000   2026523   2024980   2023363   2021713   2020088  
  6600.000000   2018542   2017122   2015847   2014700   2013623  
  6590.000000   2012540   2011369   2010058   2008592   2007001  
  6580.000000   2005339   2003665   2002018   2000412   1998840  
  6570.000000   1997286   1995746   1994232   1992768   1991379  
  6560.000000   1990072   1988831   1987615   1986378   1985087  
  6550.000000   1983730   1982328   1980917   1979544   1978240  
  6540.000000   1977014   1975853   1974724   1973583   1972392  
  6530.000000   1971125   1969778   1968372   1966947   1965560  
  6520.000000   1964260   1963079   1962011   1961014   1960016  
  6510.000000   1958941   1957734   1956385   1954930   1953443  
  6500.000000   1952005   1950673   1949457   1948322   1947202  
  6490.000000   1946028   1944762   1943407   1942004   1940617  
  6480.000000   1939299   1938080   1936954   1935892   1934851  
  6470.000000   1933796   1932705   1931567   1930381   1929146  
  6460.000000   1927858   1926513   1925112   1923664   1922190  
  6450.000000   1920712   1919255   1917838   1916478   1915187  
  6440.000000   1913980   1912872   1911876   1910997   1910230  
  6430.000000   1909554   1908942   1908354   1907762   1907136  
  6420.000000   1906465   1905741   1904981   1904208   1903467  
  6410.000000   1902802   1902260   1901863   1901611   1901468  
  6400.000000   1901378   1901279   1901131   1900923   1900681  
  6390.000000   1900451   1900277   1900177   1900136   1900108  
  6380.000000   1900038   1899878   1899610   1899245   1898817  
  6370.000000   1898364   1897912   1897474   1897049   1896644  
  6360.000000   1896266   1895937   1895671   1895470   1895307  
  6350.000000   1895141   1894922   1894617   1894215   1893734  
  6340.000000   1893201   1892639   1892050   1891416   1890709  
  6330.000000   1889918   1889051   1888154   1887284   1886494  
  6320.000000   1885806   1885204   1884634   1884035   1883350  
  6310.000000   1882555   1881654   1880672   1879634   1878561  
  6300.000000   1877451   1876302   1875112   1873895   1872677  
  6290.000000   1871488   1870349   1869263   1868211   1867165  
  6280.000000   1866089   1864961   1863768   1862513   1861206  
  6270.000000   1859861   1858493   1857122   1855765   1854445  
  6260.000000   1853167   1851931   1850713   1849478   1848188  
  6250.000000   1846817   1845358   1843829   1842262   1840687  
  6240.000000   1839124   1837577   1836038   1834499   1832959  
  6230.000000   1831433   1829940   1828498   1827112   1825770  
  6220.000000   1824451   1823134   1821806   1820471   1819145  
  6210.000000   1817843   1816574   1815333   1814108   1812888  
  6200.000000   1811669   1810462   1809284   1808148   1807055  
  6190.000000   1805990   1804931   1803858   1802766   1801664  
  6180.000000   1800579   1799531   1798535   1797585   1796663  
  6170.000000   1795752   1794841   1793936   1793052   1792200  
  6160.000000   1791381   1790577   1789753   1788877   1787929  
  6150.000000   1786914   1785855   1784788   1783741   1782725  
  6140.000000   1781733   1780741   1779723   1778666   1777569  
  6130.000000   1776443   1775305   1774170   1773050   1771951  
  6120.000000   1770885   1769861   1768896   1767995   1767160  
  6110.000000   1766376   1765628   1764896   1764179   1763485  
  6100.000000   1762840   1762271   1761803   1761440   1761180  
  6090.000000   1761001   1760887   1760819   1760793   1760800  
  6080.000000   1760837   1760886   1760935   1760958   1760954  
  6070.000000   1760918   1760874   1760838   1760843   1760901  
  6060.000000   1761031   1761234   1761524   1761904   1762397  
  6050.000000   1763009   1763761   1764647   1765672   1766817  
  6040.000000   1768080   1769439   1770893   1772422   1774022  
  6030.000000   1775667   1777357   1779077   1780844   1782666  
  6020.000000   1784575   1786575   1788679   1790864   1793111  
  6010.000000   1795380   1797657   1799925   1802202   1804504  
  6000.000000   1806872   1809326   1811903   1814611   1817475  
  5990.000000   1820490   1823667   1826986   1830441   1833998  
  5980.000000   1837646   1841364   1845164   1849055   1853072  
  5970.000000   1857228   1861540   1865985   1870543   1875162  
  5960.000000   1879816   1884470   1889125   1893774   1898436  
  5950.000000   1903111   1907813   1912539   1917301   1922111  
  5940.000000   1926991   1931961   1937035   1942217   1947493  
  5930.000000   1952838   1958214   1963586   1968908   1974140  
  5920.000000   1979228   1984128   1988790   1993182   1997290  
  5910.000000   2001128   2004725   2008133   2011395   2014565  
  5900.000000   2017670   2020755   2023842   2026975   2030172  
  5890.000000   2033461   2036828   2040253   2043677   2047046  
  5880.000000   2050293   2053378   2056273   2058979   2061503  
  5870.000000   2063868   2066097   2068216   2070256   2072250  
  5860.000000   2074229   2076219   2078233   2080276   2082343  
  5850.000000   2084437   2086564   2088746   2091003   2093350  
  5840.000000   2095788   2098296   2100846   2103405   2105958  
  5830.000000   2108504   2111060   2113641   2116257   2118893  
  5820.000000   2121523   2124110   2126630   2129080   2131476  
  5810.000000   2133853   2136236   2138647   2141076   2143521  
  5800.000000   2145953   2148383   2150804   2153251   2155713  
  5790.000000   2158193   2160626   2162950   2165037   2166783  
  5780.000000   2168051   2168749   2168783   2168129   2166786  
  5770.000000   2164841   2162406   2159665   2156786   2153947  
  5760.000000   2151251   2148773   2146499   2144407   2142439  
  5750.000000   2140572   2138782   2137080   2135471   2133958  
  5740.000000   2132531   2131166   2129842   2128536   2127244  
  5730.000000   2125957   2124678   2123397   2122112   2120815  
  5720.000000   2119518   2118236   2117005   2115848   2114784  
  5710.000000   2113807   2112892   2112007   2111124   2110231  
  5700.000000   2109338   2108465   2107632   2106852   2106118  
  5690.000000   2105418   2104723   2104026   2103310   2102578  
  5680.000000   2101819   2101026   2100167   2099213   2098121  
  5670.000000   2096859   2095388   2093688   2091734   2089523  
  5660.000000   2087058   2084379   2081540   2078628   2075728  
  5650.000000   2072920   2070249   2067730   2065342   2063057  
  5640.000000   2060844   2058691   2056602   2054591   2052666  
  5630.000000   2050819   2049030   2047264   2045501   2043724  
  5620.000000   2041949   2040197   2038502   2036884   2035357  
  5610.000000   2033917   2032560   2031275   2030059   2028908  
  5600.000000   2027818   2026775   2025768   2024780   2023805  
  5590.000000   2022841   2021895   2020973   2020076   2019190  
  5580.000000   2018296   2017373   2016405   2015392   2014347  
  5570.000000   2013289   2012237   2011198   2010170   2009142  
  5560.000000   2008102   2007042   2005957   2004851   2003723  
  5550.000000   2002573   2001398   2000200   1998986   1997771  
  5540.000000   1996570   1995396   1994253   1993132   1992018  
  5530.000000   1990898   1989767   1988632   1987505   1986403  
  5520.000000   1985329   1984282   1983248   1982218   1981183  
  5510.000000   1980142   1979093   1978031   1976934   1975775  
  5500.000000   1974520   1973157   1971690   1970159   1968615  
  5490.000000   1967110   1965668   1964289   1962936   1961569  
  5480.000000   1960146   1958655   1957101   1955514   1953924  
  5470.000000   1952352   1950802   1949264   1947717   1946144  
  5460.000000   1944529   1942859   1941123   1939312   1937420  
  5450.000000   1935457   1933449   1931438   1929477   1927608  
  5440.000000   1925858   1924224   1922691   1921232   1919834  
  5430.000000   1918485   1917191   1915945   1914741   1913549  
  5420.000000   1912355   1911141   1909932   1908767   1907716  
  5410.000000   1906827   1906139   1905635   1905291   1905054  
  5400.000000   1904907   1904834   1904866   1905015   1905312  
  5390.000000   1905741   1906294   1906932   1907660   1908474  
  5380.000000   1909430   1910558   1911911   1913479   1915260  
  5370.000000   1917190   1919246   1921372   1923590   1925887  
  5360.000000   1928332   1930935   1933779   1936881   1940331  
  5350.000000   1944143   1948408   1953114   1958318   1963960  
  5340.000000   1970060   1976540   1983440   1990714   1998441  
  5330.000000   2006592   2015250   2024365   2034004   2044110  
  5320.000000   2054774   2065973   2077839   2090366   2103686  
  5310.000000   2117759   2132669   2148329   2164797   2181990  
  5300.000000   2199987   2218746   2238380   2258872   2280334  
  5290.000000   2302718   2326063   2350234   2375167   2400666  
  5280.000000   2426658   2453018   2479787   2506983   2534737  
  5270.000000   2563089   2592074   2621579   2651438   2681428  
  5260.000000   2711360   2741134   2770732   2800225   2829663  
  5250.000000   2859081   2888372   2917411   2945953   2973865  
  5240.000000   3000981   3027346   3052953   3077966   3102403  
  5230.000000   3126375   3149797   3172666   3194811   3216210  
  5220.000000   3236733   3256453   3275342   3293563   3311130  
  5210.000000   3328188   3344678   3360636   3375898   3390444  
  5200.000000   3404124   3417000   3429031   3440370   3451019  
  5190.000000   3461104   3470559   3479424   3487582   3495068  
  5180.000000   3501804   3507882   3513273   3518081   3522260  
  5170.000000   3525878   3528870   3531308   3533158   3534520  
  5160.000000   3535376   3535808   3535762   3535274   3534274  
  5150.000000   3532811   3530863   3528524   3525805   3522789  
  5140.000000   3519458   3515851   3511928   3507730   3503251  
  5130.000000   3498565   3493688   3488678   3483520   3478224  
  5120.000000   3472754   3467120   3461322   3455411   3449420  
  5110.000000   3443400   3437363   3431320   3425255   3419170  
  5100.000000   3413069   3406985   3400950   3395002   3389157  
  5090.000000   3383420   3377773   3372204   3366689   3361223  
  5080.000000   3355788   3350373   3344948   3339488   3333959  
  5070.000000   3328344   3322632   3316837   3310964   3305028  
  5060.000000   3299022   3292943   3286770   3280501   3274131  
  5050.000000   3267680   3261155   3254577   3247940   3241247  
  5040.000000   3234484   3227659   3220780   3213881   3206985  
  5030.000000   3200117   3193279   3186458   3179631   3172776  
  5020.000000   3165886   3158972   3152069   3145211   3138438  
  5010.000000   3131769   3125219   3118780   3112459   3106249  
  5000.000000   3100174   3094239   3088478   3082895   3077512  
  4990.000000   3072318   3067328   3062526   3057934   3053538  
  4980.000000   3049367   3045402   3041667   3038137   3034839  
  4970.000000   3031750   3028915   3026323   3024029   3022026  
  4960.000000   3020368   3019036   3018076   3017458   3017218  
  4950.000000   3017319   3017790   3018583   3019726   3021170  
  4940.000000   3022949   3025023   3027438   3030166   3033259  
  4930.000000   3036689   3040510   3044697   3049303   3054310  
  4920.000000   3059769   3065656   3072006   3078776   3085979  
  4910.000000   3093557   3101512   3109795   3118406   3127302  
  4900.000000   3136469   3145857   3155430   3165129   3174905  
  4890.000000   3184712   3194500   3204240   3213876   3223378  
  4880.000000   3232669   3241709   3250400   3258700   3266503  
  4870.000000   3273779   3280431   3286453   3291778   3296441  
  4860.000000   3300414   3303770   3306504   3308698   3310348  
  4850.000000   3311527   3312227   3312522   3312420   3312004  
  4840.000000   3311300   3310394   3309312   3308124   3306848  
  4830.000000   3305540   3304221   3302940   3301722   3300603  
  4820.000000   3299598   3298719   3297964   3297326   3296803  
  4810.000000   3296385   3296081   3295888   3295816   3295860  
  4800.000000   3296027   3296304   3296698   3297198   3297815  
  4790.000000   3298538   3299378   3300321   3301368   3302502  
  4780.000000   3303718   3304996   3306330   3307699   3309093  
  4770.000000   3310493   3311891   3313277   3314650   3316010  
  4760.000000   3317363   3318709   3320047   3321368   3322662  
  4750.000000   3323922   3325141   3326321   3327468   3328590  
  4740.000000   3329693   3330785   3331864   3332933   3333992  
  4730.000000   3335042   3336084   3337116   3338136   3339132  
  4720.000000   3340103   3341040   3341961   3342874   3343818  
  4710.000000   3344815   3345907   3347108   3348446   3349922  
  4700.000000   3351558   3353359   3355357   3357570   3360038  
  4690.000000   3362775   3365802   3369106   3372672   3376447  
  4680.000000   3380381   3384390   3388412   3392364   3396201  
  4670.000000   3399874   3403388   3406748   3410006   3413206  
  4660.000000   3416419   3419693   3423085   3426626   3430347  
  4650.000000   3434259   3438371   3442676   3447162   3451807  
  4640.000000   3456580   3461451   3466384   3471355   3476332  
  4630.000000   3481300   3486227   3491094   3495857   3500483  
  4620.000000   3504908   3509085   3512943   3516443   3519522  
  4610.000000   3522175   3524379   3526176   3527591   3528706  
  4600.000000   3529561   3530243   3530771   3531199   3531508  
  4590.000000   3531719   3531787   3531716   3531456   3531004  
  4580.000000   3530319   3529403   3528229   3526818   3525171  
  4570.000000   3523333   3521329   3519216   3517020   3514783  
  4560.000000   3512511   3510221   3507898   3505543   3503137  
  4550.000000   3500684   3498177   3495628   3493050   3490463  
  4540.000000   3487890   3485354   3482876   3480468   3478140  
  4530.000000   3475881   3473689   3471540   3469432   3467341  
  4520.000000   3465285   3463253   3461285   3459381   3457600  
  4510.000000   3455950   3454507   3453288   3452387   3451822  
  4500.000000   3451690   3451994   3452815   3454131   3456011  
  4490.000000   3458422   3461441   3465046   3469333   3474287  
  4480.000000   3480001   3486443   3493681   3501653   3510395  
  4470.000000   3519819   3529936   3540645   3551942   3563723  
  4460.000000   3575985   3588640   3601697   3615088   3628824  
  4450.000000   3642847   3657151   3671671   3686385   3701234  
  4440.000000   3716192   3731225   3746311   3761433   3776554  
  4430.000000   3791652   3806662   3821544   3836209   3850621  
  4420.000000   3864689   3878393   3891658   3904477   3916779  
  4410.000000   3928558   3939732   3950292   3960165   3969364  
  4400.000000   3977856   3985711   3992958   3999722   4006078  
  4390.000000   4012173   4018090   4023959   4029835   4035803  
  4380.000000   4041866   4048054   4054334   4060707   4067135  
  4370.000000   4073628   4080169   4086775   4093428   4100125  
  4360.000000   4106817   4113477   4120033   4126471   4132717  
  4350.000000   4138784   4144593   4150173   4155441   4160452  
  4340.000000   4165149   4169606   4173751   4177551   4180756  
  4330.000000   4183064   4183985   4183064   4179875   4174259  
  4320.000000   4166325   4156540   4145593   4134321   4123485  
  4310.000000   4113699   4105287   4098351   4092772   4088352  
  4300.000000   4084865   4082127   4080026   4078472   4077434  
  4290.000000   4076840   4076677   4076879   4077469   4078428  
  4280.000000   4079806   4081596   4083798   4086359   4089199  
  4270.000000   4092230   4095340   4098423   4101323   4103855  
  4260.000000   4105760   4106756   4106550   4104940   4101837  
  4250.000000   4097345   4091712   4085338   4078637   4072034  
  4240.000000   4065815   4060185   4055170   4050739   4046758  
  4230.000000   4043107   4039648   4036286   4032951   4029595  
  4220.000000   4026219   4022819   4019456   4016171   4013072  
  4210.000000   4010223   4007731   4005633   4003982   4002751  
  4200.000000   4001920   4001406   4001154   4001073   4001133  
  4190.000000   4001279   4001531   4001874   4002360   4002977  
  4180.000000   4003769   4004706   4005816   4007069   4008511  
  4170.000000   4010144   4012052   4014268   4016890   4019942  
  4160.000000   4023495   4027530   4032075   4037074   4042531  
  4150.000000   4048378   4054623   4061206   4068153   4075422  
  4140.000000   4083060   4091032   4099385   4108070   4117111  
  4130.000000   4126437   4136060   4145922   4156067   4166487  
  4120.000000   4177275   4188467   4200167   4212404   4225245  
  4110.000000   4238677   4252712   4267289   4282372   4297859  
  4100.000000   4313675   4329704   4345868   4362088   4378336  
  4090.000000   4394597   4410885   4427215   4443585   4459985  
  4080.000000   4476364   4492697   4508913   4525003   4540902  
  4070.000000   4556607   4572031   4587150   4601842   4616080  
  4060.000000   4629742   4642831   4655253   4667039   4678115  
  4050.000000   4688535   4698242   4707322   4715740   4723591  
  4040.000000   4730824   4737497   4743517   4748917   4753612  
  4030.000000   4757673   4761073   4763931   4766254   4768146  
  4020.000000   4769576   4770621   4771280   4771616   4771579  
  4010.000000   4771251   4770658   4769756   4768312   4766327  
  4000.000000   4764066  
##END= 
