##TITLE= Sample 014 By ssteindl date Montag, November 19 2018
##JCAMP-DX= 4.24
##DATA TYPE= INFRARED SPECTRUM
##ORIGIN= Exported PE Spectrum Data File
##OWNER= Sandra Steindl
##DATE= 18/11/19
##TIME= 16:22:37.00
##SPECTROMETER/DATA SYSTEM= PERKIN-ELMER Frontier FT-IR/NIR IR
##INSTRUMENT PARAMETERS=
  APODIZATION=stark
  DETECTOR=INGAAS
##RESOLUTION= 16.000000
##DELTAX= -2.000000
##XUNITS= 1/CM
##YUNITS= A
##XFACTOR= 1.00
##YFACTOR= 0.00000011920928955078
##FIRSTX= 10000.00
##LASTX= 4000.00
##NPOINTS= 3001
##FIRSTY= 0.141711
##MAXY= 0.545792
##MINY= 0.117801
##XYDATA= (X++(Y..Y))
 10000.000000   1188755   1189002   1188548   1186664   1183631  
  9990.000000   1180245   1177000   1173883   1170983   1168300  
  9980.000000   1165650   1162502   1158404   1153087   1146672  
  9970.000000   1139839   1133759   1129950   1129719   1133919  
  9960.000000   1142574   1154933   1169621   1184893   1198986  
  9950.000000   1210281   1217574   1220092   1217685   1210809  
  9940.000000   1200636   1188906   1177708   1169030   1164260  
  9930.000000   1163808   1166945   1172110   1177292   1180780  
  9920.000000   1181420   1179026   1174105   1167750   1161228  
  9910.000000   1155782   1152463   1151966   1154528   1159752  
  9900.000000   1166563   1173314   1178152   1179493   1176613  
  9890.000000   1169858   1160717   1151215   1143329   1138150  
  9880.000000   1135639   1134701   1133872   1132053   1129124  
  9870.000000   1126070   1124535   1126129   1131593   1140475  
  9860.000000   1151167   1161543   1169706   1174651   1176510  
  9850.000000   1176339   1175567   1175402   1176416   1178460  
  9840.000000   1180893   1182844   1183570   1182512   1179367  
  9830.000000   1174028   1166543   1157266   1146847   1136411  
  9820.000000   1127346   1121122   1118821   1120813   1126521  
  9810.000000   1134558   1143033   1150133   1154535   1155761  
  9800.000000   1154165   1150722   1146711   1143276   1141249  
  9790.000000   1140890   1142010   1143963   1145887   1146846  
  9780.000000   1146028   1142972   1137695   1130793   1123347  
  9770.000000   1116680   1112017   1110109   1110983   1113930  
  9760.000000   1117675   1120862   1122472   1122261   1120797  
  9750.000000   1119269   1118991   1120840   1124885   1130222  
  9740.000000   1135329   1138480   1138456   1134860   1128332  
  9730.000000   1120237   1112265   1105876   1101945   1100626  
  9720.000000   1101464   1103696   1106499   1109275   1111634  
  9710.000000   1113496   1114909   1116120   1117454   1119306  
  9700.000000   1122038   1125754   1130213   1134653   1137991  
  9690.000000   1139041   1136996   1131739   1124039   1115359  
  9680.000000   1107447   1101763   1099024   1099046   1100880  
  9670.000000   1103295   1105178   1106006   1105812   1105198  
  9660.000000   1104883   1105515   1107387   1110406   1114216  
  9650.000000   1118205   1121760   1124141   1124719   1122925  
  9640.000000   1118520   1111713   1103232   1094329   1086423  
  9630.000000   1080887   1078577   1079758   1084005   1090443  
  9620.000000   1097935   1105334   1111599   1115839   1117362  
  9610.000000   1115702   1110834   1103227   1094014   1084743  
  9600.000000   1077152   1072624   1071811   1074403   1079193  
  9590.000000   1084542   1088863   1091196   1091383   1090020  
  9580.000000   1088077   1086458   1085720   1085908   1086751  
  9570.000000   1087804   1088762   1089493   1090065   1090617  
  9560.000000   1091222   1091877   1092460   1092888   1093132  
  9550.000000   1093276   1093465   1093794   1094257   1094698  
  9540.000000   1094872   1094543   1093566   1091941   1089821  
  9530.000000   1087446   1085149   1083259   1082093   1081852  
  9520.000000   1082537   1083907   1085482   1086729   1087228  
  9510.000000   1086937   1086198   1085738   1086313   1088497  
  9500.000000   1092306   1097181   1102096   1105879   1107656  
  9490.000000   1107041   1104285   1099960   1094734   1089020  
  9480.000000   1082947   1076470   1069617   1062738   1056514  
  9470.000000   1051899   1049747   1050583   1054285   1060167  
  9460.000000   1067087   1073808   1079280   1082812   1084174  
  9450.000000   1083452   1081032   1077414   1073244   1069186  
  9440.000000   1065890   1063816   1063098   1063480   1064355  
  9430.000000   1065006   1064815   1063529   1061293   1058594  
  9420.000000   1056023   1054015   1052681   1051778   1050906  
  9410.000000   1049739   1048252   1046762   1045790   1045839  
  9400.000000   1047135   1049535   1052530   1055424   1057563  
  9390.000000   1058509   1058182   1056757   1054632   1052204  
  9380.000000   1049840   1047776   1046129   1044919   1044085  
  9370.000000   1043575   1043336   1043407   1043850   1044798  
  9360.000000   1046339   1048506   1051143   1053888   1056209  
  9350.000000   1057516   1057390   1055685   1052643   1048765  
  9340.000000   1044704   1041034   1038109   1035995   1034484  
  9330.000000   1033286   1032129   1030944   1029807   1028924  
  9320.000000   1028503   1028680   1029469   1030700   1032059  
  9310.000000   1033106   1033422   1032669   1030732   1027741  
  9300.000000   1024142   1020614   1017945   1016778   1017396  
  9290.000000   1019592   1022719   1025891   1028220   1029121  
  9280.000000   1028427   1026505   1024042   1021850   1020533  
  9270.000000   1020361   1021239   1022776   1024423   1025567  
  9260.000000   1025681   1024396   1021572   1017302   1011903  
  9250.000000   1005896   0999954   0994777   0990949   0988767  
  9240.000000   0988190   0988866   0990263   0991827   0993114  
  9230.000000   0993922   0994296   0994450   0994658   0995114  
  9220.000000   0995947   0997138   0998613   1000173   1001604  
  9210.000000   1002650   1003125   1002916   1002059   1000757  
  9200.000000   0999381   0998376   0998114   0998775   1000273  
  9190.000000   1002284   1004340   1006008   1007032   1007431  
  9180.000000   1007451   1007461   1007776   1008542   1009680  
  9170.000000   1010934   1011993   1012609   1012705   1012375  
  9160.000000   1011828   1011281   1010865   1010592   1010350  
  9150.000000   1009979   1009326   1008370   1007225   1006141  
  9140.000000   1005398   1005241   1005791   1006992   1008608  
  9130.000000   1010245   1011492   1011982   1011532   1010150  
  9120.000000   1008060   1005670   1003468   1001928   1001365  
  9110.000000   1001938   1003610   1006191   1009336   1012635  
  9100.000000   1015657   1018008   1019334   1019402   1018148  
  9090.000000   1015709   1012435   1008816   1005432   1002766  
  9080.000000   1001109   1000450   1000507   1000811   1000854  
  9070.000000   1000275   0998978   0997190   0995365   0994056  
  9060.000000   0993708   0994543   0996486   0999214   1002295  
  9050.000000   1005291   1007910   1010003   1011560   1012614  
  9040.000000   1013160   1013133   1012438   1011057   1009142  
  9030.000000   1007032   1005202   1004117   1004064   1005032  
  9020.000000   1006656   1008348   1009463   1009527   1008373  
  9010.000000   1006217   1003578   1001116   0999414   0998816  
  9000.000000   0999367   1000837   1002831   1004892   1006623  
  8990.000000   1007750   1008158   1007870   1007026   1005834  
  8980.000000   1004546   1003387   1002538   1002067   1001962  
  8970.000000   1002123   1002432   1002794   1003174   1003615  
  8960.000000   1004177   1004907   1005787   1006730   1007634  
  8950.000000   1008401   1009017   1009516   1009990   1010500  
  8940.000000   1011041   1011524   1011816   1011819   1011539  
  8930.000000   1011132   1010857   1011007   1011767   1013159  
  8920.000000   1014993   1016948   1018656   1019837   1020371  
  8910.000000   1020324   1019888   1019304   1018766   1018378  
  8900.000000   1018145   1018011   1017895   1017730   1017471  
  8890.000000   1017106   1016623   1016034   1015340   1014582  
  8880.000000   1013811   1013121   1012598   1012323   1012329  
  8870.000000   1012611   1013118   1013759   1014420   1014950  
  8860.000000   1015204   1015020   1014287   1012951   1011093  
  8850.000000   1008898   1006668   1004728   1003383   1002814  
  8840.000000   1003065   1004027   1005521   1007321   1009251  
  8830.000000   1011166   1013005   1014724   1016316   1017768  
  8820.000000   1019122   1020460   1021946   1023771   1026124  
  8810.000000   1029100   1032652   1036579   1040566   1044273  
  8800.000000   1047405   1049807   1051459   1052476   1053035  
  8790.000000   1053328   1053508   1053686   1053940   1054315  
  8780.000000   1054828   1055451   1056094   1056621   1056864  
  8770.000000   1056711   1056155   1055356   1054611   1054294  
  8760.000000   1054727   1056069   1058249   1060982   1063878  
  8750.000000   1066562   1068792   1070517   1071847   1072979  
  8740.000000   1074079   1075222   1076382   1077476   1078454  
  8730.000000   1079326   1080180   1081108   1082145   1083211  
  8720.000000   1084116   1084644   1084646   1084148   1083370  
  8710.000000   1082684   1082476   1083032   1084419   1086490  
  8700.000000   1088937   1091419   1093671   1095557   1097082  
  8690.000000   1098304   1099304   1100098   1100674   1100996  
  8680.000000   1101087   1101026   1100977   1101115   1101599  
  8670.000000   1102522   1103893   1105667   1107736   1109998  
  8660.000000   1112334   1114643   1116823   1118800   1120560  
  8650.000000   1122143   1123653   1125176   1126744   1128254  
  8640.000000   1129493   1130190   1130158   1129400   1128184  
  8630.000000   1126988   1126363   1126745   1128276   1130747  
  8620.000000   1133662   1136423   1138562   1139903   1140606  
  8610.000000   1141081   1141799   1143115   1145140   1147739  
  8600.000000   1150618   1153463   1156052   1158302   1160233  
  8590.000000   1161915   1163390   1164654   1165672   1166416  
  8580.000000   1166926   1167271   1167551   1167806   1168029  
  8570.000000   1168152   1168105   1167895   1167639   1167566  
  8560.000000   1167928   1168948   1170722   1173216   1176257  
  8550.000000   1179628   1183111   1186528   1189731   1192575  
  8540.000000   1194929   1196654   1197667   1197962   1197680  
  8530.000000   1197055   1196373   1195879   1195721   1195932  
  8520.000000   1196435   1197149   1198022   1199105   1200493  
  8510.000000   1202295   1204540   1207136   1209867   1212438  
  8500.000000   1214583   1216121   1217035   1217448   1217608  
  8490.000000   1217793   1218258   1219165   1220567   1222404  
  8480.000000   1224517   1226698   1228728   1230443   1231749  
  8470.000000   1232675   1233336   1233923   1234623   1235568  
  8460.000000   1236802   1238254   1239784   1241213   1242399  
  8450.000000   1243254   1243763   1243975   1243986   1243916  
  8440.000000   1243885   1244014   1244410   1245167   1246325  
  8430.000000   1247879   1249749   1251816   1253920   1255917  
  8420.000000   1257689   1259178   1260379   1261325   1262071  
  8410.000000   1262674   1263187   1263644   1264052   1264397  
  8400.000000   1264639   1264736   1264649   1264393   1264016  
  8390.000000   1263633   1263351   1263269   1263406   1263719  
  8380.000000   1264091   1264402   1264562   1264559   1264428  
  8370.000000   1264237   1264013   1263737   1263329   1262707  
  8360.000000   1261839   1260793   1259722   1258806   1258159  
  8350.000000   1257765   1257460   1256990   1256115   1254715  
  8340.000000   1252861   1250791   1248822   1247227   1246145  
  8330.000000   1245545   1245279   1245165   1245088   1245026  
  8320.000000   1245051   1245234   1245593   1246039   1246415  
  8310.000000   1246561   1246412   1246034   1245619   1245404  
  8300.000000   1245585   1246238   1247285   1248543   1249774  
  8290.000000   1250785   1251445   1251706   1251564   1251033  
  8280.000000   1250138   1248910   1247416   1245753   1244038  
  8270.000000   1242374   1240796   1239289   1237784   1236264  
  8260.000000   1234770   1233466   1232548   1232201   1232474  
  8250.000000   1233233   1234160   1234826   1234851   1234001  
  8240.000000   1232295   1229956   1227345   1224827   1222673  
  8230.000000   1221014   1219836   1219069   1218613   1218428  
  8220.000000   1218475   1218745   1219161   1219610   1219913  
  8210.000000   1219884   1219368   1218251   1216507   1214141  
  8200.000000   1211225   1207847   1204147   1200304   1196546  
  8190.000000   1193136   1190312   1188269   1187071   1186671  
  8180.000000   1186886   1187479   1188185   1188785   1189133  
  8170.000000   1189151   1188835   1188198   1187282   1186112  
  8160.000000   1184716   1183119   1181361   1179502   1177620  
  8150.000000   1175814   1174176   1172782   1171652   1170738  
  8140.000000   1169918   1169014   1167843   1166261   1164229  
  8130.000000   1161820   1159222   1156683   1154460   1152749  
  8120.000000   1151662   1151210   1151322   1151875   1152716  
  8110.000000   1153684   1154608   1155328   1155706   1155650  
  8100.000000   1155146   1154251   1153102   1151854   1150642  
  8090.000000   1149529   1148487   1147427   1146238   1144861  
  8080.000000   1143306   1141666   1140065   1138613   1137351  
  8070.000000   1136241   1135191   1134098   1132910   1131647  
  8060.000000   1130405   1129311   1128476   1127951   1127708  
  8050.000000   1127663   1127708   1127749   1127738   1127662  
  8040.000000   1127537   1127374   1127171   1126897   1126516  
  8030.000000   1125982   1125277   1124388   1123334   1122137  
  8020.000000   1120841   1119497   1118174   1116960   1115937  
  8010.000000   1115186   1114752   1114653   1114860   1115323  
  8000.000000   1115966   1116706   1117454   1118113   1118585  
  7990.000000   1118771   1118604   1118055   1117167   1116045  
  7980.000000   1114847   1113740   1112861   1112277   1111964  
  7970.000000   1111814   1111668   1111364   1110774   1109848  
  7960.000000   1108620   1107207   1105784   1104537   1103635  
  7950.000000   1103173   1103166   1103532   1104127   1104770  
  7940.000000   1105306   1105635   1105740   1105679   1105554  
  7930.000000   1105468   1105493   1105642   1105893   1106192  
  7920.000000   1106500   1106790   1107062   1107318   1107545  
  7910.000000   1107713   1107782   1107730   1107578   1107391  
  7900.000000   1107267   1107291   1107501   1107853   1108234  
  7890.000000   1108496   1108511   1108226   1107680   1107005  
  7880.000000   1106366   1105919   1105758   1105901   1106300  
  7870.000000   1106867   1107506   1108124   1108641   1108977  
  7860.000000   1109061   1108844   1108324   1107570   1106730  
  7850.000000   1106002   1105582   1105601   1106079   1106907  
  7840.000000   1107881   1108767   1109360   1109554   1109348  
  7830.000000   1108832   1108148   1107441   1106828   1106381  
  7820.000000   1106136   1106094   1106230   1106495   1106811  
  7810.000000   1107095   1107256   1107248   1107068   1106783  
  7800.000000   1106491   1106296   1106257   1106358   1106511  
  7790.000000   1106572   1106399   1105892   1105028   1103863  
  7780.000000   1102511   1101112   1099796   1098670   1097801  
  7770.000000   1097228   1096957   1096968   1097206   1097583  
  7760.000000   1097987   1098298   1098414   1098274   1097871  
  7750.000000   1097239   1096452   1095588   1094726   1093931  
  7740.000000   1093260   1092764   1092487   1092451   1092645  
  7730.000000   1093006   1093426   1093769   1093902   1093731  
  7720.000000   1093233   1092455   1091510   1090541   1089689  
  7710.000000   1089066   1088729   1088688   1088899   1089288  
  7700.000000   1089752   1090189   1090502   1090627   1090540  
  7690.000000   1090256   1089824   1089295   1088714   1088087  
  7680.000000   1087402   1086633   1085778   1084873   1084000  
  7670.000000   1083271   1082784   1082600   1082707   1083029  
  7660.000000   1083447   1083839   1084124   1084272   1084313  
  7650.000000   1084297   1084285   1084297   1084327   1084336  
  7640.000000   1084287   1084161   1083975   1083785   1083668  
  7630.000000   1083707   1083958   1084441   1085122   1085922  
  7620.000000   1086732   1087433   1087930   1088162   1088137  
  7610.000000   1087906   1087571   1087232   1086974   1086833  
  7600.000000   1086799   1086833   1086893   1086969   1087091  
  7590.000000   1087331   1087773   1088479   1089457   1090643  
  7580.000000   1091915   1093120   1094120   1094820   1095198  
  7570.000000   1095299   1095227   1095111   1095078   1095220  
  7560.000000   1095578   1096140   1096842   1097590   1098281  
  7550.000000   1098826   1099178   1099338   1099361   1099323  
  7540.000000   1099315   1099401   1099626   1099991   1100490  
  7530.000000   1101102   1101825   1102664   1103635   1104746  
  7520.000000   1105992   1107346   1108768   1110203   1111613  
  7510.000000   1112959   1114224   1115392   1116461   1117431  
  7500.000000   1118321   1119165   1120018   1120942   1121994  
  7490.000000   1123203   1124565   1126036   1127544   1129013  
  7480.000000   1130384   1131628   1132755   1133796   1134799  
  7470.000000   1135805   1136843   1137927   1139063   1140252  
  7460.000000   1141499   1142812   1144203   1145678   1147236  
  7450.000000   1148864   1150544   1152246   1153942   1155600  
  7440.000000   1157201   1158731   1160199   1161617   1163012  
  7430.000000   1164413   1165851   1167351   1168938   1170623  
  7420.000000   1172418   1174316   1176294   1178307   1180298  
  7410.000000   1182204   1183983   1185626   1187177   1188713  
  7400.000000   1190335   1192124   1194117   1196288   1198561  
  7390.000000   1200837   1203034   1205116   1207099   1209041  
  7380.000000   1211008   1213037   1215118   1217193   1219187  
  7370.000000   1221033   1222709   1224241   1225693   1227152  
  7360.000000   1228685   1230335   1232100   1233956   1235860  
  7350.000000   1237768   1239639   1241441   1243147   1244737  
  7340.000000   1246206   1247562   1248834   1250056   1251269  
  7330.000000   1252502   1253772   1255083   1256435   1257831  
  7320.000000   1259283   1260810   1262427   1264133   1265909  
  7310.000000   1267710   1269489   1271200   1272822   1274356  
  7300.000000   1275826   1277261   1278691   1280135   1281605  
  7290.000000   1283104   1284634   1286189   1287755   1289307  
  7280.000000   1290810   1292235   1293567   1294820   1296041  
  7270.000000   1297300   1298664   1300180   1301856   1303656  
  7260.000000   1305518   1307366   1309144   1310815   1312377  
  7250.000000   1313846   1315257   1316637   1318026   1319443  
  7240.000000   1320918   1322458   1324073   1325749   1327482  
  7230.000000   1329259   1331100   1333040   1335141   1337462  
  7220.000000   1340049   1342899   1345974   1349184   1352438  
  7210.000000   1355639   1358740   1361718   1364602   1367425  
  7200.000000   1370236   1373067   1375957   1378928   1382015  
  7190.000000   1385235   1388601   1392085   1395641   1399192  
  7180.000000   1402673   1406032   1409272   1412420   1415541  
  7170.000000   1418688   1421912   1425226   1428643   1432159  
  7160.000000   1435790   1439545   1443440   1447464   1451593  
  7150.000000   1455783   1460001   1464231   1468503   1472858  
  7140.000000   1477356   1482005   1486781   1491593   1496354  
  7130.000000   1500976   1505450   1509813   1514174   1518643  
  7120.000000   1523326   1528263   1533457   1538859   1544425  
  7110.000000   1550100   1555863   1561673   1567498   1573273  
  7100.000000   1578950   1584493   1589928   1595328   1600813  
  7090.000000   1606493   1612440   1618647   1625042   1631504  
  7080.000000   1637919   1644204   1650341   1656353   1662290  
  7070.000000   1668187   1674053   1679862   1685577   1691169  
  7060.000000   1696640   1702016   1707339   1712656   1717997  
  7050.000000   1723381   1728811   1734291   1739817   1745388  
  7040.000000   1750988   1756593   1762167   1767679   1773105  
  7030.000000   1778445   1783706   1788906   1794042   1799101  
  7020.000000   1804050   1808859   1813513   1818028   1822441  
  7010.000000   1826809   1831170   1835556   1839958   1844372  
  7000.000000   1848777   1853177   1857569   1861963   1866341  
  6990.000000   1870666   1874873   1878899   1882690   1886236  
  6980.000000   1889557   1892710   1895757   1898761   1901756  
  6970.000000   1904773   1907817   1910905   1914031   1917197  
  6960.000000   1920368   1923510   1926562   1929484   1932245  
  6950.000000   1934854   1937330   1939706   1941990   1944177  
  6940.000000   1946233   1948141   1949895   1951542   1953151  
  6930.000000   1954814   1956589   1958498   1960492   1962490  
  6920.000000   1964382   1966089   1967565   1968828   1969933  
  6910.000000   1970969   1972019   1973155   1974411   1975793  
  6900.000000   1977264   1978759   1980192   1981483   1982568  
  6890.000000   1983434   1984118   1984707   1985308   1986016  
  6880.000000   1986883   1987903   1989020   1990153   1991228  
  6870.000000   1992208   1993099   1993944   1994790   1995676  
  6860.000000   1996607   1997571   1998532   1999466   2000359  
  6850.000000   2001212   2002033   2002826   2003581   2004284  
  6840.000000   2004910   2005448   2005890   2006241   2006507  
  6830.000000   2006697   2006816   2006877   2006898   2006914  
  6820.000000   2006963   2007088   2007312   2007640   2008050  
  6810.000000   2008510   2008981   2009438   2009864   2010256  
  6800.000000   2010616   2010948   2011252   2011526   2011770  
  6790.000000   2011987   2012173   2012322   2012415   2012430  
  6780.000000   2012346   2012162   2011895   2011588   2011289  
  6770.000000   2011036   2010839   2010676   2010506   2010280  
  6760.000000   2009977   2009604   2009205   2008839   2008565  
  6750.000000   2008421   2008419   2008552   2008803   2009156  
  6740.000000   2009605   2010141   2010749   2011397   2012043  
  6730.000000   2012633   2013127   2013500   2013755   2013910  
  6720.000000   2013994   2014033   2014044   2014040   2014028  
  6710.000000   2014028   2014057   2014141   2014293   2014517  
  6700.000000   2014794   2015098   2015385   2015617   2015753  
  6690.000000   2015764   2015624   2015328   2014885   2014331  
  6680.000000   2013716   2013106   2012552   2012088   2011704  
  6670.000000   2011363   2011002   2010569   2010025   2009375  
  6660.000000   2008646   2007886   2007129   2006399   2005688  
  6650.000000   2004979   2004245   2003475   2002663   2001816  
  6640.000000   2000935   2000017   1999051   1998029   1996950  
  6630.000000   1995832   1994703   1993599   1992539   1991532  
  6620.000000   1990557   1989587   1988589   1987544   1986447  
  6610.000000   1985310   1984149   1982983   1981819   1980662  
  6600.000000   1979508   1978353   1977192   1976016   1974812  
  6590.000000   1973564   1972251   1970858   1969379   1967822  
  6580.000000   1966209   1964573   1962945   1961363   1959851  
  6570.000000   1958433   1957115   1955898   1954759   1953665  
  6560.000000   1952568   1951419   1950179   1948830   1947382  
  6550.000000   1945862   1944314   1942772   1941262   1939790  
  6540.000000   1938352   1936940   1935553   1934192   1932864  
  6530.000000   1931568   1930295   1929033   1927768   1926501  
  6520.000000   1925248   1924036   1922895   1921842   1920870  
  6510.000000   1919948   1919029   1918070   1917040   1915935  
  6500.000000   1914769   1913568   1912354   1911143   1909937  
  6490.000000   1908737   1907539   1906348   1905164   1903988  
  6480.000000   1902807   1901604   1900353   1899038   1897653  
  6470.000000   1896213   1894740   1893265   1891812   1890394  
  6460.000000   1889018   1887679   1886372   1885088   1883818  
  6450.000000   1882549   1881269   1879967   1878643   1877309  
  6440.000000   1875994   1874729   1873545   1872453   1871452  
  6430.000000   1870516   1869621   1868741   1867871   1867010  
  6420.000000   1866172   1865359   1864577   1863822   1863098  
  6410.000000   1862413   1861791   1861253   1860820   1860486  
  6400.000000   1860235   1860032   1859847   1859665   1859492  
  6390.000000   1859341   1859228   1859146   1859070   1858956  
  6380.000000   1858769   1858496   1858160   1857813   1857515  
  6370.000000   1857309   1857195   1857136   1857061   1856903  
  6360.000000   1856619   1856204   1855686   1855118   1854544  
  6350.000000   1853996   1853486   1853015   1852581   1852183  
  6340.000000   1851817   1851471   1851113   1850705   1850204  
  6330.000000   1849590   1848869   1848081   1847280   1846519  
  6320.000000   1845821   1845177   1844541   1843861   1843089  
  6310.000000   1842211   1841233   1840188   1839106   1838014  
  6300.000000   1836920   1835824   1834723   1833621   1832519  
  6290.000000   1831422   1830321   1829203   1828047   1826842  
  6280.000000   1825588   1824304   1823015   1821745   1820498  
  6270.000000   1819263   1818012   1816725   1815391   1814027  
  6260.000000   1812659   1811319   1810019   1808753   1807491  
  6250.000000   1806200   1804854   1803452   1802009   1800551  
  6240.000000   1799095   1797644   1796183   1794690   1793152  
  6230.000000   1791575   1789985   1788417   1786903   1785458  
  6220.000000   1784077   1782741   1781426   1780117   1778817  
  6210.000000   1777536   1776294   1775102   1773964   1772875  
  6200.000000   1771824   1770798   1769791   1768790   1767789  
  6190.000000   1766773   1765733   1764666   1763585   1762517  
  6180.000000   1761498   1760564   1759739   1759024   1758401  
  6170.000000   1757835   1757287   1756722   1756113   1755444  
  6160.000000   1754703   1753885   1752987   1752016   1750985  
  6150.000000   1749921   1748854   1747810   1746801   1745821  
  6140.000000   1744847   1743850   1742802   1741685   1740503  
  6130.000000   1739272   1738021   1736782   1735590   1734475  
  6120.000000   1733466   1732581   1731832   1731212   1730705  
  6110.000000   1730272   1729877   1729478   1729049   1728574  
  6100.000000   1728058   1727509   1726947   1726386   1725850  
  6090.000000   1725353   1724920   1724566   1724306   1724132  
  6080.000000   1724031   1723967   1723908   1723822   1723704  
  6070.000000   1723559   1723424   1723332   1723326   1723425  
  6060.000000   1723647   1723982   1724428   1724963   1725586  
  6050.000000   1726278   1727042   1727865   1728757   1729715  
  6040.000000   1730764   1731912   1733186   1734590   1736137  
  6030.000000   1737809   1739601   1741487   1743462   1745507  
  6020.000000   1747628   1749814   1752069   1754376   1756734  
  6010.000000   1759121   1761534   1763952   1766380   1768803  
  6000.000000   1771236   1773683   1776181   1778757   1781469  
  5990.000000   1784349   1787436   1790726   1794211   1797849  
  5980.000000   1801611   1805460   1809398   1813425   1817575  
  5970.000000   1821856   1826290   1830857   1835549   1840322  
  5960.000000   1845161   1850026   1854908   1859779   1864636  
  5950.000000   1869460   1874265   1879061   1883889   1888790  
  5940.000000   1893808   1898969   1904278   1909720   1915260  
  5930.000000   1920863   1926492   1932125   1937731   1943277  
  5920.000000   1948709   1953971   1959000   1963753   1968215  
  5910.000000   1972404   1976357   1980128   1983753   1987269  
  5900.000000   1990692   1994056   1997389   2000754   2004193  
  5890.000000   2007762   2011456   2015255   2019080   2022857  
  5880.000000   2026495   2029939   2033150   2036121   2038851  
  5870.000000   2041354   2043637   2045723   2047644   2049455  
  5860.000000   2051213   2052981   2054794   2056673   2058611  
  5850.000000   2060599   2062622   2064691   2066816   2069018  
  5840.000000   2071296   2073634   2075997   2078341   2080636  
  5830.000000   2082870   2085054   2087207   2089352   2091492  
  5820.000000   2093623   2095732   2097818   2099894   2101985  
  5810.000000   2104122   2106315   2108559   2110814   2113048  
  5800.000000   2115219   2117343   2119430   2121544   2123704  
  5790.000000   2125932   2128167   2130339   2132305   2133946  
  5780.000000   2135118   2135733   2135707   2135025   2133693  
  5770.000000   2131789   2129412   2126723   2123873   2121024  
  5760.000000   2118273   2115696   2113285   2111030   2108885  
  5750.000000   2106841   2104892   2103065   2101380   2099850  
  5740.000000   2098465   2097194   2096000   2094840   2093693  
  5730.000000   2092538   2091376   2090199   2089011   2087805  
  5720.000000   2086593   2085385   2084206   2083070   2081992  
  5710.000000   2080965   2079974   2078997   2078023   2077054  
  5700.000000   2076104   2075197   2074344   2073548   2072786  
  5690.000000   2072036   2071265   2070468   2069635   2068783  
  5680.000000   2067905   2066998   2066021   2064932   2063672  
  5670.000000   2062199   2060471   2058478   2056212   2053688  
  5660.000000   2050921   2047953   2044830   2041622   2038396  
  5650.000000   2035226   2032161   2029236   2026458   2023827  
  5640.000000   2021333   2018968   2016726   2014598   2012570  
  5630.000000   2010615   2008709   2006822   2004948   2003085  
  5620.000000   2001258   1999485   1997791   1996177   1994646  
  5610.000000   1993186   1991796   1990472   1989221   1988041  
  5600.000000   1986927   1985857   1984811   1983768   1982728  
  5590.000000   1981704   1980723   1979808   1978969   1978187  
  5580.000000   1977429   1976649   1975816   1974915   1973962  
  5570.000000   1972986   1972021   1971090   1970199   1969335  
  5560.000000   1968474   1967594   1966673   1965697   1964656  
  5550.000000   1963545   1962361   1961113   1959817   1958503  
  5540.000000   1957199   1955930   1954704   1953515   1952346  
  5530.000000   1951184   1950023   1948879   1947774   1946730  
  5520.000000   1945754   1944831   1943923   1942990   1941998  
  5510.000000   1940931   1939794   1938608   1937393   1936160  
  5500.000000   1934910   1933636   1932334   1931011   1929681  
  5490.000000   1928366   1927074   1925806   1924542   1923262  
  5480.000000   1921941   1920572   1919159   1917713   1916246  
  5470.000000   1914762   1913256   1911720   1910146   1908535  
  5460.000000   1906892   1905226   1903539   1901826   1900082  
  5450.000000   1898303   1896497   1894687   1892902   1891167  
  5440.000000   1889495   1887881   1886311   1884772   1883266  
  5430.000000   1881807   1880420   1879116   1877896   1876731  
  5420.000000   1875592   1874446   1873297   1872163   1871103  
  5410.000000   1870161   1869380   1868750   1868253   1867838  
  5400.000000   1867487   1867181   1866954   1866830   1866859  
  5390.000000   1867050   1867415   1867930   1868595   1869396  
  5380.000000   1870361   1871492   1872817   1874313   1875978  
  5370.000000   1877757   1879643   1881596   1883643   1885771  
  5360.000000   1888031   1890411   1892968   1895696   1898673  
  5350.000000   1901920   1905541   1909561   1914067   1919034  
  5340.000000   1924497   1930387   1936727   1943451   1950607  
  5330.000000   1958142   1966114   1974465   1983253   1992427  
  5320.000000   2002079   2012200   2022924   2034255   2046325  
  5310.000000   2059100   2072659   2086921   2101939   2117637  
  5300.000000   2134093   2151271   2169285   2188118   2207874  
  5290.000000   2228499   2250020   2272297   2295263   2318730  
  5280.000000   2342633   2366862   2391473   2416493   2442064  
  5270.000000   2468234   2495044   2522386   2550100   2577960  
  5260.000000   2605773   2633428   2660902   2688262   2715564  
  5250.000000   2742855   2770047   2797026   2823557   2849504  
  5240.000000   2874699   2899173   2922923   2946108   2968762  
  5230.000000   2991000   3012750   3034002   3054583   3074451  
  5220.000000   3093470   3111698   3129118   3145899   3162083  
  5210.000000   3177832   3193115   3207976   3222263   3235940  
  5200.000000   3248844   3261006   3272363   3283044   3293044  
  5190.000000   3302488   3311325   3319607   3327234   3334242  
  5180.000000   3340555   3346250   3351288   3355758   3359608  
  5170.000000   3362898   3365561   3367663   3369165   3370165  
  5160.000000   3370653   3370723   3370343   3369565   3368328  
  5150.000000   3366669   3364537   3361988   3358998   3355635  
  5140.000000   3351892   3347845   3343505   3338962   3334242  
  5130.000000   3329425   3324514   3319536   3314447   3309233  
  5120.000000   3303850   3298307   3292608   3286807   3280936  
  5110.000000   3275044   3269142   3263248   3257358   3251487  
  5100.000000   3245649   3239872   3234171   3228557   3223011  
  5090.000000   3217513   3212026   3206535   3201031   3195527  
  5080.000000   3190036   3184574   3179138   3173717   3168285  
  5070.000000   3162824   3157311   3151742   3146107   3140406  
  5060.000000   3134625   3128756   3122786   3116717   3110552  
  5050.000000   3104315   3098023   3091707   3085378   3079054  
  5040.000000   3072740   3066445   3060170   3053919   3047688  
  5030.000000   3041467   3035240   3028993   3022721   3016432  
  5020.000000   3010151   3003906   2997736   2991660   2985698  
  5010.000000   2979843   2974099   2968453   2962918   2957495  
  5000.000000   2952215   2947087   2942140   2937370   2932796  
  4990.000000   2928400   2924198   2920169   2916332   2912663  
  4980.000000   2909186   2905878   2902772   2899854   2897169  
  4970.000000   2894708   2892518   2890578   2888920   2887511  
  4960.000000   2886377   2885489   2884892   2884572   2884588  
  4950.000000   2884929   2885646   2886710   2888158   2889949  
  4940.000000   2892124   2894647   2897569   2900862   2904572  
  4930.000000   2908659   2913159   2918024   2923286   2928904  
  4920.000000   2934918   2941298   2948089   2955261   2962853  
  4910.000000   2970833   2979224   2987988   2997120   3006564  
  4900.000000   3016283   3026205   3036278   3046444   3056660  
  4890.000000   3066899   3077123   3087309   3097390   3107321  
  4880.000000   3116995   3126352   3135273   3143714   3151564  
  4870.000000   3158806   3165341   3171171   3176216   3180510  
  4860.000000   3184008   3186783   3188821   3190214   3190957  
  4850.000000   3191136   3190747   3189875   3188528   3186802  
  4840.000000   3184729   3182409   3179887   3177257   3174564  
  4830.000000   3171893   3169285   3166802   3164471   3162317  
  4820.000000   3160335   3158514   3156837   3155283   3153851  
  4810.000000   3152536   3151361   3150327   3149461   3148752  
  4800.000000   3148212   3147821   3147584   3147480   3147518  
  4790.000000   3147680   3147973   3148378   3148898   3149514  
  4780.000000   3150229   3151026   3151906   3152846   3153836  
  4770.000000   3154847   3155867   3156875   3157874   3158864  
  4760.000000   3159858   3160863   3161887   3162928   3163988  
  4750.000000   3165066   3166172   3167320   3168523   3169786  
  4740.000000   3171100   3172440   3173774   3175065   3176291  
  4730.000000   3177444   3178538   3179591   3180636   3181688  
  4720.000000   3182765   3183862   3184987   3186133   3187322  
  4710.000000   3188562   3189891   3191326   3192910   3194655  
  4700.000000   3196602   3198762   3201173   3203845   3206807  
  4690.000000   3210060   3213614   3217450   3221559   3225902  
  4680.000000   3230451   3235142   3239928   3244727   3249485  
  4670.000000   3254126   3258624   3262949   3267125   3271173  
  4660.000000   3275152   3279110   3283111   3287202   3291431  
  4650.000000   3295833   3300431   3305237   3310238   3315412  
  4640.000000   3320713   3326101   3331522   3336950   3342349  
  4630.000000   3347715   3353021   3358260   3363387   3368368  
  4620.000000   3373129   3377620   3381764   3385526   3388855  
  4610.000000   3391756   3394219   3396295   3398008   3399436  
  4600.000000   3400614   3401620   3402469   3403215   3403841  
  4590.000000   3404366   3404744   3404967   3404976   3404754  
  4580.000000   3404251   3403466   3402382   3401031   3399437  
  4570.000000   3397661   3395746   3393755   3391714   3389659  
  4560.000000   3387587   3385506   3383397   3381259   3379078  
  4550.000000   3376859   3374602   3372322   3370029   3367742  
  4540.000000   3365476   3363245   3361057   3358909   3356794  
  4530.000000   3354693   3352592   3350466   3348316   3346129  
  4520.000000   3343929   3341718   3339536   3337388   3335326  
  4510.000000   3333355   3331544   3329904   3328520   3327407  
  4500.000000   3326654   3326263   3326321   3326821   3327852  
  4490.000000   3329412   3331606   3334433   3337995   3342269  
  4480.000000   3347334   3353133   3359720   3367024   3375096  
  4470.000000   3383865   3393378   3403555   3414421   3425877  
  4460.000000   3437925   3450464   3463493   3476927   3490766  
  4450.000000   3504936   3519428   3534170   3549144   3564296  
  4440.000000   3579611   3595059   3610620   3626262   3641926  
  4430.000000   3657553   3673040   3688316   3703276   3717882  
  4420.000000   3732061   3745823   3759122   3771981   3784342  
  4410.000000   3796200   3807466   3818119   3828069   3837327  
  4400.000000   3845863   3853760   3861069   3867938   3874459  
  4390.000000   3880787   3886999   3893208   3899440   3905751  
  4380.000000   3912119   3918563   3925048   3931584   3938152  
  4370.000000   3944774   3951440   3958168   3964932   3971721  
  4360.000000   3978474   3985164   3991715   3998124   4004317  
  4350.000000   4010322   4016056   4021557   4026729   4031618  
  4340.000000   4036137   4040323   4044056   4047262   4049654  
  4330.000000   4050931   4050627   4048347   4043749   4036762  
  4320.000000   4027564   4016667   4004764   3992670   3981105  
  4310.000000   3970637   3961564   3953974   3947759   3942736  
  4300.000000   3938709   3935512   3933058   3931262   3930107  
  4290.000000   3929520   3929492   3929950   3930911   3932345  
  4280.000000   3934286   3936713   3939608   3942899   3946478  
  4270.000000   3950222   3953974   3957580   3960832   3963512  
  4260.000000   3965335   3966025   3965308   3963020   3959114  
  4250.000000   3953741   3947180   3939864   3932227   3924720  
  4240.000000   3917648   3911242   3905544   3900537   3896089  
  4230.000000   3892071   3888323   3884724   3881174   3877602  
  4220.000000   3873991   3870329   3866680   3863085   3859665  
  4210.000000   3856486   3853665   3851241   3849272   3847740  
  4200.000000   3846638   3845901   3845495   3845347   3845432  
  4190.000000   3845693   3846128   3846692   3847396   3848192  
  4180.000000   3849094   3850058   3851113   3852239   3853500  
  4170.000000   3854915   3856583   3858542   3860885   3863633  
  4160.000000   3866847   3870508   3874644   3879211   3884224  
  4150.000000   3889633   3895452   3901628   3908179   3915054  
  4140.000000   3922281   3929813   3937687   3945852   3954338  
  4130.000000   3963081   3972097   3981326   3990802   4000502  
  4120.000000   4010509   4020851   4031642   4042929   4054808  
  4110.000000   4067292   4080418   4094139   4108426   4123181  
  4100.000000   4138335   4153779   4169448   4185269   4201212  
  4090.000000   4217247   4233362   4249537   4265737   4281930  
  4080.000000   4298055   4314087   4329966   4345689   4361187  
  4070.000000   4376446   4391358   4405877   4419867   4433295  
  4060.000000   4446051   4458159   4469556   4480304   4490359  
  4050.000000   4499800   4508597   4516848   4524532   4531748  
  4040.000000   4538446   4544678   4550345   4555472   4559970  
  4030.000000   4563903   4567248   4570113   4572502   4574499  
  4020.000000   4576059   4577231   4577997   4578408   4578432  
  4010.000000   4578162   4577645   4576875   4575673   4574044  
  4000.000000   4572192  
##END= 
