##TITLE= Sample 041 By ssteindl date Dienstag, November 20 2018
##JCAMP-DX= 4.24
##DATA TYPE= INFRARED SPECTRUM
##ORIGIN= Exported PE Spectrum Data File
##OWNER= Sandra Steindl
##DATE= 18/11/20
##TIME= 15:33:29.00
##SPECTROMETER/DATA SYSTEM= PERKIN-ELMER Frontier FT-IR/NIR IR
##INSTRUMENT PARAMETERS=
  APODIZATION=stark
  DETECTOR=INGAAS
##RESOLUTION= 16.000000
##DELTAX= -2.000000
##XUNITS= 1/CM
##YUNITS= A
##XFACTOR= 1.00
##YFACTOR= 0.00000011920928955078
##FIRSTX= 10000.00
##LASTX= 4000.00
##NPOINTS= 3001
##FIRSTY= 0.193774
##MAXY= 0.590290
##MINY= 0.169228
##XYDATA= (X++(Y..Y))
 10000.000000   1625495   1626882   1628621   1630837   1632838  
  9990.000000   1633666   1632967   1630968   1627993   1624126  
  9980.000000   1619249   1613108   1605470   1596521   1587127  
  9970.000000   1578794   1573158   1571458   1573967   1579845  
  9960.000000   1587362   1594482   1599554   1601743   1601248  
  9950.000000   1598946   1596039   1593463   1591737   1590896  
  9940.000000   1590779   1591244   1592289   1594032   1596495  
  9930.000000   1599545   1602788   1605769   1608081   1609550  
  9920.000000   1610216   1610192   1609509   1607975   1605262  
  9910.000000   1601120   1595645   1589463   1583626   1579329  
  9900.000000   1577446   1578179   1580942   1584543   1587624  
  9890.000000   1589092   1588463   1585921   1582157   1578076  
  9880.000000   1574507   1572059   1571118   1571894   1574496  
  9870.000000   1578843   1584598   1591052   1597154   1601733  
  9860.000000   1603782   1602855   1599239   1593957   1588472  
  9850.000000   1584227   1582214   1582688   1585116   1588426  
  9840.000000   1591301   1592644   1591779   1588667   1583784  
  9830.000000   1578018   1572368   1567724   1564634   1563164  
  9820.000000   1562932   1563171   1563041   1561824   1559217  
  9810.000000   1555403   1551000   1546864   1543757   1542141  
  9800.000000   1542006   1542998   1544586   1546317   1547996  
  9790.000000   1549659   1551515   1553653   1555959   1557934  
  9780.000000   1558895   1558087   1555063   1549840   1543039  
  9770.000000   1535784   1529439   1525345   1524413   1526996  
  9760.000000   1532701   1540543   1549122   1556958   1562799  
  9750.000000   1565839   1565852   1563140   1558440   1552697  
  9740.000000   1546914   1541939   1538437   1536769   1537009  
  9730.000000   1538916   1541928   1545290   1548118   1549696  
  9720.000000   1549581   1547826   1544918   1541681   1539033  
  9710.000000   1537686   1538004   1539855   1542750   1545966  
  9700.000000   1548772   1550591   1551065   1550128   1547942  
  9690.000000   1544920   1541648   1538826   1537134   1537033  
  9680.000000   1538600   1541418   1544650   1547275   1548392  
  9670.000000   1547552   1544856   1540980   1536866   1533493  
  9660.000000   1531496   1531071   1531937   1533531   1535216  
  9650.000000   1536464   1536934   1536417   1534776   1531886  
  9640.000000   1527673   1522207   1515788   1508953   1502416  
  9630.000000   1496889   1492957   1490907   1490707   1492012  
  9620.000000   1494260   1496788   1498946   1500206   1500258  
  9610.000000   1499083   1497026   1494733   1493059   1492791  
  9600.000000   1494416   1497872   1502531   1507338   1511155  
  9590.000000   1513135   1512965   1510954   1507821   1504423  
  9580.000000   1501427   1499142   1497557   1496427   1495531  
  9570.000000   1494708   1493935   1493193   1492386   1491327  
  9560.000000   1489784   1487703   1485308   1483197   1482185  
  9550.000000   1483037   1486167   1491406   1498035   1504947  
  9540.000000   1510994   1515269   1517320   1517183   1515293  
  9530.000000   1512322   1509000   1506013   1503893   1503002  
  9520.000000   1503435   1505022   1507275   1509517   1510984  
  9510.000000   1511092   1509557   1506511   1502404   1497845  
  9500.000000   1493426   1489535   1486381   1483984   1482325  
  9490.000000   1481381   1481138   1481558   1482499   1483754  
  9480.000000   1485079   1486324   1487484   1488710   1490221  
  9470.000000   1492135   1494368   1496568   1498267   1499028  
  9460.000000   1498691   1497404   1495586   1493723   1492147  
  9450.000000   1490943   1489919   1488808   1487412   1485809  
  9440.000000   1484309   1483361   1483290   1484118   1485500  
  9430.000000   1486834   1487517   1487134   1485634   1483266  
  9420.000000   1480481   1477737   1475367   1473565   1472406  
  9410.000000   1471967   1472340   1473622   1475824   1478774  
  9400.000000   1482086   1485187   1487457   1488364   1487651  
  9390.000000   1485378   1481956   1477997   1474194   1471161  
  9380.000000   1469313   1468841   1469636   1471397   1473647  
  9370.000000   1475915   1477800   1479077   1479678   1479655  
  9360.000000   1479103   1478062   1476514   1474370   1471604  
  9350.000000   1468331   1464881   1461761   1459486   1458434  
  9340.000000   1458646   1459850   1461517   1463071   1464081  
  9330.000000   1464351   1463960   1463067   1461876   1460438  
  9320.000000   1458776   1456844   1454719   1452594   1450810  
  9310.000000   1449762   1449744   1450925   1453238   1456559  
  9300.000000   1460671   1465448   1470717   1476261   1481663  
  9290.000000   1486326   1489585   1490843   1489835   1486626  
  9280.000000   1481675   1475583   1468967   1462287   1455792  
  9270.000000   1449656   1444013   1439195   1435620   1433806  
  9260.000000   1434064   1436374   1440263   1444912   1449378  
  9250.000000   1452756   1454429   1454099   1451902   1448274  
  9240.000000   1443921   1439648   1436323   1434726   1435387  
  9230.000000   1438386   1443207   1448838   1453975   1457397  
  9220.000000   1458298   1456531   1452687   1447839   1443217  
  9210.000000   1439717   1437714   1436987   1436967   1437023  
  9200.000000   1436731   1436085   1435414   1435270   1436075  
  9190.000000   1438024   1440947   1444416   1447870   1450748  
  9180.000000   1452682   1453466   1453131   1451809   1449746  
  9170.000000   1447215   1444506   1441880   1439537   1437627  
  9160.000000   1436248   1435502   1435460   1436215   1437770  
  9150.000000   1440064   1442863   1445799   1448412   1450286  
  9140.000000   1451194   1451140   1450363   1449204   1448004  
  9130.000000   1446949   1446036   1445115   1444035   1442753  
  9120.000000   1441376   1440134   1439224   1438739   1438562  
  9110.000000   1438449   1438137   1437489   1436599   1435734  
  9100.000000   1435237   1435312   1435934   1436813   1437532  
  9090.000000   1437735   1437315   1436489   1435712   1435519  
  9080.000000   1436283   1438090   1440675   1443557   1446201  
  9070.000000   1448194   1449341   1449654   1449277   1448366  
  9060.000000   1446999   1445187   1442923   1440272   1437410  
  9050.000000   1434633   1432287   1430656   1429850   1429780  
  9040.000000   1430165   1430609   1430702   1430133   1428816  
  9030.000000   1426863   1424593   1422423   1420798   1420063  
  9020.000000   1420354   1421596   1423527   1425802   1428088  
  9010.000000   1430153   1431929   1433453   1434805   1435954  
  9000.000000   1436758   1436917   1436152   1434268   1431342  
  8990.000000   1427745   1424114   1421193   1419585   1419644  
  8980.000000   1421332   1424319   1428046   1431949   1435578  
  8970.000000   1438668   1441097   1442823   1443819   1444021  
  8960.000000   1443370   1441867   1439708   1437240   1434936  
  8950.000000   1433227   1432375   1432367   1432874   1433400  
  8940.000000   1433426   1432663   1431145   1429245   1427540  
  8930.000000   1426602   1426803   1428167   1430372   1432854  
  8920.000000   1435020   1436431   1436949   1436738   1436188  
  8910.000000   1435743   1435751   1436354   1437469   1438822  
  8900.000000   1440060   1440843   1440948   1440316   1439049  
  8890.000000   1437405   1435728   1434396   1433708   1433823  
  8880.000000   1434705   1436112   1437680   1438990   1439739  
  8870.000000   1439791   1439251   1438391   1437571   1437099  
  8860.000000   1437158   1437763   1438822   1440205   1441842  
  8850.000000   1443753   1446031   1448754   1451888   1455251  
  8840.000000   1458511   1461275   1463206   1464130   1464120  
  8830.000000   1463451   1462531   1461757   1461426   1461650  
  8820.000000   1462353   1463321   1464270   1464970   1465279  
  8810.000000   1465220   1464924   1464652   1464662   1465196  
  8800.000000   1466364   1468140   1470360   1472738   1474967  
  8790.000000   1476741   1477862   1478217   1477808   1476702  
  8780.000000   1475045   1473031   1470934   1469073   1467812  
  8770.000000   1467483   1468310   1470321   1473296   1476817  
  8760.000000   1480360   1483452   1485807   1487404   1488480  
  8750.000000   1489417   1490598   1492253   1494400   1496848  
  8740.000000   1499302   1501484   1503235   1504563   1505586  
  8730.000000   1506475   1507312   1508093   1508692   1508972  
  8720.000000   1508835   1508308   1507552   1506799   1506279  
  8710.000000   1506114   1506290   1506646   1506956   1506999  
  8700.000000   1506672   1506017   1505226   1504589   1504409  
  8690.000000   1504932   1506291   1508496   1511449   1514954  
  8680.000000   1518758   1522558   1526049   1528949   1531050  
  8670.000000   1532256   1532633   1532412   1531966   1531698  
  8660.000000   1531933   1532806   1534223   1535891   1537421  
  8650.000000   1538473   1538895   1538772   1538397   1538151  
  8640.000000   1538352   1539134   1540420   1541972   1543554  
  8630.000000   1545017   1546425   1547974   1549932   1552465  
  8620.000000   1555538   1558914   1562219   1565127   1567475  
  8610.000000   1569377   1571159   1573253   1575983   1579439  
  8600.000000   1583401   1587400   1590847   1593223   1594229  
  8590.000000   1593840   1592293   1589996   1587422   1585009  
  8580.000000   1583079   1581838   1581365   1581644   1582553  
  8570.000000   1583920   1585538   1587230   1588868   1590402  
  8560.000000   1591850   1593269   1594712   1596190   1597673  
  8550.000000   1599101   1600451   1601741   1603069   1604547  
  8540.000000   1606276   1608239   1610286   1612138   1613480  
  8530.000000   1614047   1613727   1612630   1611081   1609555  
  8520.000000   1608540   1608444   1609483   1611643   1614674  
  8510.000000   1618161   1621628   1624627   1626837   1628113  
  8500.000000   1628528   1628318   1627833   1627442   1627471  
  8490.000000   1628116   1629427   1631321   1633623   1636136  
  8480.000000   1638650   1641007   1643077   1644790   1646105  
  8470.000000   1647031   1647625   1647987   1648235   1648480  
  8460.000000   1648783   1649148   1649521   1649831   1650036  
  8450.000000   1650157   1650282   1650529   1650983   1651646  
  8440.000000   1652406   1653076   1653460   1653461   1653145  
  8430.000000   1652751   1652615   1653077   1654345   1656407  
  8420.000000   1659013   1661742   1664143   1665853   1666702  
  8410.000000   1666731   1666176   1665367   1664619   1664157  
  8400.000000   1664076   1664362   1664912   1665607   1666328  
  8390.000000   1667007   1667600   1668112   1668547   1668917  
  8380.000000   1669217   1669415   1669470   1669312   1668882  
  8370.000000   1668139   1667102   1665854   1664543   1663365  
  8360.000000   1662525   1662195   1662459   1663289   1664538  
  8350.000000   1665985   1667369   1668465   1669122   1669321  
  8340.000000   1669175   1668890   1668705   1668807   1669282  
  8330.000000   1670066   1670957   1671679   1671969   1671680  
  8320.000000   1670822   1669581   1668240   1667113   1666413  
  8310.000000   1666194   1666329   1666565   1666627   1666303  
  8300.000000   1665524   1664365   1663015   1661699   1660591  
  8290.000000   1659781   1659254   1658942   1658769   1658701  
  8280.000000   1658757   1658992   1659442   1660095   1660858  
  8270.000000   1661578   1662073   1662195   1661872   1661132  
  8260.000000   1660099   1658950   1657863   1656981   1656374  
  8250.000000   1656035   1655882   1655784   1655590   1655167  
  8240.000000   1654416   1653311   1651887   1650256   1648577  
  8230.000000   1647036   1645804   1644994   1644623   1644602  
  8220.000000   1644753   1644851   1644676   1644077   1643003  
  8210.000000   1641538   1639867   1638235   1636871   1635927  
  8200.000000   1635440   1635320   1635386   1635408   1635171  
  8190.000000   1634527   1633417   1631887   1630056   1628099  
  8180.000000   1626204   1624546   1623258   1622412   1622005  
  8170.000000   1621953   1622098   1622233   1622146   1621680  
  8160.000000   1620767   1619457   1617892   1616269   1614774  
  8150.000000   1613526   1612550   1611778   1611087   1610348  
  8140.000000   1609467   1608407   1607171   1605791   1604295  
  8130.000000   1602717   1601097   1599494   1598004   1596733  
  8120.000000   1595775   1595161   1594835   1594649   1594408  
  8110.000000   1593931   1593124   1592006   1590711   1589424  
  8100.000000   1588320   1587492   1586927   1586516   1586108  
  8090.000000   1585571   1584845   1583956   1582984   1582033  
  8080.000000   1581176   1580445   1579825   1579284   1578785  
  8070.000000   1578308   1577846   1577386   1576903   1576354  
  8060.000000   1575694   1574894   1573960   1572933   1571885  
  8050.000000   1570879   1569961   1569132   1568367   1567627  
  8040.000000   1566887   1566144   1565424   1564756   1564164  
  8030.000000   1563642   1563169   1562720   1562289   1561909  
  8020.000000   1561645   1561575   1561749   1562163   1562734  
  8010.000000   1563319   1563742   1563848   1563547   1562838  
  8000.000000   1561808   1560598   1559358   1558211   1557214  
  7990.000000   1556362   1555609   1554891   1554167   1553427  
  7980.000000   1552690   1551985   1551321   1550675   1549993  
  7970.000000   1549218   1548331   1547366   1546438   1545693  
  7960.000000   1545275   1545257   1545609   1546193   1546805  
  7950.000000   1547250   1547405   1547267   1546945   1546610  
  7940.000000   1546423   1546452   1546653   1546866   1546890  
  7930.000000   1546545   1545750   1544544   1543078   1541561  
  7920.000000   1540199   1539147   1538478   1538197   1538254  
  7910.000000   1538580   1539100   1539743   1540442   1541121  
  7900.000000   1541713   1542150   1542398   1542433   1542282  
  7890.000000   1541977   1541576   1541137   1540723   1540412  
  7880.000000   1540282   1540424   1540907   1541772   1542985  
  7870.000000   1544445   1545972   1547349   1548355   1548828  
  7860.000000   1548693   1547989   1546854   1545492   1544122  
  7850.000000   1542931   1542028   1541433   1541082   1540861  
  7840.000000   1540635   1540302   1539803   1539147   1538385  
  7830.000000   1537604   1536889   1536317   1535940   1535787  
  7820.000000   1535869   1536182   1536703   1537393   1538184  
  7810.000000   1538995   1539732   1540312   1540676   1540797  
  7800.000000   1540683   1540356   1539846   1539172   1538343  
  7790.000000   1537376   1536294   1535162   1534059   1533085  
  7780.000000   1532316   1531796   1531504   1531372   1531291  
  7770.000000   1531149   1530853   1530357   1529661   1528815  
  7760.000000   1527901   1527011   1526235   1525629   1525214  
  7750.000000   1524955   1524777   1524574   1524248   1523732  
  7740.000000   1523018   1522162   1521264   1520437   1519764  
  7730.000000   1519277   1518954   1518732   1518548   1518366  
  7720.000000   1518193   1518059   1518000   1518016   1518059  
  7710.000000   1518040   1517865   1517467   1516852   1516089  
  7700.000000   1515310   1514654   1514232   1514092   1514214  
  7690.000000   1514518   1514895   1515242   1515479   1515568  
  7680.000000   1515505   1515322   1515066   1514797   1514571  
  7670.000000   1514431   1514402   1514470   1514593   1514698  
  7660.000000   1514704   1514536   1514148   1513540   1512759  
  7650.000000   1511891   1511048   1510348   1509890   1509744  
  7640.000000   1509924   1510391   1511051   1511767   1512393  
  7630.000000   1512799   1512910   1512716   1512280   1511707  
  7620.000000   1511123   1510635   1510319   1510207   1510302  
  7610.000000   1510585   1511026   1511593   1512240   1512912  
  7600.000000   1513542   1514069   1514449   1514670   1514766  
  7590.000000   1514789   1514811   1514880   1515020   1515212  
  7580.000000   1515426   1515625   1515796   1515952   1516128  
  7570.000000   1516377   1516742   1517259   1517945   1518800  
  7560.000000   1519808   1520932   1522118   1523284   1524339  
  7550.000000   1525186   1525762   1526046   1526089   1525984  
  7540.000000   1525864   1525850   1526037   1526469   1527145  
  7530.000000   1528028   1529074   1530240   1531499   1532835  
  7520.000000   1534236   1535678   1537136   1538566   1539939  
  7510.000000   1541221   1542412   1543520   1544583   1545641  
  7500.000000   1546752   1547957   1549286   1550740   1552298  
  7490.000000   1553918   1555559   1557188   1558801   1560413  
  7480.000000   1562057   1563760   1565529   1567341   1569156  
  7470.000000   1570929   1572641   1574304   1575965   1577678  
  7460.000000   1579489   1581398   1583366   1585315   1587166  
  7450.000000   1588859   1590388   1591782   1593115   1594469  
  7440.000000   1595924   1597537   1599342   1601352   1603557  
  7430.000000   1605936   1608447   1611033   1613630   1616183  
  7420.000000   1618656   1621035   1623322   1625514   1627597  
  7410.000000   1629531   1631271   1632785   1634095   1635273  
  7400.000000   1636443   1637735   1639240   1640976   1642875  
  7390.000000   1644821   1646696   1648440   1650072   1651699  
  7380.000000   1653460   1655476   1657783   1660331   1662989  
  7370.000000   1665599   1668025   1670188   1672081   1673751  
  7360.000000   1675275   1676727   1678169   1679639   1681159  
  7350.000000   1682728   1684330   1685930   1687482   1688949  
  7340.000000   1690322   1691643   1693000   1694511   1696273  
  7330.000000   1698338   1700676   1703195   1705753   1708220  
  7320.000000   1710515   1712621   1714569   1716399   1718135  
  7310.000000   1719758   1721214   1722448   1723436   1724212  
  7300.000000   1724857   1725487   1726201   1727071   1728107  
  7290.000000   1729283   1730542   1731831   1733100   1734315  
  7280.000000   1735446   1736471   1737374   1738160   1738866  
  7270.000000   1739554   1740307   1741193   1742252   1743473  
  7260.000000   1744808   1746180   1747527   1748801   1750004  
  7250.000000   1751153   1752287   1753434   1754619   1755853  
  7240.000000   1757161   1758567   1760121   1761852   1763792  
  7230.000000   1765921   1768206   1770573   1772963   1775313  
  7220.000000   1777606   1779835   1782040   1784264   1786587  
  7210.000000   1789080   1791829   1794882   1798267   1801937  
  7200.000000   1805808   1809736   1813592   1817255   1820687  
  7190.000000   1823896   1826970   1830002   1833097   1836309  
  7180.000000   1839667   1843158   1846777   1850519   1854413  
  7170.000000   1858480   1862741   1867164   1871694   1876225  
  7160.000000   1880677   1884973   1889114   1893128   1897113  
  7150.000000   1901164   1905400   1909895   1914710   1919848  
  7140.000000   1925285   1930953   1936790   1942726   1948732  
  7130.000000   1954793   1960936   1967172   1973515   1979924  
  7120.000000   1986343   1992679   1998873   2004892   2010781  
  7110.000000   2016611   2022489   2028480   2034613   2040848  
  7100.000000   2047128   2053392   2059632   2065890   2072257  
  7090.000000   2078824   2085650   2092725   2099985   2107321  
  7080.000000   2114630   2121829   2128887   2135795   2142571  
  7070.000000   2149222   2155758   2162186   2168536   2174858  
  7060.000000   2181221   2187683   2194268   2200954   2207670  
  7050.000000   2214331   2220862   2227235   2233469   2239628  
  7040.000000   2245779   2251977   2258235   2264540   2270859  
  7030.000000   2277164   2283433   2289659   2295829   2301928  
  7020.000000   2307924   2313798   2319532   2325153   2330692  
  7010.000000   2336205   2341721   2347251   2352758   2358197  
  7000.000000   2363506   2368655   2373621   2378421   2383058  
  6990.000000   2387547   2391879   2396057   2400076   2403965  
  6980.000000   2407755   2411497   2415214   2418922   2422596  
  6970.000000   2426208   2429713   2433099   2436357   2439516  
  6960.000000   2442597   2445637   2448650   2451658   2454658  
  6950.000000   2457656   2460627   2463545   2466352   2469000  
  6940.000000   2471437   2473656   2475677   2477572   2479414  
  6930.000000   2481276   2483181   2485121   2487036   2488875  
  6920.000000   2490592   2492186   2493679   2495116   2496519  
  6910.000000   2497895   2499216   2500450   2501571   2502591  
  6900.000000   2503545   2504498   2505506   2506617   2507842  
  6890.000000   2509177   2510593   2512058   2513531   2514965  
  6880.000000   2516309   2517512   2518540   2519387   2520088  
  6870.000000   2520714   2521348   2522062   2522887   2523814  
  6860.000000   2524794   2525779   2526732   2527655   2528569  
  6850.000000   2529509   2530483   2531473   2532426   2533286  
  6840.000000   2534013   2534610   2535114   2535588   2536090  
  6830.000000   2536653   2537269   2537910   2538530   2539098  
  6820.000000   2539592   2540017   2540378   2540690   2540962  
  6810.000000   2541208   2541437   2541669   2541907   2542145  
  6800.000000   2542350   2542479   2542487   2542356   2542102  
  6790.000000   2541780   2541449   2541161   2540921   2540695  
  6780.000000   2540415   2540031   2539525   2538940   2538357  
  6770.000000   2537863   2537504   2537270   2537085   2536849  
  6760.000000   2536472   2535922   2535227   2534469   2533741  
  6750.000000   2533114   2532613   2532218   2531882   2531556  
  6740.000000   2531210   2530834   2530427   2529990   2529512  
  6730.000000   2528981   2528391   2527761   2527129   2526551  
  6720.000000   2526071   2525707   2525435   2525199   2524921  
  6710.000000   2524534   2523990   2523281   2522426   2521465  
  6700.000000   2520446   2519418   2518424   2517499   2516658  
  6690.000000   2515903   2515208   2514539   2513844   2513097  
  6680.000000   2512281   2511419   2510540   2509683   2508853  
  6670.000000   2508035   2507179   2506229   2505144   2503916  
  6660.000000   2502567   2501148   2499700   2498254   2496808  
  6650.000000   2495347   2493852   2492325   2490786   2489276  
  6640.000000   2487829   2486469   2485185   2483949   2482717  
  6630.000000   2481459   2480157   2478817   2477451   2476072  
  6620.000000   2474682   2473272   2471825   2470330   2468781  
  6610.000000   2467186   2465554   2463896   2462213   2460506  
  6600.000000   2458775   2457031   2455289   2453575   2451909  
  6590.000000   2450301   2448747   2447226   2445713   2444183  
  6580.000000   2442621   2441024   2439402   2437778   2436176  
  6570.000000   2434626   2433152   2431772   2430489   2429290  
  6560.000000   2428142   2427000   2425816   2424549   2423177  
  6550.000000   2421702   2420149   2418557   2416974   2415440  
  6540.000000   2413991   2412645   2411407   2410264   2409183  
  6530.000000   2408123   2407038   2405892   2404674   2403397  
  6520.000000   2402104   2400841   2399651   2398546   2397516  
  6510.000000   2396523   2395534   2394532   2393529   2392560  
  6500.000000   2391666   2390868   2390149   2389460   2388728  
  6490.000000   2387890   2386918   2385826   2384669   2383514  
  6480.000000   2382419   2381408   2380469   2379568   2378667  
  6470.000000   2377741   2376790   2375828   2374877   2373949  
  6460.000000   2373042   2372140   2371221   2370267   2369266  
  6450.000000   2368217   2367125   2366000   2364859   2363727  
  6440.000000   2362641   2361636   2360746   2359976   2359307  
  6430.000000   2358687   2358055   2357349   2356542   2355637  
  6420.000000   2354682   2353737   2352869   2352117   2351500  
  6410.000000   2351003   2350603   2350266   2349968   2349685  
  6400.000000   2349402   2349101   2348773   2348412   2348026  
  6390.000000   2347629   2347244   2346887   2346565   2346270  
  6380.000000   2345988   2345701   2345402   2345093   2344780  
  6370.000000   2344472   2344159   2343820   2343424   2342943  
  6360.000000   2342366   2341705   2340988   2340255   2339534  
  6350.000000   2338838   2338156   2337473   2336769   2336044  
  6340.000000   2335306   2334581   2333889   2333248   2332655  
  6330.000000   2332102   2331565   2331028   2330467   2329868  
  6320.000000   2329211   2328483   2327670   2326770   2325790  
  6310.000000   2324750   2323674   2322586   2321493   2320391  
  6300.000000   2319260   2318082   2316839   2315533   2314172  
  6290.000000   2312783   2311385   2310007   2308660   2307363  
  6280.000000   2306121   2304937   2303795   2302671   2301516  
  6270.000000   2300277   2298901   2297356   2295632   2293758  
  6260.000000   2291776   2289741   2287699   2285684   2283708  
  6250.000000   2281783   2279909   2278101   2276362   2274696  
  6240.000000   2273086   2271504   2269908   2268259   2266530  
  6230.000000   2264709   2262803   2260831   2258814   2256770  
  6220.000000   2254718   2252679   2250681   2248757   2246937  
  6210.000000   2245238   2243651   2242144   2240663   2239151  
  6200.000000   2237563   2235882   2234117   2232298   2230469  
  6190.000000   2228663   2226905   2225202   2223553   2221947  
  6180.000000   2220373   2218817   2217268   2215715   2214152  
  6170.000000   2212581   2211014   2209469   2207966   2206517  
  6160.000000   2205124   2203773   2202443   2201111   2199766  
  6150.000000   2198408   2197048   2195702   2194379   2193081  
  6140.000000   2191798   2190519   2189234   2187942   2186653  
  6130.000000   2185376   2184120   2182880   2181644   2180393  
  6120.000000   2179112   2177793   2176448   2175099   2173780  
  6110.000000   2172522   2171355   2170290   2169328   2168453  
  6100.000000   2167646   2166876   2166126   2165375   2164626  
  6090.000000   2163883   2163166   2162493   2161888   2161359  
  6080.000000   2160918   2160557   2160273   2160049   2159874  
  6070.000000   2159721   2159577   2159416   2159233   2159023  
  6060.000000   2158813   2158626   2158512   2158497   2158611  
  6050.000000   2158849   2159206   2159658   2160199   2160824  
  6040.000000   2161552   2162397   2163376   2164478   2165689  
  6030.000000   2166966   2168287   2169623   2170978   2172353  
  6020.000000   2173769   2175222   2176710   2178207   2179703  
  6010.000000   2181185   2182672   2184183   2185755   2187404  
  6000.000000   2189140   2190938   2192779   2194628   2196480  
  5990.000000   2198331   2200206   2202123   2204113   2206185  
  5980.000000   2208355   2210624   2213008   2215506   2218130  
  5970.000000   2220865   2223695   2226578   2229484   2232379  
  5960.000000   2235259   2238131   2241032   2243987   2247028  
  5950.000000   2250157   2253371   2256644   2259953   2263274  
  5940.000000   2266597   2269916   2273234   2276556   2279890  
  5930.000000   2283242   2286616   2290011   2293414   2296802  
  5920.000000   2300141   2303394   2306530   2309535   2312410  
  5910.000000   2315178   2317866   2320500   2323095   2325659  
  5900.000000   2328192   2330702   2333200   2335713   2338255  
  5890.000000   2340844   2343469   2346116   2348754   2351367  
  5880.000000   2353946   2356498   2359030   2361546   2364028  
  5870.000000   2366439   2368737   2370883   2372863   2374690  
  5860.000000   2376405   2378062   2379714   2381402   2383157  
  5850.000000   2385000   2386948   2389021   2391234   2393589  
  5840.000000   2396073   2398652   2401280   2403914   2406520  
  5830.000000   2409087   2411615   2414115   2416593   2419045  
  5820.000000   2421461   2423827   2426133   2428383   2430578  
  5810.000000   2432724   2434802   2436798   2438669   2440405  
  5800.000000   2441989   2443459   2444845   2446213   2447582  
  5790.000000   2448981   2450369   2451713   2452926   2453944  
  5780.000000   2454674   2455056   2455014   2454517   2453543  
  5770.000000   2452132   2450351   2448324   2446176   2444045  
  5760.000000   2442021   2440167   2438491   2436986   2435624  
  5750.000000   2434389   2433269   2432262   2431360   2430548  
  5740.000000   2429812   2429131   2428503   2427926   2427417  
  5730.000000   2426973   2426594   2426247   2425906   2425535  
  5720.000000   2425126   2424684   2424240   2423824   2423462  
  5710.000000   2423156   2422899   2422671   2422468   2422294  
  5700.000000   2422171   2422122   2422160   2422280   2422457  
  5690.000000   2422662   2422867   2423062   2423246   2423429  
  5680.000000   2423601   2423748   2423826   2423791   2423596  
  5670.000000   2423220   2422651   2421901   2420979   2419899  
  5660.000000   2418664   2417293   2415801   2414236   2412644  
  5650.000000   2411084   2409589   2408179   2406841   2405553  
  5640.000000   2404285   2403020   2401753   2400493   2399250  
  5630.000000   2398027   2396825   2395641   2394477   2393346  
  5620.000000   2392268   2391260   2390331   2389470   2388652  
  5610.000000   2387845   2387023   2386175   2385308   2384440  
  5600.000000   2383590   2382766   2381962   2381162   2380346  
  5590.000000   2379503   2378630   2377733   2376819   2375894  
  5580.000000   2374955   2374002   2373032   2372052   2371068  
  5570.000000   2370091   2369120   2368149   2367158   2366133  
  5560.000000   2365059   2363938   2362776   2361585   2360374  
  5550.000000   2359146   2357897   2356629   2355352   2354090  
  5540.000000   2352871   2351723   2350657   2349666   2348724  
  5530.000000   2347797   2346856   2345883   2344881   2343859  
  5520.000000   2342833   2341811   2340792   2339774   2338747  
  5510.000000   2337711   2336664   2335609   2334542   2333460  
  5500.000000   2332356   2331235   2330103   2328981   2327882  
  5490.000000   2326813   2325756   2324681   2323542   2322307  
  5480.000000   2320957   2319510   2317997   2316462   2314936  
  5470.000000   2313433   2311941   2310440   2308903   2307321  
  5460.000000   2305689   2304015   2302300   2300541   2298727  
  5450.000000   2296849   2294908   2292924   2290932   2288974  
  5440.000000   2287087   2285292   2283598   2281998   2280485  
  5430.000000   2279043   2277664   2276324   2275001   2273664  
  5420.000000   2272303   2270912   2269534   2268219   2267043  
  5410.000000   2266047   2265261   2264652   2264188   2263806  
  5400.000000   2263488   2263219   2263033   2262948   2263004  
  5390.000000   2263197   2263537   2264001   2264605   2265352  
  5380.000000   2266288   2267422   2268781   2270332   2272060  
  5370.000000   2273903   2275854   2277883   2280029   2282289  
  5360.000000   2284721   2287314   2290118   2293119   2296388  
  5350.000000   2299940   2303876   2308212   2313028   2318289  
  5340.000000   2324021   2330152   2336710   2343639   2351000  
  5330.000000   2358751   2366957   2375560   2384615   2394069  
  5320.000000   2404015   2414444   2425497   2437181   2449631  
  5310.000000   2462812   2476805   2491525   2507029   2523241  
  5300.000000   2540240   2557981   2576570   2595976   2616294  
  5290.000000   2637466   2659533   2682377   2705969   2730149  
  5280.000000   2754881   2780066   2805756   2831959   2858793  
  5270.000000   2886273   2914413   2943077   2972087   3001214  
  5260.000000   3030272   3059173   3087921   3116613   3145314  
  5250.000000   3174068   3202750   3231199   3259112   3286305  
  5240.000000   3312568   3337930   3362396   3386167   3409308  
  5230.000000   3431979   3454119   3475733   3496627   3516749  
  5220.000000   3535932   3554232   3571616   3588265   3604214  
  5210.000000   3619638   3634490   3648812   3662429   3675306  
  5200.000000   3687271   3698378   3708586   3718061   3726822  
  5190.000000   3735020   3742603   3749626   3755969   3761658  
  5180.000000   3766602   3770879   3774451   3777421   3779749  
  5170.000000   3781512   3782659   3783270   3783323   3782925  
  5160.000000   3782071   3780850   3779222   3777224   3774790  
  5150.000000   3771952   3768672   3765019   3760987   3756646  
  5140.000000   3751982   3747040   3741802   3736317   3730594  
  5130.000000   3724706   3718673   3712553   3706337   3700040  
  5120.000000   3693632   3687125   3680509   3673819   3667062  
  5110.000000   3660265   3653419   3646526   3639569   3632557  
  5100.000000   3625507   3618458   3611444   3604498   3597624  
  5090.000000   3590817   3584052   3577316   3570603   3563930  
  5080.000000   3557316   3550782   3544323   3537922   3531534  
  5070.000000   3525113   3518611   3512003   3505272   3498427  
  5060.000000   3491479   3484450   3477355   3470219   3463054  
  5050.000000   3455881   3448706   3441540   3434369   3427187  
  5040.000000   3419970   3412708   3405390   3398019   3390602  
  5030.000000   3383154   3375686   3368209   3360735   3353272  
  5020.000000   3345841   3338458   3331151   3323939   3316849  
  5010.000000   3309888   3303072   3296394   3289866   3283479  
  5000.000000   3277248   3271162   3265240   3259469   3253875  
  4990.000000   3248451   3243234   3238223   3233464   3228952  
  4980.000000   3224724   3220759   3217078   3213648   3210490  
  4970.000000   3207574   3204934   3202548   3200457   3198638  
  4960.000000   3197130   3195903   3194997   3194386   3194114  
  4950.000000   3194159   3194565   3195302   3196406   3197840  
  4940.000000   3199638   3201763   3204253   3207072   3210251  
  4930.000000   3213744   3217575   3221692   3226123   3230835  
  4920.000000   3235874   3241223   3246930   3252970   3259363  
  4910.000000   3266063   3273069   3280331   3287853   3295605  
  4900.000000   3303599   3311812   3320238   3328838   3337571  
  4890.000000   3346381   3355209   3364002   3372709   3381298  
  4880.000000   3389732   3397999   3406067   3413929   3421540  
  4870.000000   3428885   3435906   3442585   3448870   3454768  
  4860.000000   3460252   3465364   3470104   3474526   3478629  
  4850.000000   3482459   3486004   3489299   3492337   3495164  
  4840.000000   3497788   3500268   3502626   3504916   3507149  
  4830.000000   3509361   3511542   3513703   3515820   3517884  
  4820.000000   3519867   3521761   3523550   3525241   3526840  
  4810.000000   3528369   3529846   3531295   3532728   3534158  
  4800.000000   3535589   3537030   3538482   3539959   3541463  
  4790.000000   3543006   3544586   3546204   3547852   3549526  
  4780.000000   3551215   3552917   3554618   3556311   3557973  
  4770.000000   3559588   3561128   3562579   3563919   3565149  
  4760.000000   3566260   3567262   3568148   3568928   3569590  
  4750.000000   3570140   3570567   3570877   3571063   3571136  
  4740.000000   3571088   3570931   3570660   3570288   3569815  
  4730.000000   3569261   3568628   3567933   3567181   3566381  
  4720.000000   3565535   3564653   3563739   3562804   3561857  
  4710.000000   3560908   3559968   3559045   3558153   3557305  
  4700.000000   3556523   3555826   3555241   3554784   3554474  
  4690.000000   3554316   3554314   3554460   3554747   3555152  
  4680.000000   3555654   3556210   3556788   3557337   3557830  
  4670.000000   3558234   3558555   3558794   3558990   3559171  
  4660.000000   3559386   3559663   3560046   3560559   3561237  
  4650.000000   3562100   3563168   3564441   3565914   3567558  
  4640.000000   3569343   3571233   3573201   3575231   3577315  
  4630.000000   3579451   3581630   3583835   3586034   3588187  
  4620.000000   3590249   3592180   3593946   3595530   3596915  
  4610.000000   3598102   3599086   3599886   3600510   3600995  
  4600.000000   3601366   3601668   3601920   3602150   3602347  
  4590.000000   3602509   3602602   3602614   3602515   3602306  
  4580.000000   3601978   3601545   3601007   3600383   3599674  
  4570.000000   3598897   3598055   3597163   3596218   3595226  
  4560.000000   3594171   3593047   3591836   3590537   3589150  
  4550.000000   3587690   3586177   3584634   3583079   3581524  
  4540.000000   3579978   3578445   3576936   3575457   3574031  
  4530.000000   3572667   3571389   3570194   3569103   3568104  
  4520.000000   3567222   3566449   3565826   3565349   3565071  
  4510.000000   3564989   3565166   3565601   3566373   3567491  
  4500.000000   3569049   3571052   3573589   3576644   3580284  
  4490.000000   3584475   3589278   3594661   3600692   3607345  
  4480.000000   3614686   3622674   3631348   3640638   3650549  
  4470.000000   3660989   3671944   3683315   3695083   3707158  
  4460.000000   3719524   3732106   3744892   3757822   3770886  
  4450.000000   3784030   3797238   3810467   3823700   3836912  
  4440.000000   3850093   3863241   3876350   3889431   3902467  
  4430.000000   3915469   3928395   3941244   3953945   3966481  
  4420.000000   3978755   3990739   4002327   4013496   4024144  
  4410.000000   4034258   4043744   4052593   4060715   4068109  
  4400.000000   4074709   4080549   4085620   4090013   4093782  
  4390.000000   4097065   4099947   4102574   4105022   4107407  
  4380.000000   4109774   4112195   4114691   4117308   4120063  
  4370.000000   4122996   4126136   4129520   4133174   4137114  
  4360.000000   4141335   4145818   4150518   4155396   4160383  
  4350.000000   4165448   4170525   4175609   4180654   4185684  
  4340.000000   4190662   4195600   4200414   4205011   4209172  
  4330.000000   4212644   4215084   4216194   4215720   4213595  
  4320.000000   4209917   4205017   4199347   4193457   4187828  
  4310.000000   4182855   4178726   4175497   4173054   4171247  
  4300.000000   4169887   4168843   4168018   4167369   4166883  
  4290.000000   4166542   4166349   4166280   4166342   4166520  
  4280.000000   4166832   4167277   4167859   4168570   4169385  
  4270.000000   4170288   4171240   4172212   4173133   4173912  
  4260.000000   4174396   4174413   4173764   4172299   4169927  
  4250.000000   4166685   4162706   4158240   4153566   4148984  
  4240.000000   4144714   4140913   4137608   4134763   4132259  
  4230.000000   4129967   4127749   4125501   4123155   4120677  
  4220.000000   4118081   4115388   4112667   4109966   4107373  
  4210.000000   4104935   4102727   4100776   4099124   4097769  
  4200.000000   4096718   4095937   4095410   4095079   4094919  
  4190.000000   4094866   4094910   4095005   4095174   4095400  
  4180.000000   4095739   4096190   4096821   4097635   4098708  
  4170.000000   4100052   4101757   4103844   4106403   4109444  
  4160.000000   4113027   4117121   4121749   4126844   4132417  
  4150.000000   4138399   4144808   4151585   4158762   4166284  
  4140.000000   4174190   4182437   4191076   4200073   4209487  
  4130.000000   4219284   4229510   4240119   4251145   4262548  
  4120.000000   4274372   4286603   4299302   4312472   4326168  
  4110.000000   4340372   4355102   4370298   4385928   4401896  
  4100.000000   4418141   4434560   4451094   4467668   4484256  
  4090.000000   4500833   4517404   4533980   4550575   4567212  
  4080.000000   4583895   4600650   4617463   4634350   4651263  
  4070.000000   4668186   4685021   4701721   4718160   4734300  
  4060.000000   4750038   4765372   4780221   4794603   4808433  
  4050.000000   4821738   4834438   4846589   4858134   4869148  
  4040.000000   4879563   4889428   4898628   4907185   4914977  
  4030.000000   4922051   4928324   4933877   4938652   4942717  
  4020.000000   4945980   4948506   4950271   4951356   4951710  
  4010.000000   4951466   4950691   4949390   4947326   4944559  
  4000.000000   4941439  
##END= 
