##TITLE= Sample 009 By ssteindl date Dienstag, November 20 2018
##JCAMP-DX= 4.24
##DATA TYPE= INFRARED SPECTRUM
##ORIGIN= Exported PE Spectrum Data File
##OWNER= Sandra Steindl
##DATE= 18/11/20
##TIME= 14:04:09.00
##SPECTROMETER/DATA SYSTEM= PERKIN-ELMER Frontier FT-IR/NIR IR
##INSTRUMENT PARAMETERS=
  APODIZATION=stark
  DETECTOR=INGAAS
##RESOLUTION= 16.000000
##DELTAX= -2.000000
##XUNITS= 1/CM
##YUNITS= A
##XFACTOR= 1.00
##YFACTOR= 0.00000011920928955078
##FIRSTX= 10000.00
##LASTX= 4000.00
##NPOINTS= 3001
##FIRSTY= 0.199101
##MAXY= 0.605690
##MINY= 0.170712
##XYDATA= (X++(Y..Y))
 10000.000000   1670181   1670272   1669460   1667223   1664771  
  9990.000000   1663727   1664416   1665815   1666738   1666234  
  9980.000000   1663436   1657843   1649748   1640281   1631053  
  9970.000000   1623860   1620280   1621189   1626354   1634440  
  9960.000000   1643288   1650525   1654241   1653567   1648878  
  9950.000000   1641657   1633964   1627764   1624393   1624178  
  9940.000000   1626579   1630357   1634093   1636476   1636603  
  9930.000000   1634098   1629100   1622261   1614591   1607349  
  9920.000000   1601814   1599004   1599436   1602920   1608583  
  9910.000000   1615070   1620880   1624831   1626339   1625619  
  9900.000000   1623527   1621228   1619780   1619738   1621042  
  9890.000000   1623050   1624854   1625573   1624679   1622123  
  9880.000000   1618319   1614000   1609913   1606667   1604470  
  9870.000000   1603222   1602509   1601892   1601060   1599983  
  9860.000000   1598917   1598234   1598269   1599032   1600204  
  9850.000000   1601056   1600769   1598614   1594347   1588309  
  9840.000000   1581470   1575197   1570897   1569677   1572012  
  9830.000000   1577701   1585877   1595266   1604435   1612094  
  9820.000000   1617332   1619737   1619452   1617024   1613306  
  9810.000000   1609164   1605374   1602401   1600401   1599240  
  9800.000000   1598567   1598052   1597378   1596497   1595459  
  9790.000000   1594528   1593949   1593950   1594609   1595813  
  9780.000000   1597253   1598415   1598700   1597544   1594626  
  9770.000000   1590013   1584238   1578213   1573015   1569569  
  9760.000000   1568349   1569182   1571301   1573551   1574833  
  9750.000000   1574418   1572240   1568801   1564993   1561709  
  9740.000000   1559574   1558794   1559227   1560577   1562597  
  9730.000000   1565215   1568477   1572430   1576950   1581683  
  9720.000000   1586089   1589578   1591711   1592269   1591342  
  9710.000000   1589173   1586131   1582553   1578769   1575121  
  9700.000000   1571980   1569774   1568811   1569235   1570829  
  9690.000000   1573145   1575570   1577622   1579080   1580055  
  9680.000000   1580863   1581793   1582911   1583939   1584371  
  9670.000000   1583693   1581679   1578556   1574973   1571801  
  9660.000000   1569752   1569172   1569834   1571120   1572211  
  9650.000000   1572443   1571512   1569521   1566877   1564023  
  9640.000000   1561245   1558541   1555701   1552442   1548692  
  9630.000000   1544639   1540844   1537968   1536612   1537033  
  9620.000000   1539004   1541921   1544916   1547256   1548526  
  9610.000000   1548878   1548963   1549739   1552100   1556471  
  9600.000000   1562570   1569304   1575097   1578260   1577627  
  9590.000000   1572877   1564717   1554659   1544545   1536075  
  9580.000000   1530313   1527624   1527666   1529746   1533027  
  9570.000000   1536807   1540522   1543751   1546091   1547149  
  9560.000000   1546627   1544423   1540825   1536428   1532098  
  9550.000000   1528613   1526522   1525932   1526597   1528053  
  9540.000000   1529813   1531540   1533054   1534311   1535270  
  9530.000000   1535848   1535924   1535429   1534480   1533382  
  9520.000000   1532611   1532577   1533485   1535175   1537186  
  9510.000000   1538925   1539897   1539915   1539128   1537982  
  9500.000000   1536983   1536560   1536857   1537800   1539104  
  9490.000000   1540484   1541715   1542697   1543419   1543855  
  9480.000000   1543924   1543456   1542237   1540085   1536901  
  9470.000000   1532744   1527863   1522708   1517909   1514170  
  9460.000000   1512106   1512052   1513885   1517001   1520415  
  9450.000000   1523034   1524008   1522992   1520329   1516906  
  9440.000000   1513905   1512332   1512693   1514800   1517915  
  9430.000000   1521073   1523459   1524699   1524893   1524523  
  9420.000000   1524179   1524325   1525112   1526361   1527658  
  9410.000000   1528536   1528609   1527673   1525697   1522837  
  9400.000000   1519405   1515875   1512841   1510876   1510351  
  9390.000000   1511207   1512897   1514486   1514961   1513613  
  9380.000000   1510335   1505758   1501065   1497666   1496670  
  9370.000000   1498525   1502819   1508469   1514124   1518597  
  9360.000000   1521194   1521782   1520678   1518386   1515356  
  9350.000000   1511876   1508104   1504193   1500406   1497108  
  9340.000000   1494662   1493285   1492905   1493181   1493560  
  9330.000000   1493532   1492766   1491256   1489259   1487152  
  9320.000000   1485291   1483867   1482947   1482464   1482373  
  9310.000000   1482604   1483146   1483925   1484818   1485603  
  9300.000000   1486006   1485830   1485028   1483843   1482729  
  9290.000000   1482265   1482933   1484982   1488330   1492545  
  9280.000000   1496938   1500647   1502881   1503053   1500982  
  9270.000000   1496873   1491300   1485083   1479142   1474354  
  9260.000000   1471329   1470377   1471397   1474052   1477758  
  9250.000000   1481926   1485941   1489318   1491681   1492780  
  9240.000000   1492516   1490861   1487969   1484028   1479371  
  9230.000000   1474288   1469108   1464088   1459493   1455584  
  9220.000000   1452616   1450859   1450470   1451533   1453897  
  9210.000000   1457288   1461265   1465409   1469399   1473095  
  9200.000000   1476535   1479762   1482754   1485263   1486913  
  9190.000000   1487219   1485825   1482628   1477930   1472379  
  9180.000000   1466812   1462048   1458664   1456901   1456584  
  9170.000000   1457284   1458411   1459463   1460089   1460178  
  9160.000000   1459809   1459211   1458694   1458523   1458874  
  9150.000000   1459733   1460966   1462275   1463335   1463856  
  9140.000000   1463710   1462972   1461894   1460861   1460255  
  9130.000000   1460340   1461158   1462530   1464132   1465577  
  9120.000000   1466530   1466775   1466262   1465096   1463467  
  9110.000000   1461640   1459874   1458475   1457690   1457721  
  9100.000000   1458605   1460254   1462394   1464624   1466442  
  9090.000000   1467372   1467099   1465480   1462607   1458703  
  9080.000000   1454154   1449354   1444690   1440465   1436918  
  9070.000000   1434248   1432587   1432035   1432580   1434166  
  9060.000000   1436616   1439696   1443081   1446438   1449480  
  9050.000000   1451953   1453714   1454643   1454762   1454093  
  9040.000000   1452758   1450852   1448522   1445924   1443230  
  9030.000000   1440655   1438400   1436730   1435882   1436079  
  9020.000000   1437399   1439786   1442981   1446525   1449806  
  9010.000000   1452191   1453213   1452670   1450722   1447858  
  9000.000000   1444827   1442400   1441151   1441299   1442675  
  8990.000000   1444777   1446954   1448602   1449364   1449174  
  8980.000000   1448207   1446773   1445186   1443680   1442387  
  8970.000000   1441399   1440849   1440940   1441889   1443850  
  8960.000000   1446780   1450391   1454152   1457428   1459672  
  8950.000000   1460561   1460106   1458573   1456416   1454072  
  8940.000000   1451888   1450037   1448584   1447552   1446986  
  8930.000000   1446989   1447631   1448931   1450753   1452871  
  8920.000000   1454981   1456840   1458311   1459401   1460215  
  8910.000000   1460857   1461390   1461762   1461883   1461637  
  8900.000000   1460986   1459967   1458682   1457248   1455727  
  8890.000000   1454152   1452536   1450974   1449653   1448852  
  8880.000000   1448844   1449767   1451530   1453766   1455932  
  8870.000000   1457447   1457916   1457245   1455708   1453833  
  8860.000000   1452254   1451505   1451880   1453374   1455720  
  8850.000000   1458506   1461309   1463782   1465707   1466984  
  8840.000000   1467622   1467699   1467338   1466692   1465941  
  8830.000000   1465264   1464833   1464768   1465122   1465877  
  8820.000000   1466937   1468171   1469412   1470514   1471362  
  8810.000000   1471896   1472126   1472117   1471973   1471803  
  8800.000000   1471687   1471662   1471721   1471845   1472025  
  8790.000000   1472297   1472735   1473425   1474421   1475675  
  8780.000000   1477050   1478294   1479150   1479393   1478948  
  8770.000000   1477896   1476488   1475076   1474045   1473737  
  8760.000000   1474386   1476102   1478830   1482384   1486437  
  8750.000000   1490588   1494399   1497474   1499557   1500561  
  8740.000000   1500636   1500071   1499242   1498455   1497901  
  8730.000000   1497607   1497505   1497512   1497607   1497903  
  8720.000000   1498571   1499813   1501697   1504157   1506938  
  8710.000000   1509709   1512154   1514076   1515459   1516418  
  8700.000000   1517152   1517814   1518468   1519060   1519481  
  8690.000000   1519628   1519481   1519131   1518745   1518535  
  8680.000000   1518657   1519205   1520152   1521414   1522857  
  8670.000000   1524355   1525804   1527125   1528268   1529175  
  8660.000000   1529822   1530179   1530274   1530145   1529884  
  8650.000000   1529592   1529396   1529417   1529757   1530503  
  8640.000000   1531700   1533371   1535482   1537960   1540685  
  8630.000000   1543505   1546264   1548791   1550945   1552605  
  8620.000000   1553709   1554261   1554344   1554127   1553839  
  8610.000000   1553746   1554082   1555004   1556525   1558518  
  8600.000000   1560730   1562840   1564539   1565600   1565939  
  8590.000000   1565600   1564756   1563646   1562555   1561746  
  8580.000000   1561434   1561776   1562860   1564700   1567205  
  8570.000000   1570202   1573441   1576649   1579564   1581988  
  8560.000000   1583838   1585123   1585953   1586468   1586824  
  8550.000000   1587124   1587427   1587737   1588049   1588370  
  8540.000000   1588723   1589167   1589753   1590534   1591512  
  8530.000000   1592652   1593872   1595084   1596204   1597193  
  8520.000000   1598046   1598811   1599565   1600397   1601376  
  8510.000000   1602529   1603834   1605196   1606473   1607482  
  8500.000000   1608053   1608060   1607488   1606433   1605136  
  8490.000000   1603912   1603093   1602935   1603548   1604879  
  8480.000000   1606727   1608835   1610969   1613011   1614968  
  8470.000000   1616962   1619130   1621542   1624144   1626736  
  8460.000000   1629060   1630846   1631957   1632377   1632258  
  8450.000000   1631802   1631212   1630631   1630130   1629760  
  8440.000000   1629564   1629675   1630261   1631532   1633586  
  8430.000000   1636395   1639741   1643270   1646557   1649206  
  8420.000000   1650952   1651686   1651476   1650485   1648945  
  8410.000000   1647110   1645252   1643644   1642529   1642110  
  8400.000000   1642485   1643632   1645347   1647326   1649203  
  8390.000000   1650685   1651591   1651917   1651808   1651496  
  8380.000000   1651220   1651139   1651313   1651691   1652161  
  8370.000000   1652581   1652816   1652776   1652414   1651742  
  8360.000000   1650814   1649736   1648639   1647669   1646938  
  8350.000000   1646500   1646336   1646370   1646498   1646630  
  8340.000000   1646730   1646816   1646941   1647150   1647442  
  8330.000000   1647751   1647974   1648018   1647850   1647531  
  8320.000000   1647194   1647010   1647114   1647564   1648298  
  8310.000000   1649160   1649952   1650494   1650669   1650431  
  8300.000000   1649802   1648835   1647604   1646194   1644702  
  8290.000000   1643256   1641997   1641081   1640616   1640664  
  8280.000000   1641167   1642003   1642968   1643867   1644526  
  8270.000000   1644840   1644779   1644350   1643595   1642522  
  8260.000000   1641136   1639419   1637388   1635105   1632702  
  8250.000000   1630386   1628393   1626966   1626267   1626363  
  8240.000000   1627166   1628478   1630001   1631429   1632492  
  8230.000000   1633025   1632994   1632474   1631619   1630592  
  8220.000000   1629515   1628439   1627342   1626162   1624825  
  8210.000000   1623302   1621608   1619827   1618050   1616374  
  8200.000000   1614838   1613443   1612135   1610853   1609535  
  8190.000000   1608153   1606717   1605268   1603855   1602520  
  8180.000000   1601282   1600128   1599026   1597925   1596787  
  8170.000000   1595576   1594287   1592935   1591559   1590216  
  8160.000000   1588976   1587905   1587055   1586451   1586082  
  8150.000000   1585898   1585813   1585721   1585513   1585103  
  8140.000000   1584445   1583534   1582408   1581125   1579748  
  8130.000000   1578326   1576889   1575446   1574000   1572562  
  8120.000000   1571162   1569848   1568669   1567654   1566792  
  8110.000000   1566026   1565269   1564424   1563428   1562267  
  8100.000000   1560996   1559713   1558541   1557582   1556894  
  8090.000000   1556474   1556268   1556189   1556144   1556059  
  8080.000000   1555880   1555579   1555148   1554591   1553926  
  8070.000000   1553172   1552360   1551514   1550652   1549770  
  8060.000000   1548847   1547846   1546740   1545533   1544269  
  8050.000000   1543047   1541985   1541199   1540751   1540634  
  8040.000000   1540757   1540973   1541121   1541064   1540741  
  8030.000000   1540162   1539407   1538584   1537789   1537082  
  8020.000000   1536472   1535938   1535457   1535024   1534669  
  8010.000000   1534437   1534361   1534421   1534525   1534518  
  8000.000000   1534219   1533486   1532270   1530659   1528865  
  7990.000000   1527175   1525871   1525139   1525012   1525353  
  7980.000000   1525892   1526303   1526306   1525740   1524615  
  7970.000000   1523086   1521414   1519874   1518689   1517971  
  7960.000000   1517710   1517789   1518036   1518277   1518383  
  7950.000000   1518303   1518062   1517744   1517457   1517282  
  7940.000000   1517263   1517363   1517508   1517582   1517491  
  7930.000000   1517174   1516642   1515970   1515280   1514721  
  7920.000000   1514421   1514480   1514933   1515755   1516860  
  7910.000000   1518114   1519349   1520388   1521082   1521325  
  7900.000000   1521094   1520442   1519496   1518415   1517357  
  7890.000000   1516436   1515708   1515174   1514802   1514572  
  7880.000000   1514480   1514558   1514834   1515322   1515972  
  7870.000000   1516692   1517352   1517832   1518067   1518050  
  7860.000000   1517842   1517518   1517140   1516720   1516228  
  7850.000000   1515624   1514896   1514092   1513320   1512709  
  7840.000000   1512350   1512260   1512353   1512481   1512484  
  7830.000000   1512264   1511828   1511283   1510795   1510517  
  7820.000000   1510526   1510796   1511204   1511594   1511834  
  7810.000000   1511865   1511718   1511484   1511266   1511126  
  7800.000000   1511055   1510971   1510751   1510281   1509500  
  7790.000000   1508429   1507169   1505877   1504714   1503812  
  7780.000000   1503229   1502945   1502866   1502858   1502790  
  7770.000000   1502566   1502158   1501603   1500990   1500426  
  7760.000000   1499996   1499738   1499637   1499636   1499664  
  7750.000000   1499668   1499629   1499567   1499517   1499512  
  7740.000000   1499555   1499614   1499629   1499529   1499258  
  7730.000000   1498781   1498099   1497237   1496239   1495164  
  7720.000000   1494080   1493069   1492210   1491580   1491221  
  7710.000000   1491137   1491279   1491561   1491875   1492121  
  7700.000000   1492229   1492161   1491914   1491496   1490924  
  7690.000000   1490206   1489366   1488434   1487474   1486566  
  7680.000000   1485790   1485202   1484808   1484571   1484415  
  7670.000000   1484271   1484095   1483889   1483690   1483543  
  7660.000000   1483472   1483454   1483430   1483318   1483062  
  7650.000000   1482650   1482134   1481603   1481155   1480858  
  7640.000000   1480730   1480739   1480824   1480920   1480983  
  7630.000000   1480996   1480968   1480910   1480833   1480740  
  7620.000000   1480642   1480560   1480538   1480619   1480841  
  7610.000000   1481204   1481668   1482161   1482605   1482955  
  7600.000000   1483217   1483452   1483750   1484199   1484844  
  7590.000000   1485666   1486584   1487476   1488215   1488700  
  7580.000000   1488882   1488762   1488386   1487826   1487168  
  7570.000000   1486504   1485927   1485517   1485335   1485408  
  7560.000000   1485723   1486225   1486839   1487483   1488096  
  7550.000000   1488651   1489167   1489691   1490288   1491011  
  7540.000000   1491898   1492953   1494166   1495497   1496898  
  7530.000000   1498298   1499629   1500815   1501804   1502567  
  7520.000000   1503119   1503514   1503839   1504194   1504676  
  7510.000000   1505355   1506272   1507438   1508842   1510444  
  7500.000000   1512184   1513967   1515680   1517201   1518440  
  7490.000000   1519356   1519995   1520471   1520963   1521641  
  7480.000000   1522636   1523975   1525598   1527369   1529141  
  7470.000000   1530799   1532307   1533702   1535081   1536546  
  7460.000000   1538175   1539982   1541937   1543967   1546004  
  7450.000000   1547990   1549907   1551754   1553558   1555345  
  7440.000000   1557150   1559001   1560921   1562916   1564975  
  7430.000000   1567054   1569093   1571027   1572819   1574475  
  7420.000000   1576057   1577668   1579422   1581400   1583616  
  7410.000000   1586013   1588479   1590886   1593135   1595183  
  7400.000000   1597060   1598840   1600615   1602460   1604414  
  7390.000000   1606474   1608610   1610778   1612941   1615074  
  7380.000000   1617160   1619190   1621158   1623069   1624928  
  7370.000000   1626761   1628596   1630469   1632403   1634412  
  7360.000000   1636490   1638615   1640751   1642858   1644888  
  7350.000000   1646791   1648524   1650062   1651413   1652628  
  7340.000000   1653792   1655013   1656388   1657982   1659799  
  7330.000000   1661793   1663882   1665977   1668006   1669927  
  7320.000000   1671729   1673411   1674967   1676379   1677632  
  7310.000000   1678737   1679747   1680767   1681925   1683341  
  7300.000000   1685068   1687079   1689254   1691429   1693434  
  7290.000000   1695157   1696559   1697676   1698592   1699383  
  7280.000000   1700101   1700758   1701347   1701870   1702359  
  7270.000000   1702884   1703532   1704384   1705475   1706791  
  7260.000000   1708267   1709817   1711364   1712855   1714278  
  7250.000000   1715634   1716941   1718190   1719378   1720480  
  7240.000000   1721509   1722492   1723512   1724656   1726021  
  7230.000000   1727655   1729563   1731684   1733937   1736221  
  7220.000000   1738475   1740667   1742827   1745003   1747273  
  7210.000000   1749683   1752266   1755006   1757876   1760824  
  7200.000000   1763825   1766860   1769948   1773104   1776353  
  7190.000000   1779683   1783070   1786455   1789785   1793009  
  7180.000000   1796122   1799138   1802121   1805127   1808223  
  7170.000000   1811439   1814796   1818277   1821871   1825550  
  7160.000000   1829312   1833145   1837060   1841057   1845155  
  7150.000000   1849357   1853686   1858146   1862752   1867489  
  7140.000000   1872348   1877293   1882310   1887383   1892531  
  7130.000000   1897764   1903110   1908547   1914046   1919522  
  7120.000000   1924909   1930141   1935231   1940232   1945269  
  7110.000000   1950453   1955889   1961606   1967586   1973761  
  7100.000000   1980072   1986472   1992972   1999596   2006383  
  7090.000000   2013325   2020382   2027462   2034476   2041347  
  7080.000000   2048066   2054664   2061221   2067808   2074479  
  7070.000000   2081235   2088050   2094870   2101656   2108384  
  7060.000000   2115058   2121684   2128272   2134817   2141314  
  7050.000000   2147765   2154191   2160633   2167139   2173754  
  7040.000000   2180487   2187322   2194210   2201099   2207937  
  7030.000000   2214702   2221384   2227993   2234527   2240985  
  7020.000000   2247341   2253578   2259665   2265594   2271352  
  7010.000000   2276943   2282363   2287622   2292728   2297715  
  7000.000000   2302612   2307467   2312303   2317137   2321945  
  6990.000000   2326705   2331375   2335949   2340425   2344837  
  6980.000000   2349201   2353535   2357810   2361993   2366028  
  6970.000000   2369896   2373595   2377171   2380670   2384141  
  6960.000000   2387585   2390981   2394262   2397372   2400259  
  6950.000000   2402924   2405385   2407699   2409913   2412078  
  6940.000000   2414212   2416329   2418420   2420478   2422480  
  6930.000000   2424416   2426266   2428036   2429741   2431424  
  6920.000000   2433128   2434899   2436741   2438633   2440509  
  6910.000000   2442297   2443936   2445413   2446756   2448031  
  6900.000000   2449302   2450610   2451946   2453272   2454531  
  6890.000000   2455692   2456757   2457771   2458790   2459862  
  6880.000000   2460993   2462155   2463294   2464364   2465346  
  6870.000000   2466257   2467132   2468013   2468915   2469828  
  6860.000000   2470724   2471583   2472401   2473203   2474023  
  6850.000000   2474886   2475785   2476685   2477529   2478272  
  6840.000000   2478896   2479425   2479906   2480399   2480940  
  6830.000000   2481538   2482172   2482814   2483438   2484039  
  6820.000000   2484623   2485200   2485763   2486295   2486763  
  6810.000000   2487147   2487436   2487651   2487819   2487976  
  6800.000000   2488141   2488321   2488509   2488708   2488917  
  6790.000000   2489151   2489408   2489673   2489898   2490026  
  6780.000000   2490000   2489799   2489446   2489011   2488581  
  6770.000000   2488227   2487977   2487807   2487657   2487460  
  6760.000000   2487173   2486798   2486373   2485959   2485608  
  6750.000000   2485345   2485164   2485037   2484926   2484795  
  6740.000000   2484620   2484386   2484080   2483699   2483252  
  6730.000000   2482768   2482294   2481889   2481600   2481444  
  6720.000000   2481397   2481398   2481373   2481257   2481018  
  6710.000000   2480663   2480225   2479745   2479252   2478766  
  6700.000000   2478290   2477837   2477425   2477084   2476825  
  6690.000000   2476639   2476471   2476240   2475856   2475256  
  6680.000000   2474423   2473392   2472224   2470988   2469723  
  6670.000000   2468449   2467159   2465865   2464597   2463419  
  6660.000000   2462392   2461554   2460876   2460270   2459604  
  6650.000000   2458753   2457638   2456261   2454695   2453053  
  6640.000000   2451447   2449947   2448570   2447294   2446080  
  6630.000000   2444900   2443745   2442625   2441545   2440494  
  6620.000000   2439434   2438319   2437105   2435775   2434340  
  6610.000000   2432838   2431311   2429793   2428295   2426809  
  6600.000000   2425314   2423796   2422245   2420664   2419063  
  6590.000000   2417458   2415865   2414311   2412820   2411416  
  6580.000000   2410108   2408883   2407698   2406494   2405211  
  6570.000000   2403809   2402288   2400686   2399067   2397494  
  6560.000000   2396008   2394612   2393281   2391973   2390654  
  6550.000000   2389312   2387955   2386604   2385278   2383985  
  6540.000000   2382725   2381493   2380298   2379154   2378085  
  6530.000000   2377100   2376191   2375317   2374427   2373471  
  6520.000000   2372424   2371291   2370111   2368929   2367783  
  6510.000000   2366690   2365644   2364626   2363625   2362646  
  6500.000000   2361705   2360825   2360017   2359269   2358547  
  6490.000000   2357810   2357026   2356183   2355293   2354381  
  6480.000000   2353472   2352578   2351694   2350803   2349890  
  6470.000000   2348948   2347985   2347012   2346043   2345078  
  6460.000000   2344112   2343133   2342138   2341132   2340132  
  6450.000000   2339155   2338213   2337306   2336426   2335564  
  6440.000000   2334721   2333910   2333158   2332485   2331902  
  6430.000000   2331395   2330932   2330464   2329954   2329372  
  6420.000000   2328715   2327991   2327225   2326441   2325665  
  6410.000000   2324919   2324230   2323621   2323114   2322715  
  6400.000000   2322419   2322203   2322035   2321887   2321742  
  6390.000000   2321596   2321454   2321318   2321185   2321036  
  6380.000000   2320849   2320605   2320299   2319947   2319577  
  6370.000000   2319220   2318898   2318616   2318358   2318106  
  6360.000000   2317835   2317533   2317192   2316810   2316380  
  6350.000000   2315894   2315343   2314725   2314052   2313350  
  6340.000000   2312651   2311988   2311377   2310823   2310311  
  6330.000000   2309828   2309354   2308881   2308397   2307891  
  6320.000000   2307337   2306709   2305977   2305132   2304183  
  6310.000000   2303168   2302134   2301133   2300192   2299319  
  6300.000000   2298490   2297672   2296820   2295902   2294886  
  6290.000000   2293754   2292488   2291086   2289551   2287913  
  6280.000000   2286216   2284523   2282887   2281345   2279893  
  6270.000000   2278499   2277104   2275656   2274115   2272482  
  6260.000000   2270780   2269054   2267341   2265662   2264016  
  6250.000000   2262387   2260753   2259104   2257439   2255774  
  6240.000000   2254125   2252506   2250921   2249364   2247816  
  6230.000000   2246254   2244643   2242946   2241131   2239176  
  6220.000000   2237083   2234885   2232638   2230420   2228298  
  6210.000000   2226320   2224493   2222791   2221159   2219543  
  6200.000000   2217901   2216220   2214508   2212785   2211075  
  6190.000000   2209387   2207726   2206088   2204481   2202911  
  6180.000000   2201395   2199939   2198542   2197186   2195843  
  6170.000000   2194487   2193101   2191684   2190250   2188814  
  6160.000000   2187391   2185988   2184606   2183246   2181910  
  6150.000000   2180606   2179340   2178107   2176894   2175672  
  6140.000000   2174415   2173105   2171745   2170359   2168981  
  6130.000000   2167645   2166366   2165141   2163952   2162771  
  6120.000000   2161588   2160404   2159238   2158113   2157049  
  6110.000000   2156042   2155082   2154143   2153208   2152265  
  6100.000000   2151329   2150417   2149560   2148779   2148092  
  6090.000000   2147502   2147011   2146608   2146287   2146026  
  6080.000000   2145812   2145620   2145437   2145250   2145069  
  6070.000000   2144907   2144797   2144755   2144808   2144955  
  6060.000000   2145200   2145525   2145927   2146389   2146918  
  6050.000000   2147504   2148159   2148878   2149683   2150580  
  6040.000000   2151602   2152761   2154081   2155553   2157171  
  6030.000000   2158896   2160704   2162559   2164453   2166373  
  6020.000000   2168328   2170313   2172327   2174350   2176377  
  6010.000000   2178392   2180407   2182430   2184485   2186579  
  6000.000000   2188720   2190885   2193063   2195228   2197381  
  5990.000000   2199524   2201685   2203883   2206149   2208496  
  5980.000000   2210943   2213499   2216188   2219023   2222023  
  5970.000000   2225179   2228475   2231865   2235309   2238761  
  5960.000000   2242206   2245633   2249063   2252498   2255949  
  5950.000000   2259392   2262810   2266176   2269490   2272770  
  5940.000000   2276064   2279427   2282912   2286554   2290357  
  5930.000000   2294306   2298363   2302487   2306628   2310742  
  5920.000000   2314784   2318708   2322475   2326054   2329434  
  5910.000000   2332619   2335630   2338496   2341248   2343914  
  5900.000000   2346517   2349090   2351660   2354272   2356960  
  5890.000000   2359759   2362671   2365689   2368769   2371868  
  5880.000000   2374931   2377916   2380784   2383508   2386068  
  5870.000000   2388447   2390647   2392679   2394583   2396411  
  5860.000000   2398225   2400079   2402008   2404024   2406121  
  5850.000000   2408290   2410525   2412838   2415241   2417750  
  5840.000000   2420359   2423048   2425776   2428500   2431186  
  5830.000000   2433821   2436409   2438965   2441496   2443997  
  5820.000000   2446445   2448813   2451073   2453218   2455252  
  5810.000000   2457200   2459075   2460902   2462674   2464405  
  5800.000000   2466086   2467743   2469374   2471010   2472626  
  5790.000000   2474209   2475683   2476991   2478036   2478760  
  5780.000000   2479094   2479012   2478481   2477507   2476098  
  5770.000000   2474307   2472198   2469880   2467456   2465045  
  5760.000000   2462719   2460537   2458504   2456615   2454847  
  5750.000000   2453193   2451652   2450238   2448966   2447841  
  5740.000000   2446863   2446013   2445275   2444619   2444028  
  5730.000000   2443472   2442932   2442376   2441792   2441166  
  5720.000000   2440518   2439866   2439253   2438701   2438230  
  5710.000000   2437829   2437479   2437155   2436845   2436551  
  5700.000000   2436291   2436088   2435957   2435897   2435888  
  5690.000000   2435904   2435915   2435910   2435881   2435836  
  5680.000000   2435772   2435687   2435554   2435349   2435034  
  5670.000000   2434580   2433954   2433135   2432095   2430822  
  5660.000000   2429311   2427585   2425688   2423691   2421669  
  5650.000000   2419696   2417810   2416030   2414336   2412705  
  5640.000000   2411109   2409538   2407995   2406496   2405054  
  5630.000000   2403676   2402362   2401102   2399895   2398734  
  5620.000000   2397623   2396556   2395524   2394504   2393482  
  5610.000000   2392445   2391404   2390382   2389417   2388536  
  5600.000000   2387753   2387049   2386390   2385731   2385037  
  5590.000000   2384291   2383495   2382662   2381805   2380927  
  5580.000000   2380021   2379079   2378094   2377076   2376042  
  5570.000000   2375010   2373988   2372971   2371939   2370869  
  5560.000000   2369746   2368569   2367351   2366118   2364887  
  5550.000000   2363671   2362468   2361273   2360081   2358898  
  5540.000000   2357732   2356595   2355492   2354417   2353356  
  5530.000000   2352295   2351226   2350151   2349080   2348020  
  5520.000000   2346971   2345919   2344842   2343722   2342550  
  5510.000000   2341336   2340101   2338869   2337654   2336460  
  5500.000000   2335276   2334095   2332910   2331731   2330569  
  5490.000000   2329433   2328311   2327177   2325985   2324698  
  5480.000000   2323287   2321757   2320129   2318445   2316737  
  5470.000000   2315031   2313328   2311626   2309915   2308193  
  5460.000000   2306459   2304711   2302935   2301113   2299218  
  5450.000000   2297238   2295177   2293073   2290978   2288951  
  5440.000000   2287034   2285240   2283559   2281960   2280415  
  5430.000000   2278897   2277392   2275884   2274359   2272792  
  5420.000000   2271176   2269507   2267827   2266191   2264687  
  5410.000000   2263370   2262281   2261397   2260678   2260060  
  5400.000000   2259513   2259016   2258600   2258290   2258127  
  5390.000000   2258109   2258236   2258474   2258821   2259271  
  5380.000000   2259862   2260613   2261560   2262684   2263975  
  5370.000000   2265370   2266855   2268387   2270001   2271696  
  5360.000000   2273537   2275525   2277718   2280107   2282752  
  5350.000000   2285658   2288909   2292519   2296565   2301024  
  5340.000000   2305935   2311239   2316963   2323052   2329553  
  5330.000000   2336418   2343703   2351351   2359417   2367854  
  5320.000000   2376750   2386094   2396016   2406514   2417712  
  5310.000000   2429569   2442166   2455425   2469414   2484070  
  5300.000000   2499493   2515660   2532703   2550616   2569519  
  5290.000000   2589368   2610212   2631925   2654456   2677619  
  5280.000000   2701347   2725510   2750143   2775246   2800946  
  5270.000000   2827273   2854265   2881808   2909746   2937847  
  5260.000000   2965924   2993863   3021649   3049354   3077039  
  5250.000000   3104751   3132387   3159810   3186750   3213035  
  5240.000000   3238468   3263065   3286819   3309906   3332376  
  5230.000000   3354378   3375857   3396828   3417115   3436679  
  5220.000000   3455356   3473188   3490121   3506300   3521733  
  5210.000000   3536572   3550770   3564385   3577273   3589429  
  5200.000000   3600713   3611188   3620811   3629735   3637964  
  5190.000000   3645634   3652694   3659199   3665045   3670272  
  5180.000000   3674808   3678741   3682049   3684837   3687072  
  5170.000000   3688826   3690039   3690770   3690976   3690734  
  5160.000000   3690020   3688905   3687344   3685377   3682949  
  5150.000000   3680104   3676827   3673205   3669255   3665064  
  5140.000000   3660629   3655994   3651126   3646054   3640761  
  5130.000000   3635297   3629679   3623965   3618166   3612312  
  5120.000000   3606388   3600401   3594332   3588191   3581977  
  5110.000000   3575711   3569399   3563063   3556716   3550382  
  5100.000000   3544080   3537837   3531667   3525582   3519575  
  5090.000000   3513638   3507757   3501926   3496144   3490419  
  5080.000000   3484753   3479147   3473582   3468037   3462479  
  5070.000000   3456887   3451239   3445533   3439766   3433945  
  5060.000000   3428063   3422118   3416096   3409997   3403814  
  5050.000000   3397557   3391228   3384839   3378386   3371871  
  5040.000000   3365287   3358640   3351942   3345218   3338498  
  5030.000000   3331810   3325177   3318608   3312102   3305648  
  5020.000000   3299241   3292874   3286557   3280299   3274126  
  5010.000000   3268049   3262099   3256279   3250615   3245103  
  5000.000000   3239766   3234593   3229604   3224784   3220154  
  4990.000000   3215698   3211444   3207379   3203541   3199918  
  4980.000000   3196550   3193421   3190567   3187966   3185657  
  4970.000000   3183616   3181886   3180442   3179329   3178519  
  4960.000000   3178060   3177929   3178177   3178788   3179817  
  4950.000000   3181240   3183100   3185354   3188026   3191061  
  4940.000000   3194484   3198244   3202375   3206831   3211642  
  4930.000000   3216753   3222183   3227876   3233858   3240098  
  4920.000000   3246647   3253497   3260705   3268258   3276183  
  4910.000000   3284442   3293032   3301902   3311041   3320399  
  4900.000000   3329963   3339688   3349552   3359516   3369551  
  4890.000000   3379632   3389733   3399831   3409885   3419862  
  4880.000000   3429690   3439321   3448674   3457714   3466378  
  4870.000000   3474661   3482524   3489983   3497007   3503618  
  4860.000000   3509791   3515559   3520910   3525895   3530513  
  4850.000000   3534824   3538831   3542593   3546112   3549442  
  4840.000000   3552585   3555591   3558458   3561227   3563893  
  4830.000000   3566486   3568999   3571454   3573846   3576190  
  4820.000000   3578481   3580730   3582934   3585103   3587241  
  4810.000000   3589365   3591485   3593617   3595768   3597946  
  4800.000000   3600152   3602386   3604646   3606931   3609234  
  4790.000000   3611553   3613871   3616176   3618444   3620661  
  4780.000000   3622813   3624899   3626920   3628889   3630811  
  4770.000000   3632694   3634529   3636308   3638008   3639622  
  4760.000000   3641129   3642536   3643839   3645056   3646187  
  4750.000000   3647245   3648215   3649095   3649860   3650501  
  4740.000000   3650996   3651351   3651562   3651655   3651642  
  4730.000000   3651552   3651395   3651186   3650924   3650610  
  4720.000000   3650236   3649804   3649314   3648777   3648207  
  4710.000000   3647619   3647039   3646487   3645992   3645574  
  4700.000000   3645260   3645066   3645009   3645091   3645316  
  4690.000000   3645679   3646178   3646806   3647564   3648440  
  4680.000000   3649426   3650489   3651604   3652715   3653784  
  4670.000000   3654760   3655627   3656370   3657018   3657600  
  4660.000000   3658179   3658807   3659549   3660444   3661531  
  4650.000000   3662823   3664328   3666036   3667934   3669998  
  4640.000000   3672204   3674525   3676932   3679392   3681873  
  4630.000000   3684343   3686772   3689136   3691415   3693599  
  4620.000000   3695678   3697646   3699487   3701192   3702734  
  4610.000000   3704104   3705284   3706287   3707122   3707828  
  4600.000000   3708431   3708976   3709472   3709940   3710363  
  4590.000000   3710737   3711028   3711225   3711296   3711234  
  4580.000000   3711018   3710651   3710130   3709479   3708712  
  4570.000000   3707869   3706969   3706043   3705090   3704111  
  4560.000000   3703084   3701996   3700827   3699581   3698265  
  4550.000000   3696902   3695508   3694099   3692676   3691232  
  4540.000000   3689763   3688264   3686752   3685245   3683783  
  4530.000000   3682389   3681101   3679917   3678860   3677908  
  4520.000000   3677084   3676376   3675830   3675446   3675294  
  4510.000000   3675375   3675766   3676467   3677560   3679050  
  4500.000000   3681030   3683500   3686551   3690164   3694413  
  4490.000000   3699262   3704780   3710930   3717784   3725308  
  4480.000000   3733566   3742505   3752160   3762453   3773395  
  4470.000000   3784896   3796960   3809503   3822527   3835951  
  4460.000000   3849761   3863868   3878238   3892777   3907444  
  4450.000000   3922164   3936909   3951639   3966347   3981026  
  4440.000000   3995672   4010289   4024856   4039372   4053790  
  4430.000000   4068106   4082255   4096232   4109956   4123420  
  4420.000000   4136525   4149254   4161497   4173234   4184354  
  4410.000000   4194842   4204594   4213608   4221800   4229199  
  4400.000000   4235766   4241582   4246668   4251150   4255088  
  4390.000000   4258622   4261818   4264799   4267616   4270364  
  4380.000000   4273074   4275814   4278601   4281485   4284483  
  4370.000000   4287639   4290980   4294547   4298364   4302452  
  4360.000000   4306813   4311439   4316302   4321376   4326603  
  4350.000000   4331953   4337344   4342747   4348077   4353327  
  4340.000000   4358435   4363409   4368178   4372674   4376698  
  4330.000000   4380007   4382246   4383088   4382243   4379616  
  4320.000000   4375300   4369646   4363146   4356403   4349941  
  4310.000000   4344193   4339366   4335523   4332552   4330306  
  4300.000000   4328597   4327294   4326295   4325542   4324999  
  4290.000000   4324626   4324408   4324316   4324365   4324556  
  4280.000000   4324923   4325474   4326208   4327106   4328120  
  4270.000000   4329213   4330321   4331393   4332329   4333010  
  4260.000000   4333252   4332860   4331625   4329407   4326147  
  4250.000000   4321922   4316910   4311392   4305663   4300023  
  4240.000000   4294681   4289797   4285411   4281524   4278064  
  4230.000000   4274957   4272105   4269419   4266818   4264225  
  4220.000000   4261600   4258900   4256142   4253335   4250549  
  4210.000000   4247826   4245254   4242874   4240750   4238895  
  4200.000000   4237333   4236038   4235000   4234165   4233507  
  4190.000000   4232966   4232533   4232168   4231901   4231719  
  4180.000000   4231681   4231786   4232093   4232594   4233345  
  4170.000000   4234336   4235632   4237239   4239237   4241635  
  4160.000000   4244510   4247848   4251702   4256031   4260868  
  4150.000000   4266161   4271945   4278172   4284885   4292038  
  4140.000000   4299679   4307759   4316319   4325305   4334753  
  4130.000000   4344605   4354900   4365588   4376715   4388252  
  4120.000000   4400251   4412689   4425614   4438996   4452862  
  4110.000000   4467171   4481935   4497103   4512665   4528551  
  4100.000000   4544726   4561104   4577642   4594269   4610968  
  4090.000000   4627716   4644523   4661401   4678360   4695415  
  4080.000000   4712558   4729800   4747114   4764502   4781904  
  4070.000000   4799289   4816539   4833587   4850292   4866601  
  4060.000000   4882407   4897716   4912463   4926689   4940334  
  4050.000000   4953448   4965968   4977965   4989385   5000307  
  4040.000000   5010655   5020476   5029643   5038172   5045930  
  4030.000000   5052959   5059170   5064635   5069291   5073197  
  4020.000000   5076258   5078539   5080026   5080820   5080896  
  4010.000000   5080412   5079448   5078021   5075896   5073120  
  4000.000000   5070010  
##END= 
