##TITLE= Sample 017 By ssteindl date Montag, November 19 2018
##JCAMP-DX= 4.24
##DATA TYPE= INFRARED SPECTRUM
##ORIGIN= Exported PE Spectrum Data File
##OWNER= Sandra Steindl
##DATE= 18/11/19
##TIME= 17:43:23.00
##SPECTROMETER/DATA SYSTEM= PERKIN-ELMER Frontier FT-IR/NIR IR
##INSTRUMENT PARAMETERS=
  APODIZATION=stark
  DETECTOR=INGAAS
##RESOLUTION= 16.000000
##DELTAX= -2.000000
##XUNITS= 1/CM
##YUNITS= A
##XFACTOR= 1.00
##YFACTOR= 0.00000011920928955078
##FIRSTX= 10000.00
##LASTX= 4000.00
##NPOINTS= 3001
##FIRSTY= 0.204437
##MAXY= 0.613365
##MINY= 0.177706
##XYDATA= (X++(Y..Y))
 10000.000000   1714943   1716862   1719013   1721701   1724755  
  9990.000000   1727617   1729613   1730268   1729395   1727185  
  9980.000000   1724094   1720669   1717235   1713888   1710513  
  9970.000000   1707015   1703449   1700096   1697371   1695593  
  9960.000000   1694806   1694654   1694497   1693633   1691589  
  9950.000000   1688338   1684337   1680409   1677496   1676380  
  9940.000000   1677495   1680811   1685904   1692006   1698205  
  9930.000000   1703533   1707173   1708555   1707516   1704361  
  9920.000000   1699841   1695025   1691039   1688814   1688834  
  9910.000000   1691064   1694910   1699452   1703586   1706380  
  9900.000000   1707193   1705876   1702695   1698243   1693247  
  9890.000000   1688357   1684060   1680549   1677800   1675575  
  9880.000000   1673565   1671503   1669239   1666840   1664506  
  9870.000000   1662571   1661320   1660957   1661537   1662961  
  9860.000000   1665027   1667400   1669706   1671505   1672451  
  9850.000000   1672294   1671010   1668762   1665919   1662944  
  9840.000000   1660298   1658319   1657131   1656668   1656724  
  9830.000000   1657103   1657664   1658372   1659222   1660155  
  9820.000000   1661036   1661604   1661627   1660919   1659495  
  9810.000000   1657525   1655315   1653209   1651508   1650469  
  9800.000000   1650313   1651279   1653578   1657315   1662327  
  9790.000000   1668084   1673693   1678088   1680347   1680001  
  9780.000000   1677278   1673025   1668503   1664933   1663118  
  9770.000000   1663211   1664699   1666735   1668414   1669210  
  9760.000000   1669015   1668208   1667328   1666908   1667190  
  9750.000000   1668088   1669220   1670021   1669956   1668582  
  9740.000000   1665723   1661439   1656081   1650225   1644584  
  9730.000000   1639893   1636718   1635340   1635655   1637230  
  9720.000000   1639450   1641712   1643595   1644934   1645767  
  9710.000000   1646221   1646401   1646312   1645945   1645306  
  9700.000000   1644553   1643944   1643786   1644263   1645310  
  9690.000000   1646609   1647637   1647937   1647243   1645673  
  9680.000000   1643611   1641596   1640052   1639157   1638775  
  9670.000000   1638553   1638072   1636989   1635138   1632515  
  9660.000000   1629266   1625584   1621697   1617824   1614177  
  9650.000000   1610978   1608407   1606616   1605642   1605461  
  9640.000000   1605966   1607066   1608695   1610805   1613308  
  9630.000000   1615940   1618311   1619837   1620034   1618526  
  9620.000000   1615344   1610812   1605596   1600448   1596088  
  9610.000000   1593062   1591657   1592019   1594079   1597757  
  9600.000000   1602798   1608899   1615562   1622213   1628235  
  9590.000000   1633073   1636341   1637774   1637275   1634773  
  9580.000000   1630321   1624072   1616440   1608118   1600041  
  9570.000000   1593237   1588524   1586314   1586406   1588117  
  9560.000000   1590440   1592457   1593542   1593564   1592786  
  9550.000000   1591702   1590825   1590488   1590863   1591923  
  9540.000000   1593583   1595660   1597905   1599940   1601291  
  9530.000000   1601481   1600221   1597566   1594023   1590394  
  9520.000000   1587551   1586029   1585825   1586344   1586680  
  9510.000000   1586020   1584035   1581086   1578099   1576249  
  9500.000000   1576478   1579164   1583962   1589950   1595943  
  9490.000000   1600895   1604162   1605635   1605603   1604625  
  9480.000000   1603265   1602038   1601274   1601144   1601603  
  9470.000000   1602382   1602999   1602826   1601241   1597818  
  9460.000000   1592474   1585549   1577733   1569883   1562818  
  9450.000000   1557095   1552965   1550380   1549117   1548912  
  9440.000000   1549503   1550701   1552324   1554231   1556314  
  9430.000000   1558524   1560921   1563573   1566575   1569819  
  9420.000000   1573045   1575715   1577265   1577214   1575446  
  9410.000000   1572269   1568360   1564593   1561731   1560298  
  9400.000000   1560401   1561868   1564266   1567142   1570035  
  9390.000000   1572588   1574494   1575507   1575451   1574248  
  9380.000000   1571977   1568853   1565215   1561408   1557749  
  9370.000000   1554454   1551674   1549526   1548105   1547503  
  9360.000000   1547723   1548644   1549971   1551283   1552179  
  9350.000000   1552399   1551990   1551225   1550556   1550346  
  9340.000000   1550777   1551727   1552869   1553835   1554405  
  9330.000000   1554679   1555018   1555931   1557778   1560664  
  9320.000000   1564309   1568178   1571569   1573851   1574599  
  9310.000000   1573677   1571252   1567688   1563482   1559125  
  9300.000000   1555022   1551417   1548343   1545680   1543214  
  9290.000000   1540788   1538363   1536124   1534376   1533509  
  9280.000000   1533760   1535109   1537209   1539478   1541343  
  9270.000000   1542382   1542521   1541933   1540993   1539988  
  9260.000000   1539055   1538082   1536884   1535313   1533431  
  9250.000000   1531525   1530015   1529300   1529559   1530731  
  9240.000000   1532528   1534619   1536725   1538711   1540532  
  9230.000000   1542137   1543400   1544101   1544043   1543148  
  9220.000000   1541577   1539711   1538027   1536899   1536422  
  9210.000000   1536415   1536500   1536345   1535783   1534935  
  9200.000000   1534089   1533550   1533420   1533544   1533587  
  9190.000000   1533191   1532178   1530618   1528805   1527088  
  9180.000000   1525681   1524583   1523600   1522542   1521384  
  9170.000000   1520353   1519855   1520259   1521683   1523845  
  9160.000000   1526120   1527737   1528092   1526971   1524654  
  9150.000000   1521757   1519046   1517133   1516350   1516667  
  9140.000000   1517789   1519317   1520889   1522257   1523273  
  9130.000000   1523896   1524171   1524235   1524285   1524560  
  9120.000000   1525253   1526421   1527917   1529407   1530508  
  9110.000000   1530943   1530658   1529869   1528935   1528219  
  9100.000000   1527870   1527787   1527657   1527138   1526049  
  9090.000000   1524475   1522744   1521259   1520294   1519851  
  9080.000000   1519652   1519307   1518504   1517192   1515595  
  9070.000000   1514140   1513254   1513195   1513956   1515303  
  9060.000000   1516912   1518464   1519727   1520530   1520759  
  9050.000000   1520262   1518919   1516711   1513860   1510816  
  9040.000000   1508172   1506482   1506067   1506897   1508568  
  9030.000000   1510515   1512210   1513396   1514100   1514576  
  9020.000000   1515105   1515819   1516620   1517209   1517277  
  9010.000000   1516638   1515337   1513607   1511738   1509972  
  9000.000000   1508403   1507034   1505827   1504824   1504142  
  8990.000000   1503900   1504105   1504538   1504802   1504414  
  8980.000000   1503043   1500651   1497594   1494489   1492025  
  8970.000000   1490705   1490707   1491880   1493863   1496282  
  8960.000000   1498887   1501586   1504370   1507180   1509851  
  8950.000000   1512081   1513571   1514120   1513766   1512735  
  8940.000000   1511381   1510028   1508879   1508014   1507427  
  8930.000000   1507148   1507262   1507916   1509192   1511001  
  8920.000000   1513012   1514720   1515613   1515360   1513968  
  8910.000000   1511798   1509472   1507646   1506801   1507111  
  8900.000000   1508435   1510432   1512681   1514839   1516668  
  8890.000000   1518067   1518990   1519443   1519436   1519031  
  8880.000000   1518327   1517474   1516634   1515909   1515334  
  8870.000000   1514832   1514281   1513538   1512501   1511129  
  8860.000000   1509442   1507497   1505392   1503268   1501342  
  8850.000000   1499891   1499210   1499514   1500849   1503041  
  8840.000000   1505729   1508457   1510850   1512714   1514127  
  8830.000000   1515317   1516570   1518015   1519597   1521054  
  8820.000000   1522091   1522513   1522387   1522019   1521861  
  8810.000000   1522318   1523575   1525547   1527903   1530261  
  8800.000000   1532301   1533916   1535171   1536257   1537341  
  8790.000000   1538506   1539714   1540859   1541852   1542652  
  8780.000000   1543289   1543779   1544085   1544072   1543565  
  8770.000000   1542445   1540751   1538739   1536835   1535526  
  8760.000000   1535191   1535982   1537763   1540182   1542787  
  8750.000000   1545177   1547113   1548534   1549549   1550316  
  8740.000000   1551006   1551706   1552456   1553233   1554016  
  8730.000000   1554780   1555538   1556324   1557195   1558230  
  8720.000000   1559495   1561045   1562864   1564870   1566898  
  8710.000000   1568742   1570211   1571196   1571720   1571936  
  8700.000000   1572085   1572403   1573047   1574032   1575254  
  8690.000000   1576531   1577689   1578629   1579347   1579945  
  8680.000000   1580553   1581308   1582296   1583560   1585113  
  8670.000000   1586942   1589020   1591269   1593548   1595651  
  8660.000000   1597348   1598451   1598893   1598776   1598371  
  8650.000000   1598041   1598141   1598889   1600296   1602164  
  8640.000000   1604145   1605882   1607119   1607789   1608033  
  8630.000000   1608144   1608478   1609325   1610830   1612925  
  8620.000000   1615372   1617816   1619911   1621410   1622250  
  8610.000000   1622579   1622716   1623074   1624028   1625810  
  8600.000000   1628435   1631680   1635159   1638405   1641018  
  8590.000000   1642750   1643557   1643606   1643198   1642703  
  8580.000000   1642444   1642676   1643539   1645062   1647170  
  8570.000000   1649694   1652413   1655053   1657338   1659012  
  8560.000000   1659906   1659979   1659339   1658250   1657076  
  8550.000000   1656232   1656080   1656889   1658756   1661626  
  8540.000000   1665266   1669324   1673352   1676899   1679563  
  8530.000000   1681076   1681348   1680508   1678899   1677000  
  8520.000000   1675336   1674338   1674249   1675051   1676474  
  8510.000000   1678094   1679463   1680249   1680325   1679793  
  8500.000000   1678937   1678102   1677594   1677587   1678133  
  8490.000000   1679165   1680594   1682333   1684363   1686687  
  8480.000000   1689291   1692099   1694950   1697636   1699962  
  8470.000000   1701819   1703241   1704383   1705473   1706711  
  8460.000000   1708206   1709919   1711687   1713289   1714529  
  8450.000000   1715303   1715614   1715580   1715372   1715177  
  8440.000000   1715143   1715375   1715922   1716800   1717970  
  8430.000000   1719365   1720872   1722371   1723736   1724894  
  8420.000000   1725828   1726601   1727309   1728053   1728890  
  8410.000000   1729802   1730700   1731461   1731969   1732166  
  8400.000000   1732054   1731708   1731222   1730705   1730225  
  8390.000000   1729830   1729538   1729362   1729302   1729333  
  8380.000000   1729406   1729428   1729301   1728917   1728217  
  8370.000000   1727208   1725992   1724747   1723686   1723025  
  8360.000000   1722927   1723496   1724732   1726557   1728791  
  8350.000000   1731210   1733540   1735530   1736979   1737784  
  8340.000000   1737958   1737600   1736869   1735898   1734773  
  8330.000000   1733486   1731981   1730188   1728103   1725826  
  8320.000000   1723544   1721504   1719911   1718907   1718492  
  8310.000000   1718591   1719059   1719771   1720643   1721640  
  8300.000000   1722750   1723925   1725068   1726016   1726596  
  8290.000000   1726673   1726208   1725271   1724030   1722710  
  8280.000000   1721526   1720637   1720093   1719848   1719766  
  8270.000000   1719668   1719361   1718696   1717596   1716094  
  8260.000000   1714322   1712499   1710854   1709595   1708829  
  8250.000000   1708569   1708712   1709110   1709601   1710071  
  8240.000000   1710447   1710691   1710759   1710577   1710048  
  8230.000000   1709067   1707587   1705641   1703370   1700983  
  8220.000000   1698703   1696706   1695078   1693826   1692895  
  8210.000000   1692230   1691781   1691523   1691411   1691373  
  8200.000000   1691287   1691017   1690456   1689581   1688478  
  8190.000000   1687312   1686263   1685442   1684835   1684313  
  8180.000000   1683681   1682771   1681506   1679936   1678192  
  8170.000000   1676431   1674738   1673104   1671434   1669626  
  8160.000000   1667641   1665552   1663525   1661760   1660390  
  8150.000000   1659432   1658746   1658114   1657312   1656213  
  8140.000000   1654838   1653321   1651853   1650565   1649495  
  8130.000000   1648544   1647546   1646323   1644776   1642908  
  8120.000000   1640837   1638750   1636848   1635303   1634219  
  8110.000000   1633636   1633522   1633788   1634294   1634859  
  8100.000000   1635288   1635395   1635057   1634230   1632976  
  8090.000000   1631420   1629736   1628063   1626496   1625055  
  8080.000000   1623716   1622447   1621238   1620127   1619175  
  8070.000000   1618462   1618026   1617867   1617924   1618102  
  8060.000000   1618293   1618398   1618355   1618125   1617710  
  8050.000000   1617115   1616370   1615492   1614503   1613411  
  8040.000000   1612222   1610945   1609607   1608271   1607035  
  8030.000000   1606036   1605403   1605234   1605533   1606202  
  8020.000000   1607038   1607790   1608216   1608158   1607587  
  8010.000000   1606598   1605383   1604153   1603078   1602233  
  8000.000000   1601595   1601056   1600472   1599718   1598715  
  7990.000000   1597462   1596021   1594506   1593055   1591788  
  7980.000000   1590788   1590068   1589578   1589205   1588824  
  7970.000000   1588330   1587696   1586982   1586332   1585924  
  7960.000000   1585902   1586320   1587108   1588086   1589016  
  7950.000000   1589679   1589941   1589790   1589324   1588707  
  7940.000000   1588100   1587606   1587247   1586956   1586628  
  7930.000000   1586142   1585420   1584429   1583196   1581791  
  7920.000000   1580315   1578890   1577638   1576673   1576085  
  7910.000000   1575927   1576200   1576855   1577797   1578901  
  7900.000000   1580029   1581052   1581864   1582396   1582630  
  7890.000000   1582593   1582365   1582049   1581756   1581565  
  7880.000000   1581501   1581526   1581549   1581469   1581211  
  7870.000000   1580767   1580189   1579586   1579062   1578691  
  7860.000000   1578474   1578365   1578288   1578187   1578057  
  7850.000000   1577935   1577876   1577910   1578005   1578077  
  7840.000000   1578014   1577739   1577244   1576610   1575975  
  7830.000000   1575471   1575173   1575059   1575027   1574942  
  7820.000000   1574701   1574272   1573704   1573098   1572545  
  7810.000000   1572099   1571746   1571441   1571142   1570854  
  7800.000000   1570633   1570560   1570688   1570992   1571359  
  7790.000000   1571605   1571545   1571062   1570155   1568948  
  7780.000000   1567650   1566491   1565648   1565211   1565163  
  7770.000000   1565410   1565812   1566223   1566509   1566564  
  7760.000000   1566312   1565723   1564814   1563671   1562433  
  7750.000000   1561279   1560378   1559845   1559700   1559858  
  7740.000000   1560148   1560361   1560304   1559852   1558973  
  7730.000000   1557730   1556257   1554720   1553282   1552073  
  7720.000000   1551168   1550587   1550302   1550249   1550350  
  7710.000000   1550529   1550725   1550896   1551014   1551055  
  7700.000000   1550999   1550816   1550491   1550023   1549449  
  7690.000000   1548834   1548264   1547818   1547534   1547400  
  7680.000000   1547348   1547286   1547125   1546824   1546394  
  7670.000000   1545895   1545409   1545005   1544716   1544531  
  7660.000000   1544410   1544302   1544170   1544001   1543805  
  7650.000000   1543602   1543409   1543231   1543063   1542893  
  7640.000000   1542709   1542498   1542250   1541948   1541581  
  7630.000000   1541148   1540670   1540197   1539801   1539555  
  7620.000000   1539508   1539665   1539978   1540367   1540748  
  7610.000000   1541059   1541292   1541479   1541677   1541925  
  7600.000000   1542225   1542531   1542769   1542868   1542793  
  7590.000000   1542566   1542266   1541994   1541851   1541891  
  7580.000000   1542115   1542468   1542868   1543227   1543484  
  7570.000000   1543612   1543635   1543609   1543618   1543751  
  7560.000000   1544092   1544697   1545590   1546749   1548118  
  7550.000000   1549598   1551085   1552464   1553654   1554595  
  7540.000000   1555280   1555728   1556002   1556182   1556372  
  7530.000000   1556673   1557179   1557949   1559002   1560306  
  7520.000000   1561784   1563328   1564825   1566174   1567321  
  7510.000000   1568253   1569016   1569679   1570340   1571084  
  7500.000000   1571987   1573081   1574362   1575781   1577264  
  7490.000000   1578725   1580099   1581347   1582490   1583583  
  7480.000000   1584713   1585960   1587377   1588966   1590701  
  7470.000000   1592525   1594396   1596290   1598213   1600186  
  7460.000000   1602225   1604317   1606421   1608468   1610399  
  7450.000000   1612178   1613816   1615362   1616895   1618485  
  7440.000000   1620178   1621980   1623860   1625767   1627656  
  7430.000000   1629493   1631280   1633035   1634799   1636608  
  7420.000000   1638490   1640448   1642466   1644510   1646543  
  7410.000000   1648542   1650512   1652488   1654532   1656703  
  7400.000000   1659032   1661496   1664016   1666476   1668757  
  7390.000000   1670790   1672590   1674253   1675930   1677768  
  7380.000000   1679858   1682192   1684663   1687109   1689369  
  7370.000000   1691346   1693028   1694488   1695848   1697238  
  7360.000000   1698753   1700446   1702316   1704346   1706494  
  7350.000000   1708723   1710978   1713201   1715327   1717300  
  7340.000000   1719095   1720723   1722229   1723667   1725075  
  7330.000000   1726456   1727784   1729034   1730208   1731366  
  7320.000000   1732612   1734078   1735852   1737953   1740291  
  7310.000000   1742701   1744990   1747012   1748712   1750132  
  7300.000000   1751389   1752602   1753843   1755110   1756339  
  7290.000000   1757446   1758377   1759146   1759831   1760545  
  7280.000000   1761389   1762422   1763637   1764980   1766363  
  7270.000000   1767712   1768977   1770146   1771244   1772315  
  7260.000000   1773416   1774600   1775919   1777393   1779022  
  7250.000000   1780755   1782514   1784191   1785703   1787005  
  7240.000000   1788133   1789183   1790309   1791649   1793309  
  7230.000000   1795308   1797604   1800096   1802686   1805286  
  7220.000000   1807857   1810380   1812873   1815349   1817837  
  7210.000000   1820361   1822966   1825689   1828581   1831651  
  7200.000000   1834887   1838217   1841561   1844823   1847953  
  7190.000000   1850938   1853830   1856700   1859640   1862706  
  7180.000000   1865933   1869316   1872843   1876495   1880281  
  7170.000000   1884203   1888274   1892469   1896756   1901059  
  7160.000000   1905322   1909480   1913524   1917457   1921341  
  7150.000000   1925235   1929234   1933415   1937867   1942639  
  7140.000000   1947762   1953208   1958922   1964802   1970751  
  7130.000000   1976664   1982490   1988198   1993822   1999402  
  7120.000000   2005014   2010707   2016535   2022504   2028618  
  7110.000000   2034841   2041143   2047476   2053812   2060130  
  7100.000000   2066447   2072797   2079243   2085831   2092592  
  7090.000000   2099503   2106504   2113503   2120419   2127199  
  7080.000000   2133853   2140431   2147014   2153671   2160440  
  7070.000000   2167305   2174221   2181129   2187989   2194784  
  7060.000000   2201529   2208243   2214944   2221632   2228300  
  7050.000000   2234943   2241574   2248219   2254910   2261660  
  7040.000000   2268454   2275252   2281999   2288660   2295231  
  7030.000000   2301752   2308275   2314855   2321499   2328177  
  7020.000000   2334808   2341315   2347625   2353718   2359599  
  7010.000000   2365304   2370859   2376288   2381589   2386779  
  7000.000000   2391870   2396909   2401929   2406969   2412012  
  6990.000000   2417030   2421950   2426734   2431350   2435828  
  6980.000000   2440200   2444512   2448757   2452900   2456861  
  6970.000000   2460581   2464024   2467224   2470247   2473190  
  6960.000000   2476107   2479023   2481897   2484684   2487337  
  6950.000000   2489866   2492307   2494734   2497189   2499692  
  6940.000000   2502200   2504656   2506990   2509177   2511221  
  6930.000000   2513171   2515074   2516971   2518865   2520744  
  6920.000000   2522576   2524347   2526041   2527662   2529202  
  6910.000000   2530651   2531986   2533201   2534305   2535344  
  6900.000000   2536376   2537459   2538613   2539818   2541007  
  6890.000000   2542110   2543071   2543894   2544631   2545373  
  6880.000000   2546204   2547172   2548269   2549441   2550605  
  6870.000000   2551692   2552660   2553507   2554257   2554944  
  6860.000000   2555593   2556220   2556832   2557441   2558062  
  6850.000000   2558721   2559433   2560206   2561023   2561859  
  6840.000000   2562678   2563455   2564166   2564805   2565363  
  6830.000000   2565835   2566214   2566504   2566715   2566873  
  6820.000000   2567006   2567142   2567288   2567439   2567574  
  6810.000000   2567678   2567741   2567777   2567799   2567824  
  6800.000000   2567842   2567827   2567738   2567545   2567238  
  6790.000000   2566848   2566427   2566037   2565720   2565491  
  6780.000000   2565326   2565192   2565047   2564871   2564653  
  6770.000000   2564403   2564121   2563808   2563460   2563080  
  6760.000000   2562687   2562314   2561994   2561742   2561535  
  6750.000000   2561312   2560994   2560515   2559858   2559066  
  6740.000000   2558237   2557490   2556922   2556578   2556430  
  6730.000000   2556405   2556404   2556353   2556214   2555998  
  6720.000000   2555736   2555466   2555196   2554911   2554570  
  6710.000000   2554124   2553537   2552790   2551888   2550852  
  6700.000000   2549718   2548533   2547347   2546220   2545195  
  6690.000000   2544309   2543566   2542949   2542415   2541924  
  6680.000000   2541435   2540931   2540397   2539828   2539200  
  6670.000000   2538480   2537624   2536603   2535410   2534080  
  6660.000000   2532669   2531246   2529854   2528506   2527167  
  6650.000000   2525791   2524324   2522752   2521090   2519394  
  6640.000000   2517725   2516141   2514665   2513298   2512013  
  6630.000000   2510782   2509578   2508384   2507186   2505970  
  6620.000000   2504716   2503405   2502018   2500552   2499013  
  6610.000000   2497424   2495806   2494183   2492567   2490966  
  6600.000000   2489384   2487826   2486291   2484774   2483253  
  6590.000000   2481699   2480076   2478360   2476547   2474661  
  6580.000000   2472751   2470871   2469071   2467375   2465784  
  6570.000000   2464278   2462828   2461409   2460003   2458601  
  6560.000000   2457193   2455771   2454324   2452847   2451350  
  6550.000000   2449855   2448397   2447001   2445681   2444419  
  6540.000000   2443175   2441900   2440554   2439124   2437626  
  6530.000000   2436103   2434605   2433172   2431823   2430552  
  6520.000000   2429342   2428170   2427023   2425894   2424784  
  6510.000000   2423692   2422614   2421540   2420462   2419380  
  6500.000000   2418302   2417246   2416230   2415263   2414336  
  6490.000000   2413422   2412484   2411479   2410376   2409164  
  6480.000000   2407854   2406480   2405087   2403723   2402421  
  6470.000000   2401199   2400050   2398948   2397860   2396760  
  6460.000000   2395636   2394498   2393374   2392292   2391273  
  6450.000000   2390314   2389390   2388466   2387512   2386516  
  6440.000000   2385497   2384492   2383548   2382694   2381936  
  6430.000000   2381245   2380579   2379890   2379153   2378365  
  6420.000000   2377553   2376750   2375987   2375276   2374617  
  6410.000000   2373998   2373409   2372849   2372328   2371857  
  6400.000000   2371443   2371082   2370757   2370449   2370139  
  6390.000000   2369820   2369490   2369148   2368791   2368406  
  6380.000000   2367976   2367488   2366939   2366344   2365731  
  6370.000000   2365130   2364566   2364046   2363556   2363076  
  6360.000000   2362580   2362058   2361509   2360953   2360410  
  6350.000000   2359900   2359426   2358982   2358545   2358089  
  6340.000000   2357584   2357011   2356361   2355640   2354864  
  6330.000000   2354060   2353250   2352453   2351668   2350881  
  6320.000000   2350063   2349186   2348226   2347181   2346060  
  6310.000000   2344894   2343708   2342526   2341351   2340181  
  6300.000000   2338998   2337796   2336564   2335303   2334001  
  6290.000000   2332650   2331227   2329717   2328107   2326414  
  6280.000000   2324665   2322913   2321198   2319553   2317975  
  6270.000000   2316446   2314924   2313375   2311771   2310105  
  6260.000000   2308377   2306600   2304780   2302928   2301055  
  6250.000000   2299184   2297347   2295573   2293877   2292242  
  6240.000000   2290619   2288938   2287130   2285156   2283021  
  6230.000000   2280778   2278511   2276303   2274211   2272249  
  6220.000000   2270389   2268581   2266774   2264939   2263073  
  6210.000000   2261198   2259345   2257540   2255796   2254106  
  6200.000000   2252457   2250829   2249206   2247572   2245922  
  6190.000000   2244248   2242553   2240846   2239148   2237483  
  6180.000000   2235874   2234334   2232862   2231441   2230052  
  6170.000000   2228676   2227306   2225945   2224605   2223291  
  6160.000000   2221998   2220704   2219384   2218011   2216575  
  6150.000000   2215083   2213557   2212026   2210513   2209027  
  6140.000000   2207568   2206127   2204695   2203274   2201871  
  6130.000000   2200499   2199170   2197892   2196668   2195496  
  6120.000000   2194376   2193305   2192280   2191288   2190313  
  6110.000000   2189331   2188324   2187284   2186223   2185165  
  6100.000000   2184148   2183196   2182327   2181533   2180798  
  6090.000000   2180093   2179406   2178728   2178075   2177456  
  6080.000000   2176890   2176373   2175906   2175471   2175071  
  6070.000000   2174701   2174384   2174134   2173980   2173927  
  6060.000000   2173989   2174150   2174407   2174739   2175147  
  6050.000000   2175619   2176167   2176792   2177517   2178352  
  6040.000000   2179323   2180433   2181693   2183082   2184585  
  6030.000000   2186163   2187799   2189469   2191185   2192956  
  6020.000000   2194810   2196753   2198792   2200901   2203057  
  6010.000000   2205220   2207379   2209521   2211663   2213818  
  6000.000000   2216008   2218235   2220505   2222808   2225152  
  5990.000000   2227537   2229993   2232536   2235197   2237982  
  5980.000000   2240895   2243915   2247027   2250202   2253436  
  5970.000000   2256717   2260058   2263460   2266939   2270494  
  5960.000000   2274128   2277824   2281572   2285344   2289124  
  5950.000000   2292891   2296641   2300375   2304114   2307877  
  5940.000000   2311695   2315588   2319570   2323647   2327813  
  5930.000000   2332061   2336376   2340742   2345132   2349513  
  5920.000000   2353838   2358059   2362125   2366000   2369665  
  5910.000000   2373126   2376404   2379535   2382556   2385514  
  5900.000000   2388441   2391382   2394359   2397403   2400513  
  5890.000000   2403685   2406883   2410071   2413198   2416236  
  5880.000000   2419162   2421980   2424697   2427326   2429867  
  5870.000000   2432312   2434647   2436864   2438965   2440975  
  5860.000000   2442929   2444871   2446838   2448855   2450936  
  5850.000000   2453090   2455322   2457638   2460044   2462538  
  5840.000000   2465109   2467733   2470381   2473026   2475652  
  5830.000000   2478256   2480846   2483430   2486008   2488569  
  5820.000000   2491092   2493552   2495933   2498228   2500443  
  5810.000000   2502592   2504680   2506724   2508715   2510672  
  5800.000000   2512589   2514503   2516416   2518365   2520328  
  5790.000000   2522299   2524208   2525998   2527561   2528809  
  5780.000000   2529624   2529920   2529604   2528644   2527033  
  5770.000000   2524851   2522219   2519322   2516342   2513461  
  5760.000000   2510789   2508397   2506276   2504400   2502708  
  5750.000000   2501168   2499748   2498444   2497249   2496156  
  5740.000000   2495152   2494215   2493334   2492490   2491684  
  5730.000000   2490902   2490146   2489396   2488649   2487891  
  5720.000000   2487131   2486378   2485657   2484982   2484366  
  5710.000000   2483804   2483293   2482825   2482408   2482055  
  5700.000000   2481783   2481605   2481511   2481478   2481464  
  5690.000000   2481437   2481368   2481258   2481113   2480958  
  5680.000000   2480793   2480615   2480388   2480074   2479616  
  5670.000000   2478976   2478112   2477005   2475635   2474005  
  5660.000000   2472128   2470046   2467815   2465516   2463218  
  5650.000000   2460986   2458846   2456805   2454839   2452927  
  5640.000000   2451047   2449197   2447384   2445614   2443892  
  5630.000000   2442211   2440564   2438948   2437379   2435881  
  5620.000000   2434488   2433213   2432057   2430986   2429958  
  5610.000000   2428926   2427867   2426780   2425691   2424629  
  5600.000000   2423620   2422668   2421758   2420863   2419962  
  5590.000000   2419043   2418105   2417157   2416199   2415227  
  5580.000000   2414227   2413187   2412107   2411003   2409897  
  5570.000000   2408817   2407770   2406747   2405715   2404642  
  5560.000000   2403499   2402283   2401010   2399715   2398435  
  5550.000000   2397194   2396001   2394848   2393723   2392609  
  5540.000000   2391498   2390384   2389264   2388136   2386996  
  5530.000000   2385848   2384703   2383580   2382499   2381474  
  5520.000000   2380504   2379572   2378649   2377706   2376720  
  5510.000000   2375685   2374603   2373488   2372345   2371178  
  5500.000000   2369983   2368763   2367522   2366276   2365040  
  5490.000000   2363825   2362616   2361392   2360111   2358742  
  5480.000000   2357262   2355677   2353999   2352261   2350481  
  5470.000000   2348679   2346858   2345025   2343185   2341352  
  5460.000000   2339532   2337727   2335916   2334066   2332143  
  5450.000000   2330124   2328013   2325842   2323662   2321522  
  5440.000000   2319457   2317473   2315560   2313698   2311880  
  5430.000000   2310107   2308396   2306749   2305163   2303610  
  5420.000000   2302069   2300519   2298983   2297496   2296131  
  5410.000000   2294930   2293927   2293091   2292390   2291760  
  5400.000000   2291182   2290647   2290198   2289869   2289711  
  5390.000000   2289727   2289922   2290263   2290748   2291364  
  5380.000000   2292144   2293091   2294231   2295530   2296979  
  5370.000000   2298520   2300153   2301857   2303680   2305633  
  5360.000000   2307779   2310112   2312677   2315448   2318482  
  5350.000000   2321776   2325418   2329420   2333860   2338713  
  5340.000000   2344020   2349722   2355869   2362417   2369443  
  5330.000000   2376910   2384883   2393293   2402180   2411467  
  5320.000000   2421228   2431437   2442232   2453624   2465764  
  5310.000000   2478630   2492323   2506768   2522029   2538026  
  5300.000000   2554840   2572421   2590879   2610184   2630439  
  5290.000000   2651588   2673679   2696591   2720289   2744606  
  5280.000000   2769497   2794852   2820720   2847110   2874150  
  5270.000000   2901871   2930304   2959334   2988794   3018449  
  5260.000000   3048096   3077610   3106947   3136157   3165269  
  5250.000000   3194307   3223153   3251675   3279620   3306852  
  5240.000000   3333205   3358732   3383436   3407499   3430951  
  5230.000000   3453919   3476313   3498131   3519181   3539429  
  5220.000000   3558722   3577128   3594610   3611338   3627331  
  5210.000000   3642751   3657549   3671778   3685276   3698028  
  5200.000000   3709874   3720868   3730960   3740306   3748915  
  5190.000000   3756936   3764326   3771154   3777316   3782851  
  5180.000000   3787670   3791851   3795346   3798243   3800490  
  5170.000000   3802151   3803165   3803606   3803449   3802803  
  5160.000000   3801671   3800156   3798233   3795958   3793275  
  5150.000000   3790227   3786782   3783009   3778903   3774533  
  5140.000000   3769880   3764981   3759803   3754380   3748703  
  5130.000000   3742837   3736802   3730665   3724433   3718140  
  5120.000000   3711767   3705327   3698808   3692232   3685601  
  5110.000000   3678940   3672250   3665541   3658807   3652058  
  5100.000000   3645302   3638568   3631874   3625249   3618699  
  5090.000000   3612225   3605811   3599441   3593094   3586759  
  5080.000000   3580423   3574084   3567733   3561368   3554981  
  5070.000000   3548573   3542142   3535691   3529216   3522718  
  5060.000000   3516187   3509621   3503013   3496373   3489702  
  5050.000000   3483016   3476315   3469601   3462858   3456074  
  5040.000000   3449231   3442328   3435367   3428367   3421347  
  5030.000000   3414323   3407308   3400306   3393324   3386368  
  5020.000000   3379459   3372619   3365881   3359263   3352783  
  5010.000000   3346433   3340212   3334098   3328097   3322201  
  5000.000000   3316448   3310850   3305459   3300285   3295366  
  4990.000000   3290687   3286268   3282076   3278129   3274397  
  4980.000000   3270912   3267654   3264668   3261946   3259539  
  4970.000000   3257435   3255684   3254259   3253196   3252452  
  4960.000000   3252053   3251955   3252193   3252737   3253639  
  4950.000000   3254883   3256525   3258539   3260968   3263768  
  4940.000000   3266967   3270512   3274429   3278669   3283261  
  4930.000000   3288163   3293411   3298970   3304883   3311124  
  4920.000000   3317735   3324685   3331999   3339630   3347583  
  4910.000000   3355806   3364303   3373043   3382040   3391276  
  4900.000000   3400759   3410458   3420346   3430369   3440471  
  4890.000000   3450591   3460671   3470666   3480524   3490221  
  4880.000000   3499709   3508979   3517985   3526723   3535138  
  4870.000000   3543219   3550898   3558158   3564927   3571208  
  4860.000000   3576956   3582208   3586954   3591257   3595121  
  4850.000000   3598613   3601737   3604558   3607086   3609390  
  4840.000000   3611484   3613430   3615238   3616951   3618570  
  4830.000000   3620129   3621632   3623115   3624587   3626076  
  4820.000000   3627581   3629109   3630645   3632182   3633710  
  4810.000000   3635228   3636739   3638249   3639760   3641270  
  4800.000000   3642774   3644268   3645756   3647252   3648780  
  4790.000000   3650364   3652023   3653767   3655583   3657450  
  4780.000000   3659335   3661211   3663048   3664833   3666549  
  4770.000000   3668192   3669747   3671207   3672555   3673791  
  4760.000000   3674907   3675917   3676824   3677650   3678398  
  4750.000000   3679082   3679690   3680221   3680653   3680982  
  4740.000000   3681188   3681278   3681251   3681132   3680938  
  4730.000000   3680699   3680433   3680154   3679859   3679541  
  4720.000000   3679180   3678760   3678276   3677731   3677147  
  4710.000000   3676552   3675983   3675469   3675040   3674709  
  4700.000000   3674492   3674393   3674426   3674598   3674924  
  4690.000000   3675414   3676078   3676911   3677909   3679046  
  4680.000000   3680296   3681610   3682951   3684257   3685492  
  4670.000000   3686608   3687597   3688450   3689205   3689901  
  4660.000000   3690609   3691387   3692304   3693403   3694722  
  4650.000000   3696266   3698037   3700013   3702175   3704492  
  4640.000000   3706938   3709488   3712120   3714814   3717549  
  4630.000000   3720304   3723053   3725764   3728400   3730929  
  4620.000000   3733311   3735522   3737533   3739339   3740928  
  4610.000000   3742311   3743487   3744485   3745310   3745998  
  4600.000000   3746557   3747019   3747383   3747670   3747861  
  4590.000000   3747962   3747941   3747798   3747502   3747057  
  4580.000000   3746445   3745681   3744763   3743715   3742544  
  4570.000000   3741277   3739923   3738503   3737019   3735487  
  4560.000000   3733903   3732278   3730608   3728905   3727169  
  4550.000000   3725406   3723618   3721807   3719974   3718124  
  4540.000000   3716269   3714423   3712613   3710859   3709187  
  4530.000000   3707600   3706111   3704696   3703359   3702074  
  4520.000000   3700863   3699721   3698706   3697831   3697172  
  4510.000000   3696734   3696589   3696727   3697221   3698060  
  4500.000000   3699336   3701054   3703326   3706156   3709650  
  4490.000000   3713792   3718660   3724211   3730508   3737499  
  4480.000000   3745246   3753702   3762931   3772882   3783599  
  4470.000000   3795003   3807094   3819758   3832962   3846581  
  4460.000000   3860582   3874866   3889419   3904171   3919116  
  4450.000000   3934195   3949392   3964661   3979986   3995343  
  4440.000000   4010725   4026127   4041522   4056898   4072191  
  4430.000000   4087372   4102355   4117118   4131582   4145744  
  4420.000000   4159526   4172927   4185849   4198272   4210081  
  4410.000000   4221258   4231699   4241414   4250341   4258531  
  4400.000000   4265965   4272727   4278831   4284379   4289407  
  4390.000000   4294030   4298299   4302330   4306174   4309928  
  4380.000000   4313624   4317325   4321048   4324843   4328731  
  4370.000000   4332773   4337006   4341486   4346238   4351274  
  4360.000000   4356573   4362103   4367800   4373622   4379491  
  4350.000000   4385385   4391220   4397000   4402652   4408211  
  4340.000000   4413634   4418968   4424141   4429086   4433552  
  4330.000000   4437224   4439634   4440343   4438960   4435337  
  4320.000000   4429578   4422118   4413588   4404758   4396311  
  4310.000000   4388798   4382485   4377441   4373516   4370508  
  4300.000000   4368184   4366386   4365015   4364021   4363392  
  4290.000000   4363081   4363068   4363282   4363713   4364327  
  4280.000000   4365154   4366202   4367495   4369030   4370777  
  4270.000000   4372702   4374733   4376800   4378770   4380485  
  4260.000000   4381707   4382176   4381617   4379834   4376728  
  4250.000000   4372382   4367013   4360982   4354679   4348504  
  4240.000000   4342736   4337572   4333044   4329115   4325652  
  4230.000000   4322522   4319579   4316710   4313829   4310875  
  4220.000000   4307836   4304704   4301536   4298381   4295349  
  4210.000000   4292511   4289976   4287784   4285984   4284551  
  4200.000000   4283466   4282655   4282068   4281623   4281289  
  4190.000000   4281011   4280803   4280644   4280587   4280632  
  4180.000000   4280843   4281216   4281809   4282614   4283693  
  4170.000000   4285052   4286776   4288885   4291466   4294519  
  4160.000000   4298093   4302143   4306680   4311635   4317028  
  4150.000000   4322806   4329019   4335633   4342706   4350197  
  4140.000000   4358150   4366512   4375320   4384526   4394177  
  4130.000000   4404229   4414729   4425630   4436967   4448692  
  4120.000000   4460843   4473393   4486397   4499848   4513808  
  4110.000000   4528264   4543249   4558714   4574635   4590920  
  4100.000000   4607506   4624287   4641207   4658198   4675246  
  4090.000000   4692344   4709513   4726775   4744145   4761639  
  4080.000000   4779240   4796949   4814718   4832533   4850308  
  4070.000000   4867999   4885477   4902676   4919461   4935797  
  4060.000000   4951588   4966859   4981549   4995707   5009267  
  4050.000000   5022280   5034675   5046521   5057759   5068463  
  4040.000000   5078551   5088062   5096867   5104987   5112303  
  4030.000000   5118882   5124666   5129758   5134119   5137819  
  4020.000000   5140758   5142982   5144444   5145221   5145278  
  4010.000000   5144769   5143782   5142361   5140314   5137695  
  4000.000000   5134781  
##END= 
