##TITLE= Sample 016 By ssteindl date Dienstag, November 20 2018
##JCAMP-DX= 4.24
##DATA TYPE= INFRARED SPECTRUM
##ORIGIN= Exported PE Spectrum Data File
##OWNER= Sandra Steindl
##DATE= 18/11/20
##TIME= 14:18:13.00
##SPECTROMETER/DATA SYSTEM= PERKIN-ELMER Frontier FT-IR/NIR IR
##INSTRUMENT PARAMETERS=
  APODIZATION=stark
  DETECTOR=INGAAS
##RESOLUTION= 16.000000
##DELTAX= -2.000000
##XUNITS= 1/CM
##YUNITS= A
##XFACTOR= 1.00
##YFACTOR= 0.00000011920928955078
##FIRSTX= 10000.00
##LASTX= 4000.00
##NPOINTS= 3001
##FIRSTY= 0.224962
##MAXY= 0.609225
##MINY= 0.197563
##XYDATA= (X++(Y..Y))
 10000.000000   1887121   1880722   1874221   1867944   1862864  
  9990.000000   1859610   1857715   1855828   1852710   1847609  
  9980.000000   1840422   1831615   1822383   1814135   1808128  
  9970.000000   1804968   1804589   1806187   1808562   1810450  
  9960.000000   1811072   1810307   1808833   1807749   1808178  
  9950.000000   1810726   1815281   1820993   1826724   1831411  
  9940.000000   1834563   1836288   1837221   1838141   1839613  
  9930.000000   1841767   1844277   1846612   1848306   1849226  
  9920.000000   1849570   1849761   1850136   1850847   1851715  
  9910.000000   1852467   1852806   1852657   1852089   1851276  
  9900.000000   1850318   1849171   1847670   1845647   1843044  
  9890.000000   1839995   1836749   1833577   1830612   1827832  
  9880.000000   1825100   1822343   1819671   1817436   1816093  
  9870.000000   1815969   1817059   1818898   1820753   1821819  
  9860.000000   1821618   1820095   1817670   1814975   1812612  
  9850.000000   1810948   1810051   1809864   1810317   1811506  
  9840.000000   1813601   1816722   1820739   1825151   1829203  
  9830.000000   1832011   1832921   1831620   1828265   1823325  
  9820.000000   1817434   1811232   1805326   1800348   1796977  
  9810.000000   1795902   1797595   1802086   1808726   1816231  
  9800.000000   1822934   1827285   1828358   1826175   1821726  
  9790.000000   1816570   1812339   1810157   1810408   1812712  
  9780.000000   1816217   1819960   1823141   1825318   1826320  
  9770.000000   1826209   1825100   1823192   1820741   1818119  
  9760.000000   1815773   1814079   1813203   1812983   1812972  
  9750.000000   1812641   1811584   1809771   1807495   1805319  
  9740.000000   1803758   1803108   1803302   1803966   1804594  
  9730.000000   1804719   1804106   1802731   1800777   1798440  
  9720.000000   1795899   1793252   1790590   1788064   1785874  
  9710.000000   1784264   1783389   1783304   1783930   1785151  
  9700.000000   1786866   1789020   1791529   1794170   1796495  
  9690.000000   1797877   1797698   1795600   1791730   1786759  
  9680.000000   1781764   1777842   1775773   1775698   1777092  
  9670.000000   1778947   1780135   1779848   1777824   1774445  
  9660.000000   1770516   1767000   1764726   1764181   1765475  
  9650.000000   1768307   1772098   1776037   1779286   1781093  
  9640.000000   1781028   1779106   1775840   1772159   1769130  
  9630.000000   1767664   1768191   1770542   1774016   1777645  
  9620.000000   1780556   1782230   1782622   1782031   1780870  
  9610.000000   1779423   1777748   1775719   1773215   1770296  
  9600.000000   1767307   1764835   1763504   1763779   1765698  
  9590.000000   1768927   1772745   1776382   1779151   1780677  
  9580.000000   1780920   1780101   1778596   1776756   1774817  
  9570.000000   1772825   1770644   1768040   1764786   1760815  
  9560.000000   1756287   1751638   1747430   1744223   1742302  
  9550.000000   1741582   1741587   1741601   1740970   1739288  
  9540.000000   1736606   1733322   1730052   1727339   1725492  
  9530.000000   1724505   1724171   1724279   1724787   1725873  
  9520.000000   1727801   1730720   1734459   1738492   1742088  
  9510.000000   1744539   1745443   1744770   1742862   1740186  
  9500.000000   1737180   1734074   1730941   1727807   1724814  
  9490.000000   1722294   1720657   1720230   1721005   1722618  
  9480.000000   1724417   1725751   1726233   1725888   1725144  
  9470.000000   1724565   1724608   1725350   1726499   1727536  
  9460.000000   1728026   1727849   1727294   1726906   1727226  
  9450.000000   1728515   1730631   1733084   1735252   1736622  
  9440.000000   1736972   1736402   1735230   1733852   1732583  
  9430.000000   1731652   1731176   1731262   1731967   1733298  
  9420.000000   1735116   1737110   1738819   1739753   1739534  
  9410.000000   1738047   1735461   1732186   1728711   1725481  
  9400.000000   1722791   1720797   1719527   1718968   1719031  
  9390.000000   1719571   1720323   1720922   1720988   1720217  
  9380.000000   1718546   1716137   1713372   1710642   1708234  
  9370.000000   1706211   1704494   1702991   1701751   1701044  
  9360.000000   1701242   1702684   1705411   1709096   1713053  
  9350.000000   1716469   1718706   1719489   1719006   1717715  
  9340.000000   1716130   1714550   1712953   1711078   1708656  
  9330.000000   1705676   1702502   1699763   1698097   1697845  
  9320.000000   1698887   1700625   1702173   1702673   1701625  
  9310.000000   1699082   1695635   1692205   1689744   1688996  
  9300.000000   1690297   1693576   1698348   1703890   1709367  
  9290.000000   1714011   1717231   1718706   1718421   1716635  
  9280.000000   1713813   1710447   1706954   1703534   1700239  
  9270.000000   1697004   1693790   1690643   1687692   1685149  
  9260.000000   1683182   1681896   1681272   1681224   1681672  
  9250.000000   1682583   1683981   1685854   1688101   1690477  
  9240.000000   1692665   1694376   1695511   1696211   1696854  
  9230.000000   1697848   1699445   1701553   1703741   1705364  
  9220.000000   1705821   1704801   1702420   1699219   1695939  
  9210.000000   1693292   1691658   1691079   1691250   1691772  
  9200.000000   1692250   1692489   1692466   1692290   1692048  
  9190.000000   1691739   1691245   1690362   1688925   1686834  
  9180.000000   1684164   1681059   1677750   1674444   1671350  
  9170.000000   1668650   1666526   1665147   1664664   1665167  
  9160.000000   1666645   1668955   1671826   1674919   1677885  
  9150.000000   1680434   1682401   1683758   1684669   1685368  
  9140.000000   1686147   1687197   1688585   1690153   1691552  
  9130.000000   1692352   1692186   1690945   1688799   1686281  
  9120.000000   1684083   1682923   1683222   1685025   1687912  
  9110.000000   1691168   1693955   1695544   1695504   1693771  
  9100.000000   1690634   1686591   1682216   1678032   1674445  
  9090.000000   1671704   1669892   1668973   1668817   1669247  
  9080.000000   1670042   1671015   1672018   1672975   1673836  
  9070.000000   1674543   1675033   1675202   1674977   1674315  
  9060.000000   1673298   1672115   1671043   1670350   1670188  
  9050.000000   1670557   1671282   1672094   1672697   1672886  
  9040.000000   1672599   1671914   1670980   1669952   1668939  
  9030.000000   1667980   1667057   1666145   1665249   1664411  
  9020.000000   1663701   1663184   1662898   1662830   1662913  
  9010.000000   1663046   1663124   1663059   1662805   1662371  
  9000.000000   1661827   1661294   1660913   1660808   1661041  
  8990.000000   1661579   1662301   1663020   1663564   1663796  
  8980.000000   1663663   1663175   1662411   1661454   1660397  
  8970.000000   1659315   1658333   1657598   1657282   1657518  
  8960.000000   1658334   1659624   1661141   1662611   1663843  
  8950.000000   1664837   1665800   1667059   1668894   1671365  
  8940.000000   1674205   1676873   1678742   1679347   1678624  
  8930.000000   1676946   1675026   1673618   1673220   1673880  
  8920.000000   1675173   1676413   1676928   1676375   1674873  
  8910.000000   1672966   1671384   1670771   1671405   1673130  
  8900.000000   1675403   1677545   1678969   1679380   1678834  
  8890.000000   1677679   1676405   1675471   1675139   1675420  
  8880.000000   1676093   1676789   1677115   1676757   1675587  
  8870.000000   1673685   1671332   1668937   1666910   1665557  
  8860.000000   1664981   1665081   1665605   1666258   1666813  
  8850.000000   1667182   1667425   1667686   1668098   1668698  
  8840.000000   1669411   1670055   1670450   1670466   1670114  
  8830.000000   1669500   1668811   1668218   1667857   1667779  
  8820.000000   1667991   1668444   1669089   1669849   1670651  
  8810.000000   1671397   1672019   1672495   1672908   1673446  
  8800.000000   1674365   1675917   1678261   1681389   1685113  
  8790.000000   1689111   1693016   1696511   1699378   1701542  
  8780.000000   1703024   1703927   1704373   1704505   1704479  
  8770.000000   1704454   1704557   1704838   1705226   1705520  
  8760.000000   1705431   1704683   1703135   1700873   1698222  
  8750.000000   1695659   1693674   1692623   1692631   1693587  
  8740.000000   1695196   1697138   1699164   1701192   1703261  
  8730.000000   1705479   1707906   1710493   1713089   1715445  
  8720.000000   1717339   1718579   1719097   1718875   1717973  
  8710.000000   1716474   1714507   1712265   1710008   1708081  
  8700.000000   1706835   1706576   1707435   1709334   1711960  
  8690.000000   1714854   1717507   1719498   1720604   1720827  
  8680.000000   1720414   1719726   1719169   1719039   1719496  
  8670.000000   1720507   1721916   1723483   1724982   1726260  
  8660.000000   1727280   1728117   1728899   1729767   1730796  
  8650.000000   1731993   1733299   1734633   1735947   1737239  
  8640.000000   1738572   1740022   1741640   1743388   1745131  
  8630.000000   1746656   1747761   1748309   1748310   1747922  
  8620.000000   1747437   1747194   1747485   1748483   1750188  
  8610.000000   1752464   1755060   1757721   1760230   1762486  
  8600.000000   1764494   1766344   1768162   1770029   1771959  
  8590.000000   1773838   1775489   1776690   1777284   1777227  
  8580.000000   1776635   1775782   1775032   1774765   1775257  
  8570.000000   1776631   1778803   1781527   1784440   1787165  
  8560.000000   1789391   1790943   1791800   1792095   1792060  
  8550.000000   1791984   1792122   1792656   1793647   1795037  
  8540.000000   1796656   1798275   1799655   1800617   1801060  
  8530.000000   1800987   1800468   1799612   1798540   1797349  
  8520.000000   1796137   1794985   1793997   1793268   1792900  
  8510.000000   1792948   1793413   1794239   1795329   1796597  
  8500.000000   1797983   1799492   1801184   1803136   1805406  
  8490.000000   1807968   1810724   1813477   1816015   1818108  
  8480.000000   1819594   1820378   1820476   1819998   1819145  
  8470.000000   1818200   1817486   1817326   1817941   1819428  
  8460.000000   1821689   1824464   1827353   1829949   1831941  
  8450.000000   1833196   1833769   1833867   1833773   1833734  
  8440.000000   1833888   1834252   1834758   1835327   1835908  
  8430.000000   1836527   1837229   1838090   1839108   1840223  
  8420.000000   1841288   1842131   1842617   1842665   1842280  
  8410.000000   1841500   1840397   1839029   1837455   1835747  
  8400.000000   1834026   1832487   1831376   1830946   1831357  
  8390.000000   1832636   1834626   1837030   1839465   1841572  
  8380.000000   1843112   1844003   1844329   1844258   1843997  
  8370.000000   1843699   1843447   1843245   1843065   1842896  
  8360.000000   1842766   1842756   1842934   1843336   1843898  
  8350.000000   1844485   1844886   1844908   1844416   1843417  
  8340.000000   1842059   1840597   1839309   1838427   1838067  
  8330.000000   1838202   1838670   1839221   1839596   1839594  
  8320.000000   1839118   1838185   1836910   1835475   1834086  
  8310.000000   1832932   1832140   1831765   1831784   1832117  
  8300.000000   1832639   1833215   1833725   1834074   1834213  
  8290.000000   1834119   1833796   1833252   1832506   1831579  
  8280.000000   1830514   1829382   1828280   1827328   1826631  
  8270.000000   1826275   1826282   1826631   1827233   1827978  
  8260.000000   1828732   1829374   1829797   1829924   1829710  
  8250.000000   1829144   1828257   1827109   1825789   1824389  
  8240.000000   1822987   1821639   1820358   1819147   1817993  
  8230.000000   1816925   1815983   1815240   1814734   1814460  
  8220.000000   1814324   1814169   1813801   1813048   1811827  
  8210.000000   1810165   1808204   1806150   1804211   1802532  
  8200.000000   1801163   1800068   1799154   1798321   1797492  
  8190.000000   1796635   1795735   1794788   1793770   1792649  
  8180.000000   1791407   1790058   1788678   1787375   1786268  
  8170.000000   1785429   1784845   1784411   1783953   1783303  
  8160.000000   1782361   1781137   1779752   1778391   1777231  
  8150.000000   1776370   1775785   1775339   1774829   1774066  
  8140.000000   1772952   1771517   1769905   1768330   1766990  
  8130.000000   1766016   1765420   1765109   1764911   1764633  
  8120.000000   1764117   1763274   1762106   1760696   1759177  
  8110.000000   1757696   1756377   1755287   1754425   1753724  
  8100.000000   1753076   1752364   1751499   1750454   1749270  
  8090.000000   1748046   1746895   1745904   1745095   1744410  
  8080.000000   1743743   1742968   1742005   1740841   1739549  
  8070.000000   1738252   1737087   1736152   1735477   1735032  
  8060.000000   1734736   1734513   1734310   1734110   1733924  
  8050.000000   1733751   1733569   1733304   1732867   1732163  
  8040.000000   1731146   1729822   1728267   1726598   1724945  
  8030.000000   1723427   1722133   1721124   1720436   1720094  
  8020.000000   1720102   1720433   1721017   1721734   1722432  
  8010.000000   1722947   1723155   1722987   1722465   1721674  
  8000.000000   1720750   1719830   1719026   1718406   1717989  
  7990.000000   1717754   1717656   1717637   1717631   1717581  
  7980.000000   1717431   1717145   1716711   1716141   1715471  
  7970.000000   1714746   1714012   1713303   1712643   1712052  
  7960.000000   1711546   1711146   1710864   1710692   1710583  
  7950.000000   1710461   1710224   1709792   1709134   1708297  
  7940.000000   1707404   1706609   1706058   1705809   1705827  
  7930.000000   1705962   1706024   1705825   1705271   1704372  
  7920.000000   1703261   1702130   1701184   1700571   1700355  
  7910.000000   1700521   1700997   1701706   1702582   1703594  
  7900.000000   1704725   1705954   1707230   1708460   1709528  
  7890.000000   1710306   1710697   1710643   1710155   1709301  
  7880.000000   1708201   1707006   1705876   1704958   1704361  
  7870.000000   1704141   1704274   1704673   1705181   1705626  
  7860.000000   1705844   1705741   1705306   1704631   1703880  
  7850.000000   1703238   1702869   1702850   1703161   1703677  
  7840.000000   1704215   1704586   1704643   1704333   1703701  
  7830.000000   1702886   1702068   1701431   1701108   1701150  
  7820.000000   1701510   1702066   1702643   1703064   1703188  
  7810.000000   1702952   1702375   1701559   1700651   1699802  
  7800.000000   1699125   1698652   1698336   1698061   1697689  
  7790.000000   1697111   1696289   1695287   1694240   1693334  
  7780.000000   1692729   1692517   1692683   1693113   1693627  
  7770.000000   1694038   1694205   1694068   1693655   1693058  
  7760.000000   1692390   1691743   1691164   1690647   1690153  
  7750.000000   1689631   1689046   1688391   1687684   1686962  
  7740.000000   1686261   1685614   1685044   1684565   1684186  
  7730.000000   1683903   1683694   1683512   1683289   1682948  
  7720.000000   1682434   1681730   1680884   1679994   1679186  
  7710.000000   1678571   1678208   1678083   1678114   1678186  
  7700.000000   1678190   1678067   1677824   1677524   1677248  
  7690.000000   1677058   1676958   1676886   1676741   1676418  
  7680.000000   1675860   1675075   1674149   1673202   1672359  
  7670.000000   1671703   1671258   1670996   1670854   1670765  
  7660.000000   1670681   1670576   1670448   1670302   1670143  
  7650.000000   1669973   1669799   1669630   1669487   1669385  
  7640.000000   1669333   1669314   1669295   1669242   1669139  
  7630.000000   1669008   1668911   1668927   1669111   1669463  
  7620.000000   1669904   1670289   1670457   1670276   1669708  
  7610.000000   1668814   1667755   1666724   1665895   1665364  
  7600.000000   1665136   1665145   1665298   1665523   1665799  
  7590.000000   1666161   1666666   1667363   1668254   1669278  
  7580.000000   1670334   1671295   1672067   1672588   1672864  
  7570.000000   1672936   1672879   1672765   1672660   1672609  
  7560.000000   1672641   1672775   1673020   1673382   1673863  
  7550.000000   1674458   1675154   1675922   1676722   1677496  
  7540.000000   1678182   1678718   1679079   1679264   1679335  
  7530.000000   1679377   1679505   1679800   1680305   1680995  
  7520.000000   1681802   1682642   1683462   1684272   1685157  
  7510.000000   1686241   1687642   1689416   1691526   1693832  
  7500.000000   1696131   1698206   1699901   1701152   1702007  
  7490.000000   1702587   1703058   1703573   1704245   1705121  
  7480.000000   1706189   1707399   1708679   1709966   1711211  
  7470.000000   1712391   1713506   1714580   1715650   1716753  
  7460.000000   1717923   1719171   1720496   1721872   1723284  
  7450.000000   1724713   1726164   1727651   1729198   1730820  
  7440.000000   1732521   1734283   1736086   1737900   1739711  
  7430.000000   1741509   1743296   1745064   1746801   1748483  
  7420.000000   1750092   1751616   1753074   1754507   1755974  
  7410.000000   1757526   1759197   1760985   1762858   1764764  
  7400.000000   1766653   1768496   1770293   1772072   1773875  
  7390.000000   1775741   1777689   1779715   1781783   1783847  
  7380.000000   1785848   1787745   1789515   1791165   1792726  
  7370.000000   1794247   1795777   1797354   1798987   1800654  
  7360.000000   1802305   1803880   1805327   1806623   1807785  
  7350.000000   1808871   1809960   1811143   1812484   1814018  
  7340.000000   1815739   1817617   1819602   1821644   1823696  
  7330.000000   1825719   1827671   1829518   1831232   1832796  
  7320.000000   1834217   1835516   1836733   1837910   1839082  
  7310.000000   1840267   1841459   1842634   1843757   1844804  
  7300.000000   1845765   1846661   1847538   1848464   1849503  
  7290.000000   1850706   1852086   1853612   1855204   1856761  
  7280.000000   1858179   1859384   1860347   1861100   1861721  
  7270.000000   1862309   1862955   1863701   1864545   1865432  
  7260.000000   1866291   1867054   1867698   1868242   1868755  
  7250.000000   1869329   1870063   1871025   1872253   1873737  
  7240.000000   1875441   1877298   1879250   1881236   1883230  
  7230.000000   1885219   1887224   1889269   1891392   1893602  
  7220.000000   1895907   1898273   1900672   1903057   1905411  
  7210.000000   1907725   1910030   1912358   1914752   1917234  
  7200.000000   1919820   1922506   1925298   1928202   1931239  
  7190.000000   1934419   1937743   1941166   1944629   1948043  
  7180.000000   1951348   1954510   1957566   1960579   1963648  
  7170.000000   1966837   1970186   1973672   1977259   1980894  
  7160.000000   1984566   1988286   1992106   1996062   2000181  
  7150.000000   2004435   2008778   2013137   2017476   2021775  
  7140.000000   2026081   2030438   2034909   2039504   2044222  
  7130.000000   2049015   2053862   2058743   2063700   2068781  
  7120.000000   2074064   2079593   2085386   2091405   2097590  
  7110.000000   2103852   2110126   2116342   2122476   2128502  
  7100.000000   2134437   2140291   2146110   2151926   2157791  
  7090.000000   2163730   2169765   2175886   2182080   2188324  
  7080.000000   2194614   2200960   2207387   2213919   2220570  
  7070.000000   2227319   2234125   2240924   2247662   2254298  
  7060.000000   2260830   2267272   2273659   2280019   2286371  
  7050.000000   2292718   2299053   2305375   2311687   2318008  
  7040.000000   2324356   2330752   2337197   2343678   2350153  
  7030.000000   2356568   2362853   2368943   2374782   2380342  
  7020.000000   2385630   2390698   2395624   2400511   2405446  
  7010.000000   2410500   2415691   2421010   2426400   2431812  
  7000.000000   2437181   2442473   2447650   2452696   2457583  
  6990.000000   2462295   2466813   2471148   2475325   2479397  
  6980.000000   2483411   2487417   2491418   2495405   2499330  
  6970.000000   2503162   2506866   2510450   2513918   2517293  
  6960.000000   2520570   2523738   2526760   2529619   2532308  
  6950.000000   2534866   2537343   2539806   2542289   2544804  
  6940.000000   2547308   2549744   2552042   2554166   2556098  
  6930.000000   2557870   2559528   2561145   2562776   2564475  
  6920.000000   2566266   2568155   2570107   2572065   2573940  
  6910.000000   2575649   2577115   2578318   2579280   2580088  
  6900.000000   2580850   2581676   2582633   2583735   2584929  
  6890.000000   2586132   2587248   2588215   2589010   2589669  
  6880.000000   2590259   2590868   2591569   2592415   2593425  
  6870.000000   2594583   2595839   2597124   2598364   2599492  
  6860.000000   2600465   2601271   2601932   2602497   2603021  
  6850.000000   2603558   2604137   2604774   2605464   2606203  
  6840.000000   2606981   2607794   2608623   2609438   2610184  
  6830.000000   2610801   2611231   2611452   2611477   2611367  
  6820.000000   2611202   2611068   2611018   2611075   2611223  
  6810.000000   2611436   2611682   2611952   2612240   2612550  
  6800.000000   2612870   2613174   2613416   2613553   2613553  
  6790.000000   2613412   2613150   2612806   2612419   2612022  
  6780.000000   2611629   2611250   2610884   2610538   2610212  
  6770.000000   2609908   2609610   2609299   2608947   2608535  
  6760.000000   2608055   2607516   2606938   2606345   2605752  
  6750.000000   2605167   2604592   2604034   2603511   2603048  
  6740.000000   2602670   2602387   2602180   2602005   2601796  
  6730.000000   2601495   2601061   2600492   2599823   2599111  
  6720.000000   2598420   2597802   2597285   2596869   2596528  
  6710.000000   2596220   2595892   2595489   2594961   2594283  
  6700.000000   2593455   2592526   2591569   2590688   2589966  
  6690.000000   2589461   2589164   2589018   2588916   2588746  
  6680.000000   2588408   2587845   2587041   2586019   2584816  
  6670.000000   2583481   2582054   2580582   2579108   2577686  
  6660.000000   2576361   2575166   2574098   2573123   2572170  
  6650.000000   2571160   2570023   2568723   2567264   2565689  
  6640.000000   2564063   2562452   2560907   2559454   2558092  
  6630.000000   2556805   2555563   2554345   2553131   2551917  
  6620.000000   2550700   2549483   2548258   2547014   2545726  
  6610.000000   2544371   2542931   2541409   2539830   2538238  
  6600.000000   2536680   2535192   2533777   2532406   2531027  
  6590.000000   2529583   2528043   2526410   2524728   2523056  
  6580.000000   2521448   2519926   2518474   2517049   2515604  
  6570.000000   2514119   2512608   2511119   2509711   2508426  
  6560.000000   2507265   2506192   2505144   2504061   2502913  
  6550.000000   2501704   2500473   2499262   2498103   2496994  
  6540.000000   2495906   2494797   2493630   2492386   2491075  
  6530.000000   2489718   2488342   2486966   2485595   2484230  
  6520.000000   2482875   2481545   2480266   2479064   2477960  
  6510.000000   2476956   2476033   2475153   2474277   2473365  
  6500.000000   2472396   2471369   2470303   2469232   2468200  
  6490.000000   2467246   2466396   2465655   2464999   2464382  
  6480.000000   2463747   2463040   2462228   2461304   2460284  
  6470.000000   2459198   2458076   2456934   2455782   2454626  
  6460.000000   2453483   2452388   2451381   2450501   2449757  
  6450.000000   2449121   2448529   2447904   2447181   2446335  
  6440.000000   2445389   2444400   2443439   2442551   2441751  
  6430.000000   2441010   2440289   2439550   2438792   2438037  
  6420.000000   2437331   2436712   2436192   2435757   2435375  
  6410.000000   2435012   2434657   2434316   2434013   2433759  
  6400.000000   2433550   2433354   2433135   2432860   2432528  
  6390.000000   2432168   2431829   2431560   2431385   2431298  
  6380.000000   2431266   2431246   2431205   2431127   2431013  
  6370.000000   2430869   2430688   2430448   2430115   2429665  
  6360.000000   2429090   2428417   2427694   2426979   2426311  
  6350.000000   2425713   2425175   2424686   2424227   2423801  
  6340.000000   2423411   2423065   2422744   2422415   2422022  
  6330.000000   2421512   2420848   2420030   2419088   2418077  
  6320.000000   2417048   2416044   2415077   2414146   2413230  
  6310.000000   2412317   2411392   2410454   2409494   2408511  
  6300.000000   2407491   2406431   2405330   2404198   2403046  
  6290.000000   2401884   2400705   2399493   2398221   2396873  
  6280.000000   2395442   2393954   2392442   2390952   2389513  
  6270.000000   2388135   2386801   2385478   2384126   2382717  
  6260.000000   2381233   2379677   2378057   2376392   2374697  
  6250.000000   2372993   2371297   2369629   2367998   2366410  
  6240.000000   2364854   2363309   2361752   2360163   2358536  
  6230.000000   2356879   2355208   2353541   2351888   2350252  
  6220.000000   2348626   2347004   2345385   2343775   2342181  
  6210.000000   2340604   2339036   2337456   2335837   2334161  
  6200.000000   2332428   2330659   2328896   2327187   2325570  
  6190.000000   2324068   2322676   2321372   2320121   2318884  
  6180.000000   2317632   2316343   2315009   2313632   2312228  
  6170.000000   2310818   2309427   2308076   2306775   2305521  
  6160.000000   2304295   2303069   2301818   2300526   2299192  
  6150.000000   2297826   2296447   2295069   2293701   2292342  
  6140.000000   2290988   2289642   2288311   2287013   2285764  
  6130.000000   2284576   2283452   2282384   2281359   2280368  
  6120.000000   2279404   2278463   2277543   2276629   2275707  
  6110.000000   2274754   2273760   2272725   2271668   2270618  
  6100.000000   2269610   2268665   2267796   2266998   2266268  
  6090.000000   2265600   2265005   2264486   2264054   2263695  
  6080.000000   2263385   2263080   2262750   2262370   2261955  
  6070.000000   2261537   2261176   2260917   2260801   2260834  
  6060.000000   2261009   2261296   2261673   2262107   2262588  
  6050.000000   2263093   2263621   2264159   2264725   2265328  
  6040.000000   2266013   2266807   2267752   2268852   2270102  
  6030.000000   2271464   2272911   2274407   2275953   2277556  
  6020.000000   2279242   2281021   2282896   2284834   2286804  
  6010.000000   2288765   2290702   2292612   2294523   2296454  
  6000.000000   2298435   2300466   2302551   2304674   2306841  
  5990.000000   2309051   2311325   2313669   2316094   2318589  
  5980.000000   2321150   2323767   2326457   2329235   2332138  
  5970.000000   2335181   2338368   2341667   2345036   2348416  
  5960.000000   2351780   2355108   2358422   2361744   2365107  
  5950.000000   2368515   2371965   2375431   2378896   2382352  
  5940.000000   2385814   2389311   2392877   2396537   2400296  
  5930.000000   2404142   2408042   2411959   2415853   2419692  
  5920.000000   2423447   2427097   2430621   2434012   2437266  
  5910.000000   2440395   2443415   2446349   2449211   2452017  
  5900.000000   2454770   2457482   2460160   2462829   2465511  
  5890.000000   2468234   2471008   2473836   2476694   2479551  
  5880.000000   2482364   2485096   2487711   2490186   2492507  
  5870.000000   2494673   2496699   2498614   2500462   2502298  
  5860.000000   2504169   2506114   2508147   2510263   2512440  
  5850.000000   2514658   2516897   2519154   2521431   2523731  
  5840.000000   2526053   2528385   2530714   2533029   2535331  
  5830.000000   2537636   2539965   2542334   2544744   2547176  
  5820.000000   2549593   2551959   2554240   2556428   2558527  
  5810.000000   2560559   2562535   2564469   2566350   2568184  
  5800.000000   2569952   2571676   2573350   2575004   2576617  
  5790.000000   2578185   2579648   2580962   2582043   2582840  
  5780.000000   2583278   2583319   2582915   2582056   2580740  
  5770.000000   2579019   2576964   2574695   2572322   2569968  
  5760.000000   2567706   2565588   2563611   2561768   2560036  
  5750.000000   2558411   2556895   2555504   2554247   2553125  
  5740.000000   2552127   2551232   2550421   2549671   2548974  
  5730.000000   2548307   2547658   2547001   2546326   2545621  
  5720.000000   2544908   2544213   2543580   2543034   2542586  
  5710.000000   2542211   2541873   2541524   2541138   2540717  
  5700.000000   2540289   2539900   2539592   2539391   2539292  
  5690.000000   2539272   2539291   2539316   2539311   2539263  
  5680.000000   2539151   2538968   2538689   2538305   2537792  
  5670.000000   2537144   2536346   2535395   2534276   2532985  
  5660.000000   2531514   2529879   2528103   2526241   2524347  
  5650.000000   2522478   2520670   2518940   2517279   2515672  
  5640.000000   2514098   2512549   2511025   2509532   2508077  
  5630.000000   2506663   2505292   2503966   2502694   2501485  
  5620.000000   2500350   2499285   2498274   2497285   2496285  
  5610.000000   2495243   2494155   2493033   2491909   2490814  
  5600.000000   2489774   2488793   2487864   2486971   2486105  
  5590.000000   2485264   2484453   2483673   2482914   2482153  
  5580.000000   2481355   2480491   2479548   2478535   2477478  
  5570.000000   2476410   2475355   2474320   2473291   2472250  
  5560.000000   2471175   2470060   2468907   2467731   2466541  
  5550.000000   2465342   2464129   2462896   2461641   2460374  
  5540.000000   2459109   2457867   2456655   2455473   2454307  
  5530.000000   2453145   2451981   2450821   2449681   2448578  
  5520.000000   2447520   2446496   2445485   2444455   2443381  
  5510.000000   2442250   2441062   2439829   2438566   2437286  
  5500.000000   2435998   2434716   2433449   2432218   2431029  
  5490.000000   2429883   2428759   2427620   2426422   2425131  
  5480.000000   2423727   2422226   2420655   2419057   2417463  
  5470.000000   2415892   2414340   2412796   2411238   2409657  
  5460.000000   2408039   2406378   2404661   2402874   2401002  
  5450.000000   2399044   2397012   2394942   2392876   2390853  
  5440.000000   2388899   2387020   2385211   2383464   2381782  
  5430.000000   2380171   2378648   2377205   2375830   2374483  
  5420.000000   2373135   2371762   2370388   2369053   2367834  
  5410.000000   2366783   2365940   2365283   2364779   2364363  
  5400.000000   2364006   2363681   2363412   2363210   2363112  
  5390.000000   2363114   2363226   2363429   2363739   2364160  
  5380.000000   2364740   2365495   2366455   2367597   2368912  
  5370.000000   2370345   2371893   2373528   2375285   2377161  
  5360.000000   2379206   2381405   2383802   2386380   2389204  
  5350.000000   2392285   2395717   2399516   2403756   2408403  
  5340.000000   2413485   2418937   2424793   2431007   2437638  
  5330.000000   2444648   2452091   2459907   2468139   2476736  
  5320.000000   2485788   2495295   2505402   2516121   2527580  
  5310.000000   2539731   2552632   2566180   2580412   2595247  
  5300.000000   2610777   2626983   2644007   2661860   2680676  
  5290.000000   2700424   2721162   2742769   2765197   2788261  
  5280.000000   2811894   2835967   2860517   2885547   2911189  
  5270.000000   2937480   2964466   2992040   3020050   3048264  
  5260.000000   3076496   3104626   3132636   3160590   3188545  
  5250.000000   3216533   3244445   3272133   3299328   3325864  
  5240.000000   3351562   3376458   3400568   3424079   3447044  
  5230.000000   3469594   3491650   3513191   3534021   3554082  
  5220.000000   3573218   3591487   3608858   3625503   3641449  
  5210.000000   3656862   3671700   3686019   3699671   3712643  
  5200.000000   3724779   3736129   3746631   3756419   3765479  
  5190.000000   3773932   3781721   3788900   3795371   3801185  
  5180.000000   3806283   3810767   3814624   3817971   3820776  
  5170.000000   3823111   3824909   3826219   3826988   3827286  
  5160.000000   3827086   3826466   3825390   3823913   3821988  
  5150.000000   3819665   3816921   3813829   3810387   3806669  
  5140.000000   3802660   3798408   3793885   3789131   3784137  
  5130.000000   3778958   3773604   3768124   3762513   3756793  
  5120.000000   3750940   3744967   3738863   3732656   3726356  
  5110.000000   3719999   3713596   3707174   3700736   3694306  
  5100.000000   3687892   3681519   3675196   3668934   3662724  
  5090.000000   3656559   3650418   3644295   3638182   3632087  
  5080.000000   3626014   3619973   3613959   3607965   3601970  
  5070.000000   3595960   3589915   3583829   3577686   3571484  
  5060.000000   3565209   3558857   3552415   3545888   3539277  
  5050.000000   3532603   3525879   3519126   3512348   3505553  
  5040.000000   3498729   3491875   3484980   3478049   3471088  
  5030.000000   3464113   3457140   3450188   3443272   3436403  
  5020.000000   3429593   3422840   3416152   3409524   3402965  
  5010.000000   3396473   3390071   3383764   3377586   3371549  
  5000.000000   3365686   3359997   3354509   3349206   3344108  
  4990.000000   3339199   3334506   3330019   3325774   3321762  
  4980.000000   3318014   3314508   3311269   3308267   3305533  
  4970.000000   3303045   3300851   3298940   3297366   3296115  
  4960.000000   3295230   3294677   3294489   3294622   3295107  
  4950.000000   3295903   3297045   3298493   3300282   3302369  
  4940.000000   3304789   3307503   3310553   3313911   3317624  
  4930.000000   3321663   3326072   3330816   3335927   3341368  
  4920.000000   3347170   3353300   3359791   3366617   3373805  
  4910.000000   3381324   3389184   3397344   3405797   3414493  
  4900.000000   3423412   3432500   3441732   3451059   3460452  
  4890.000000   3469871   3479280   3488646   3497924   3507086  
  4880.000000   3516085   3524903   3533497   3541855   3549928  
  4870.000000   3557703   3565118   3572159   3578773   3584970  
  4860.000000   3590726   3596089   3601061   3605705   3610023  
  4850.000000   3614068   3617833   3621361   3624648   3627741  
  4840.000000   3630642   3633399   3636014   3638526   3640932  
  4830.000000   3643262   3645518   3647726   3649886   3652011  
  4820.000000   3654091   3656125   3658101   3660022   3661889  
  4810.000000   3663723   3665537   3667353   3669180   3671022  
  4800.000000   3672879   3674754   3676650   3678584   3680565  
  4790.000000   3682604   3684692   3686813   3688929   3691009  
  4780.000000   3693022   3694960   3696824   3698638   3700419  
  4770.000000   3702188   3703945   3705686   3707387   3709033  
  4760.000000   3710600   3712084   3713470   3714765   3715959  
  4750.000000   3717055   3718042   3718921   3719680   3720325  
  4740.000000   3720848   3721258   3721553   3721747   3721846  
  4730.000000   3721870   3721829   3721746   3721625   3721478  
  4720.000000   3721297   3721081   3720820   3720513   3720164  
  4710.000000   3719785   3719396   3719020   3718680   3718397  
  4700.000000   3718193   3718082   3718080   3718194   3718436  
  4690.000000   3718804   3719298   3719903   3720610   3721395  
  4680.000000   3722243   3723125   3724023   3724904   3725749  
  4670.000000   3726526   3727228   3727844   3728398   3728915  
  4660.000000   3729455   3730070   3730826   3731769   3732935  
  4650.000000   3734330   3735949   3737761   3739735   3741829  
  4640.000000   3744009   3746247   3748525   3750830   3753157  
  4630.000000   3755500   3757851   3760198   3762520   3764788  
  4620.000000   3766967   3769021   3770908   3772603   3774079  
  4610.000000   3775340   3776388   3777258   3777974   3778583  
  4600.000000   3779109   3779587   3780021   3780431   3780806  
  4590.000000   3781155   3781458   3781716   3781898   3781993  
  4580.000000   3781959   3781780   3781423   3780889   3780176  
  4570.000000   3779312   3778320   3777240   3776092   3774898  
  4560.000000   3773658   3772379   3771050   3769681   3768274  
  4550.000000   3766848   3765413   3763982   3762557   3761131  
  4540.000000   3759696   3758238   3756753   3755239   3753711  
  4530.000000   3752179   3750679   3749225   3747862   3746606  
  4520.000000   3745505   3744563   3743828   3743285   3742974  
  4510.000000   3742872   3743028   3743431   3744163   3745241  
  4500.000000   3746772   3748777   3751358   3754506   3758295  
  4490.000000   3762687   3767739   3773408   3779753   3786729  
  4480.000000   3794387   3802667   3811601   3821111   3831213  
  4470.000000   3841829   3852976   3864585   3876669   3889155  
  4460.000000   3902036   3915229   3928703   3942369   3956190  
  4450.000000   3970092   3984049   3998019   4011998   4025979  
  4440.000000   4039969   4053979   4068007   4082058   4096094  
  4430.000000   4110101   4124005   4137773   4151309   4164585  
  4420.000000   4177501   4190048   4202137   4213768   4224855  
  4410.000000   4235390   4245269   4254473   4262902   4270557  
  4400.000000   4277388   4283463   4288806   4293548   4297763  
  4390.000000   4301597   4305125   4308471   4311687   4314869  
  4380.000000   4318049   4321294   4324617   4328061   4331624  
  4370.000000   4335326   4339164   4343151   4347287   4351581  
  4360.000000   4356029   4360628   4365354   4370196   4375102  
  4350.000000   4380060   4385001   4389926   4394777   4399584  
  4340.000000   4404311   4408987   4413535   4417875   4421773  
  4330.000000   4424952   4427020   4427626   4426466   4423445  
  4320.000000   4418662   4412481   4405410   4398067   4390995  
  4310.000000   4384641   4379226   4374824   4371328   4368592  
  4300.000000   4366427   4364700   4363314   4362214   4361378  
  4290.000000   4360768   4360377   4360161   4360121   4360236  
  4280.000000   4360523   4360980   4361608   4362397   4363315  
  4270.000000   4364336   4365402   4366456   4367388   4368065  
  4260.000000   4368294   4367872   4366594   4364324   4361014  
  4250.000000   4356755   4351743   4346280   4340681   4335266  
  4240.000000   4330255   4325801   4321925   4318593   4315687  
  4230.000000   4313093   4310679   4308341   4306000   4303591  
  4220.000000   4301091   4298475   4295775   4293008   4290255  
  4210.000000   4287571   4285058   4282774   4280796   4279144  
  4200.000000   4277838   4276843   4276137   4275656   4275373  
  4190.000000   4275229   4275223   4275319   4275543   4275869  
  4180.000000   4276336   4276922   4277672   4278573   4279686  
  4170.000000   4281021   4282663   4284634   4287025   4289847  
  4160.000000   4293169   4296976   4301308   4306122   4311444  
  4150.000000   4317217   4323458   4330104   4337171   4344598  
  4140.000000   4352418   4360582   4369141   4378058   4387384  
  4130.000000   4397069   4407146   4417552   4428315   4439391  
  4120.000000   4450833   4462642   4474902   4487635   4500915  
  4110.000000   4514740   4529129   4544021   4559373   4575075  
  4100.000000   4591054   4607200   4623462   4639780   4656154  
  4090.000000   4672583   4689094   4705707   4722429   4739264  
  4080.000000   4756185   4773183   4790207   4807242   4824210  
  4070.000000   4841074   4857718   4874088   4890062   4905612  
  4060.000000   4920652   4935203   4949202   4962686   4975584  
  4050.000000   4987935   4999677   5010886   5021529   5031709  
  4040.000000   5041380   5050607   5059282   5067423   5074897  
  4030.000000   5081732   5087829   5093243   5097906   5101864  
  4020.000000   5105024   5107448   5109130   5110171   5110551  
  4010.000000   5110423   5109867   5108884   5107225   5104920  
  4000.000000   5102282  
##END= 
