##TITLE= Sample 007 By ssteindl date Dienstag, November 20 2018
##JCAMP-DX= 4.24
##DATA TYPE= INFRARED SPECTRUM
##ORIGIN= Exported PE Spectrum Data File
##OWNER= Sandra Steindl
##DATE= 18/11/20
##TIME= 14:01:43.00
##SPECTROMETER/DATA SYSTEM= PERKIN-ELMER Frontier FT-IR/NIR IR
##INSTRUMENT PARAMETERS=
  APODIZATION=stark
  DETECTOR=INGAAS
##RESOLUTION= 16.000000
##DELTAX= -2.000000
##XUNITS= 1/CM
##YUNITS= A
##XFACTOR= 1.00
##YFACTOR= 0.00000011920928955078
##FIRSTX= 10000.00
##LASTX= 4000.00
##NPOINTS= 3001
##FIRSTY= 0.201225
##MAXY= 0.574680
##MINY= 0.177925
##XYDATA= (X++(Y..Y))
 10000.000000   1687996   1682575   1677189   1672171   1668136  
  9990.000000   1665278   1663140   1660866   1658048   1654786  
  9980.000000   1651547   1648758   1646681   1645225   1644069  
  9970.000000   1642926   1641898   1641538   1642614   1645705  
  9960.000000   1650785   1657062   1663187   1667697   1669607  
  9950.000000   1668677   1665515   1661164   1656726   1652852  
  9940.000000   1649635   1646684   1643501   1639841   1635928  
  9930.000000   1632427   1630131   1629674   1631181   1634322  
  9920.000000   1638352   1642477   1646056   1648768   1650658  
  9910.000000   1651951   1652993   1653999   1655061   1656056  
  9900.000000   1656745   1656813   1656008   1654224   1651605  
  9890.000000   1648591   1645832   1644085   1643917   1645537  
  9880.000000   1648614   1652373   1655802   1657988   1658426  
  9870.000000   1657158   1654740   1652002   1649745   1648478  
  9860.000000   1648303   1648968   1650047   1651153   1652076  
  9850.000000   1652841   1653576   1654434   1655389   1656303  
  9840.000000   1656908   1657002   1656514   1655550   1654365  
  9830.000000   1653210   1652249   1651444   1650545   1649158  
  9820.000000   1646863   1643397   1638794   1633439   1628042  
  9810.000000   1623437   1620373   1619260   1620014   1622080  
  9800.000000   1624547   1626496   1627256   1626694   1625232  
  9790.000000   1623726   1623148   1624210   1627098   1631318  
  9780.000000   1635859   1639426   1640902   1639635   1635671  
  9770.000000   1629708   1622854   1616329   1611112   1607765  
  9760.000000   1606367   1606572   1607816   1609454   1610947  
  9750.000000   1611919   1612134   1611507   1610031   1607862  
  9740.000000   1605348   1603059   1601767   1602210   1604900  
  9730.000000   1609816   1616281   1623042   1628525   1631353  
  9720.000000   1630757   1626911   1620902   1614403   1609141  
  9710.000000   1606292   1606123   1607906   1610265   1611661  
  9700.000000   1610975   1607847   1602728   1596690   1590962  
  9690.000000   1586604   1584171   1583750   1585052   1587643  
  9680.000000   1591117   1595121   1599340   1603390   1606802  
  9670.000000   1609048   1609707   1608554   1605762   1601777  
  9660.000000   1597355   1593228   1590010   1587999   1587148  
  9650.000000   1587180   1587661   1588272   1588867   1589611  
  9640.000000   1590862   1593045   1596400   1600806   1605716  
  9630.000000   1610230   1613406   1614511   1613371   1610391  
  9620.000000   1606508   1602846   1600359   1599539   1600259  
  9610.000000   1601936   1603769   1605129   1605749   1605809  
  9600.000000   1605739   1605994   1606764   1607894   1608933  
  9590.000000   1609365   1608849   1607377   1605288   1603113  
  9580.000000   1601372   1600396   1600257   1600789   1601695  
  9570.000000   1602613   1603211   1603197   1602362   1600615  
  9560.000000   1598020   1594879   1591675   1589073   1587704  
  9550.000000   1588033   1590156   1593756   1598150   1602468  
  9540.000000   1605864   1607693   1607612   1605576   1601820  
  9530.000000   1596774   1591036   1585301   1580261   1576506  
  9520.000000   1574353   1573791   1574444   1575699   1576887  
  9510.000000   1577474   1577225   1576167   1574548   1572593  
  9500.000000   1570446   1568066   1565405   1562529   1559791  
  9490.000000   1557829   1557384   1559068   1563048   1568972  
  9480.000000   1575985   1583003   1588976   1593155   1595210  
  9470.000000   1595191   1593438   1590399   1586575   1582437  
  9460.000000   1578453   1575043   1572514   1570994   1570318  
  9450.000000   1570128   1569901   1569245   1567967   1566229  
  9440.000000   1564421   1562995   1562260   1562194   1562514  
  9430.000000   1562741   1562491   1561572   1560112   1558431  
  9420.000000   1556936   1555942   1555597   1555903   1556782  
  9410.000000   1558168   1560015   1562287   1564862   1567515  
  9400.000000   1569888   1571625   1572449   1572326   1571462  
  9390.000000   1570246   1569082   1568202   1567591   1566987  
  9380.000000   1566000   1564274   1561578   1557920   1553508  
  9370.000000   1548761   1544171   1540260   1537421   1535886  
  9360.000000   1535634   1536405   1537717   1538969   1539599  
  9350.000000   1539229   1537803   1535551   1532926   1530376  
  9340.000000   1528259   1526667   1525541   1524659   1523848  
  9330.000000   1523004   1522179   1521489   1521054   1520935  
  9320.000000   1521137   1521674   1522608   1524089   1526274  
  9310.000000   1529233   1532851   1536800   1540626   1543862  
  9300.000000   1546187   1547492   1547880   1547557   1546711  
  9290.000000   1545411   1543648   1541408   1538818   1536195  
  9280.000000   1533957   1532508   1531986   1532267   1532918  
  9270.000000   1533468   1533571   1533233   1532818   1532864  
  9260.000000   1533804   1535677   1538045   1540099   1540974  
  9250.000000   1540098   1537472   1533731   1529948   1527238  
  9240.000000   1526327   1527344   1529784   1532724   1535120  
  9230.000000   1536153   1535498   1533338   1530254   1526958  
  9220.000000   1524080   1522010   1520857   1520484   1520620  
  9210.000000   1520976   1521350   1521685   1522033   1522542  
  9200.000000   1523355   1524565   1526141   1527911   1529617  
  9190.000000   1530929   1531579   1531382   1530335   1528596  
  9180.000000   1526455   1524278   1522422   1521206   1520825  
  9170.000000   1521344   1522632   1524434   1526377   1528077  
  9160.000000   1529177   1529461   1528901   1527641   1525966  
  9150.000000   1524166   1522503   1521074   1519864   1518732  
  9140.000000   1517548   1516237   1514829   1513476   1512384  
  9130.000000   1511803   1511923   1512874   1514675   1517254  
  9120.000000   1520426   1523896   1527265   1530094   1531989  
  9110.000000   1532688   1532133   1530492   1528147   1525561  
  9100.000000   1523155   1521181   1519688   1518528   1517433  
  9090.000000   1516154   1514547   1512645   1510602   1508665  
  9080.000000   1507071   1505996   1505497   1505528   1505966  
  9070.000000   1506655   1507441   1508190   1508821   1509307  
  9060.000000   1509698   1510077   1510550   1511164   1511886  
  9050.000000   1512558   1512945   1512806   1512002   1510572  
  9040.000000   1508755   1506950   1505589   1504984   1505182  
  9030.000000   1505963   1506900   1507513   1507443   1506583  
  9020.000000   1505142   1503544   1502263   1501638   1501744  
  9010.000000   1502397   1503219   1503835   1504017   1503800  
  9000.000000   1503452   1503360   1503832   1504962   1506541  
  8990.000000   1508111   1509130   1509130   1507935   1505656  
  8980.000000   1502710   1499613   1496865   1494780   1493444  
  8970.000000   1492762   1492541   1492624   1492932   1493522  
  8960.000000   1494519   1496056   1498176   1500796   1503710  
  8950.000000   1506597   1509113   1510923   1511843   1511807  
  8940.000000   1510938   1509482   1507793   1506236   1505094  
  8930.000000   1504522   1504503   1504921   1505571   1506300  
  8920.000000   1507013   1507737   1508523   1509432   1510437  
  8910.000000   1511416   1512173   1512488   1512228   1511363  
  8900.000000   1510003   1508334   1506573   1504894   1503411  
  8890.000000   1502180   1501247   1500653   1500452   1500655  
  8880.000000   1501213   1501998   1502814   1503490   1503920  
  8870.000000   1504159   1504397   1504926   1506029   1507859  
  8860.000000   1510382   1513321   1516243   1518621   1519988  
  8850.000000   1519997   1518538   1515749   1512060   1508083  
  8840.000000   1504528   1502037   1501042   1501644   1503551  
  8830.000000   1506191   1508873   1511043   1512434   1513167  
  8820.000000   1513671   1514491   1516045   1518425   1521367  
  8810.000000   1524320   1526709   1528114   1528469   1528024  
  8800.000000   1527244   1526593   1526340   1526505   1526871  
  8790.000000   1527156   1527149   1526844   1526426   1526212  
  8780.000000   1526479   1527384   1528865   1530689   1532516  
  8770.000000   1534008   1534944   1535224   1534925   1534192  
  8760.000000   1533244   1532264   1531413   1530786   1530426  
  8750.000000   1530344   1530538   1531057   1531989   1533482  
  8740.000000   1535653   1538554   1542083   1545978   1549833  
  8730.000000   1553177   1555613   1556906   1557069   1556312  
  8720.000000   1554981   1553428   1551938   1550682   1549723  
  8710.000000   1549079   1548759   1548790   1549186   1549927  
  8700.000000   1550906   1551958   1552872   1553481   1553705  
  8690.000000   1553603   1553362   1553240   1553526   1554422  
  8680.000000   1556045   1558344   1561142   1564099   1566784  
  8670.000000   1568732   1569575   1569171   1567689   1565623  
  8660.000000   1563706   1562713   1563242   1565503   1569234  
  8650.000000   1573741   1578120   1581513   1583386   1583649  
  8640.000000   1582658   1581043   1579506   1578626   1578745  
  8630.000000   1579945   1582099   1584989   1588379   1592071  
  8620.000000   1595849   1599503   1602787   1605486   1607442  
  8610.000000   1608610   1609091   1609065   1608775   1608409  
  8600.000000   1608092   1607856   1607666   1607491   1607315  
  8590.000000   1607221   1607320   1607778   1608716   1610204  
  8580.000000   1612210   1614590   1617113   1619473   1621378  
  8570.000000   1622575   1622955   1622555   1621607   1620464  
  8560.000000   1619536   1619185   1619630   1620914   1622870  
  8550.000000   1625233   1627691   1630005   1632022   1633717  
  8540.000000   1635153   1636407   1637529   1638462   1639106  
  8530.000000   1639291   1638899   1637877   1636333   1634512  
  8520.000000   1632776   1631537   1631145   1631838   1633640  
  8510.000000   1636399   1639787   1643428   1646963   1650136  
  8500.000000   1652826   1655031   1656835   1658322   1659561  
  8490.000000   1660546   1661253   1661639   1661692   1661455  
  8480.000000   1661022   1660542   1660162   1660053   1660336  
  8470.000000   1661096   1662303   1663827   1665435   1666827  
  8460.000000   1667702   1667851   1667248   1666072   1664677  
  8450.000000   1663490   1662890   1663088   1664074   1665638  
  8440.000000   1667471   1669277   1670871   1672199   1673320  
  8430.000000   1674315   1675225   1676000   1676540   1676760  
  8420.000000   1676690   1676489   1676423   1676790   1677800  
  8410.000000   1679512   1681766   1684263   1686629   1688556  
  8400.000000   1689845   1690453   1690459   1690020   1689303  
  8390.000000   1688453   1687565   1686705   1685904   1685185  
  8380.000000   1684552   1684001   1683514   1683077   1682669  
  8370.000000   1682274   1681873   1681446   1680966   1680403  
  8360.000000   1679738   1678992   1678248   1677650   1677370  
  8350.000000   1677560   1678301   1679555   1681157   1682822  
  8340.000000   1684221   1685044   1685105   1684362   1682948  
  8330.000000   1681123   1679231   1677613   1676524   1676090  
  8320.000000   1676285   1676969   1677925   1678938   1679827  
  8310.000000   1680514   1680987   1681309   1681539   1681723  
  8300.000000   1681869   1681947   1681927   1681769   1681463  
  8290.000000   1681003   1680388   1679597   1678593   1677346  
  8280.000000   1675860   1674221   1672580   1671149   1670122  
  8270.000000   1669642   1669732   1670308   1671175   1672102  
  8260.000000   1672873   1673340   1673444   1673199   1672681  
  8250.000000   1671981   1671196   1670387   1669583   1668781  
  8240.000000   1667954   1667075   1666130   1665146   1664187  
  8230.000000   1663361   1662764   1662453   1662380   1662409  
  8220.000000   1662320   1661903   1661012   1659657   1657996  
  8210.000000   1656319   1654924   1654025   1653648   1653624  
  8200.000000   1653641   1653350   1652476   1650897   1648677  
  8190.000000   1646021   1643202   1640471   1638008   1635892  
  8180.000000   1634126   1632658   1631424   1630362   1629421  
  8170.000000   1628570   1627788   1627083   1626478   1626006  
  8160.000000   1625699   1625555   1625540   1625572   1625563  
  8150.000000   1625421   1625098   1624583   1623903   1623089  
  8140.000000   1622159   1621106   1619919   1618611   1617235  
  8130.000000   1615903   1614741   1613873   1613347   1613147  
  8120.000000   1613162   1613253   1613274   1613121   1612742  
  8110.000000   1612116   1611243   1610102   1608674   1606937  
  8100.000000   1604917   1602701   1600435   1598316   1596528  
  8090.000000   1595223   1594469   1594261   1594515   1595091  
  8080.000000   1595814   1596475   1596866   1596787   1596110  
  8070.000000   1594794   1592937   1590759   1588572   1586700  
  8060.000000   1585404   1584813   1584888   1585459   1586270  
  8050.000000   1587068   1587654   1587923   1587848   1587457  
  8040.000000   1586796   1585910   1584848   1583666   1582446  
  8030.000000   1581282   1580270   1579470   1578883   1578452  
  8020.000000   1578066   1577614   1577003   1576201   1575233  
  8010.000000   1574170   1573105   1572120   1571270   1570572  
  8000.000000   1570011   1569553   1569158   1568792   1568437  
  7990.000000   1568091   1567765   1567470   1567213   1566978  
  7980.000000   1566734   1566434   1566041   1565539   1564958  
  7970.000000   1564359   1563826   1563425   1563173   1563028  
  7960.000000   1562895   1562672   1562290   1561754   1561150  
  7950.000000   1560612   1560272   1560201   1560369   1560647  
  7940.000000   1560851   1560806   1560416   1559688   1558738  
  7930.000000   1557739   1556864   1556230   1555874   1555755  
  7920.000000   1555790   1555893   1556002   1556099   1556190  
  7910.000000   1556303   1556454   1556653   1556900   1557191  
  7900.000000   1557530   1557916   1558344   1558778   1559160  
  7890.000000   1559403   1559422   1559154   1558586   1557772  
  7880.000000   1556821   1555879   1555087   1554552   1554312  
  7870.000000   1554337   1554529   1554761   1554904   1554867  
  7860.000000   1554616   1554172   1553601   1552983   1552381  
  7850.000000   1551832   1551342   1550910   1550550   1550302  
  7840.000000   1550237   1550424   1550890   1551595   1552411  
  7830.000000   1553156   1553641   1553738   1553432   1552834  
  7820.000000   1552148   1551604   1551375   1551516   1551945  
  7810.000000   1552471   1552868   1552945   1552611   1551892  
  7800.000000   1550902   1549802   1548736   1547801   1547036  
  7790.000000   1546442   1546001   1545701   1545532   1545478  
  7780.000000   1545489   1545491   1545387   1545096   1544583  
  7770.000000   1543880   1543081   1542307   1541670   1541223  
  7760.000000   1540944   1540745   1540505   1540124   1539553  
  7750.000000   1538820   1538013   1537255   1536655   1536278  
  7740.000000   1536116   1536101   1536120   1536049   1535793  
  7730.000000   1535304   1534606   1533770   1532909   1532120  
  7720.000000   1531472   1530960   1530527   1530073   1529509  
  7710.000000   1528792   1527960   1527133   1526474   1526146  
  7700.000000   1526246   1526776   1527632   1528632   1529571  
  7690.000000   1530267   1530614   1530581   1530219   1529613  
  7680.000000   1528869   1528072   1527292   1526575   1525956  
  7670.000000   1525460   1525103   1524885   1524785   1524770  
  7660.000000   1524794   1524816   1524801   1524731   1524596  
  7650.000000   1524396   1524139   1523835   1523514   1523213  
  7640.000000   1522978   1522852   1522860   1522996   1523226  
  7630.000000   1523499   1523760   1523979   1524151   1524296  
  7620.000000   1524438   1524593   1524749   1524874   1524932  
  7610.000000   1524891   1524751   1524534   1524283   1524033  
  7600.000000   1523806   1523595   1523378   1523132   1522850  
  7590.000000   1522548   1522265   1522053   1521962   1522026  
  7580.000000   1522256   1522645   1523172   1523796   1524470  
  7570.000000   1525124   1525693   1526106   1526330   1526364  
  7560.000000   1526264   1526118   1526033   1526098   1526363  
  7550.000000   1526826   1527437   1528121   1528808   1529444  
  7540.000000   1530013   1530517   1530980   1531418   1531852  
  7530.000000   1532289   1532744   1533226   1533754   1534337  
  7520.000000   1534984   1535694   1536474   1537335   1538303  
  7510.000000   1539402   1540649   1542026   1543485   1544932  
  7500.000000   1546272   1547421   1548354   1549103   1549762  
  7490.000000   1550441   1551248   1552235   1553404   1554702  
  7480.000000   1556058   1557413   1558747   1560079   1561463  
  7470.000000   1562953   1564583   1566342   1568183   1570020  
  7460.000000   1571770   1573350   1574720   1575875   1576863  
  7450.000000   1577767   1578698   1579769   1581081   1582692  
  7440.000000   1584600   1586737   1588982   1591186   1593214  
  7430.000000   1594967   1596425   1597636   1598721   1599822  
  7420.000000   1601080   1602583   1604357   1606360   1608502  
  7410.000000   1610673   1612781   1614780   1616674   1618517  
  7400.000000   1620383   1622339   1624421   1626611   1628846  
  7390.000000   1631028   1633064   1634885   1636474   1637869  
  7380.000000   1639152   1640435   1641814   1643367   1645114  
  7370.000000   1647041   1649086   1651172   1653214   1655147  
  7360.000000   1656923   1658530   1659981   1661311   1662564  
  7350.000000   1663777   1664978   1666171   1667347   1668489  
  7340.000000   1669587   1670649   1671708   1672821   1674050  
  7330.000000   1675459   1677087   1678948   1681012   1683218  
  7320.000000   1685483   1687711   1689810   1691698   1693323  
  7310.000000   1694664   1695739   1696598   1697316   1697982  
  7300.000000   1698672   1699452   1700363   1701431   1702654  
  7290.000000   1704021   1705498   1707043   1708592   1710078  
  7280.000000   1711434   1712609   1713576   1714342   1714945  
  7270.000000   1715445   1715907   1716389   1716938   1717583  
  7260.000000   1718339   1719209   1720186   1721243   1722346  
  7250.000000   1723442   1724490   1725455   1726349   1727208  
  7240.000000   1728112   1729132   1730335   1731732   1733309  
  7230.000000   1735010   1736790   1738616   1740501   1742469  
  7220.000000   1744569   1746814   1749204   1751686   1754206  
  7210.000000   1756696   1759124   1761473   1763768   1766035  
  7200.000000   1768318   1770644   1773052   1775568   1778227  
  7190.000000   1781044   1784024   1787124   1790286   1793419  
  7180.000000   1796460   1799368   1802179   1804962   1807831  
  7170.000000   1810870   1814142   1817628   1821285   1825029  
  7160.000000   1828806   1832581   1836372   1840206   1844126  
  7150.000000   1848149   1852285   1856524   1860872   1865332  
  7140.000000   1869931   1874666   1879529   1884447   1889345  
  7130.000000   1894118   1898717   1903122   1907409   1911683  
  7120.000000   1916095   1920757   1925747   1931066   1936669  
  7110.000000   1942474   1948415   1954436   1960529   1966690  
  7100.000000   1972930   1979223   1985536   1991787   1997911  
  7090.000000   2003840   2009567   2015121   2020597   2026106  
  7080.000000   2031769   2037672   2043857   2050304   2056955  
  7070.000000   2063726   2070547   2077369   2084178   2090975  
  7060.000000   2097767   2104538   2111262   2117893   2124402  
  7050.000000   2130776   2137034   2143210   2149341   2155449  
  7040.000000   2161531   2167575   2173566   2179515   2185454  
  7030.000000   2191431   2197480   2203610   2209779   2215929  
  7020.000000   2221985   2227913   2233712   2239434   2245137  
  7010.000000   2250870   2256630   2262371   2268005   2273449  
  7000.000000   2278633   2283543   2288189   2292621   2296876  
  6990.000000   2301010   2305055   2309066   2313078   2317142  
  6980.000000   2321259   2325410   2329511   2333472   2337191  
  6970.000000   2340640   2343838   2346889   2349907   2353004  
  6960.000000   2356211   2359499   2362765   2365900   2368805  
  6950.000000   2371451   2373848   2376055   2378116   2380077  
  6940.000000   2381950   2383755   2385514   2387275   2389084  
  6930.000000   2390976   2392938   2394920   2396835   2398614  
  6920.000000   2400216   2401672   2403050   2404447   2405924  
  6910.000000   2407495   2409114   2410702   2412177   2413486  
  6900.000000   2414613   2415576   2416403   2417123   2417751  
  6890.000000   2418309   2418834   2419390   2420051   2420884  
  6880.000000   2421914   2423114   2424404   2425682   2426855  
  6870.000000   2427878   2428759   2429549   2430311   2431093  
  6860.000000   2431911   2432751   2433585   2434390   2435157  
  6850.000000   2435891   2436592   2437248   2437829   2438303  
  6840.000000   2438648   2438885   2439068   2439285   2439622  
  6830.000000   2440141   2440848   2441697   2442596   2443441  
  6820.000000   2444134   2444612   2444854   2444884   2444754  
  6810.000000   2444536   2444298   2444102   2443983   2443952  
  6800.000000   2443993   2444076   2444162   2444225   2444245  
  6790.000000   2444219   2444139   2444004   2443794   2443499  
  6780.000000   2443108   2442641   2442134   2441639   2441202  
  6770.000000   2440837   2440522   2440199   2439800   2439276  
  6760.000000   2438614   2437850   2437050   2436291   2435629  
  6750.000000   2435089   2434666   2434344   2434102   2433936  
  6740.000000   2433839   2433801   2433786   2433740   2433599  
  6730.000000   2433314   2432870   2432297   2431654   2431005  
  6720.000000   2430392   2429824   2429267   2428684   2428041  
  6710.000000   2427342   2426612   2425901   2425236   2424622  
  6700.000000   2424022   2423382   2422642   2421769   2420764  
  6690.000000   2419657   2418496   2417330   2416192   2415104  
  6680.000000   2414072   2413101   2412191   2411346   2410557  
  6670.000000   2409816   2409098   2408384   2407647   2406871  
  6660.000000   2406037   2405129   2404129   2403021   2401801  
  6650.000000   2400478   2399084   2397661   2396253   2394888  
  6640.000000   2393570   2392287   2391009   2389722   2388421  
  6630.000000   2387123   2385846   2384604   2383387   2382173  
  6620.000000   2380931   2379648   2378328   2376997   2375687  
  6610.000000   2374409   2373147   2371854   2370475   2368976  
  6600.000000   2367364   2365692   2364035   2362467   2361020  
  6590.000000   2359678   2358381   2357057   2355653   2354155  
  6580.000000   2352593   2351014   2349464   2347957   2346482  
  6570.000000   2345004   2343499   2341960   2340415   2338904  
  6560.000000   2337468   2336128   2334878   2333692   2332539  
  6550.000000   2331402   2330279   2329179   2328111   2327067  
  6540.000000   2326028   2324958   2323828   2322625   2321354  
  6530.000000   2320042   2318721   2317424   2316176   2314993  
  6520.000000   2313887   2312862   2311916   2311031   2310175  
  6510.000000   2309303   2308373   2307360   2306267   2305133  
  6500.000000   2304021   2302994   2302095   2301329   2300667  
  6490.000000   2300049   2299411   2298700   2297890   2296977  
  6480.000000   2295979   2294922   2293835   2292744   2291671  
  6470.000000   2290636   2289645   2288696   2287773   2286851  
  6460.000000   2285909   2284935   2283930   2282914   2281907  
  6450.000000   2280923   2279964   2279021   2278081   2277142  
  6440.000000   2276220   2275343   2274536   2273807   2273138  
  6430.000000   2272479   2271778   2270991   2270113   2269173  
  6420.000000   2268233   2267356   2266590   2265953   2265438  
  6410.000000   2265023   2264691   2264435   2264256   2264144  
  6400.000000   2264075   2263996   2263848   2263579   2263174  
  6390.000000   2262654   2262080   2261521   2261039   2260660  
  6380.000000   2260380   2260171   2259996   2259832   2259661  
  6370.000000   2259475   2259257   2258981   2258615   2258136  
  6360.000000   2257543   2256869   2256169   2255507   2254921  
  6350.000000   2254425   2253994   2253589   2253171   2252726  
  6340.000000   2252255   2251779   2251306   2250836   2250345  
  6330.000000   2249809   2249205   2248540   2247836   2247131  
  6320.000000   2246447   2245791   2245130   2244424   2243625  
  6310.000000   2242716   2241698   2240603   2239461   2238300  
  6300.000000   2237116   2235899   2234623   2233284   2231889  
  6290.000000   2230467   2229051   2227672   2226334   2225035  
  6280.000000   2223750   2222462   2221154   2219824   2218469  
  6270.000000   2217094   2215693   2214261   2212788   2211270  
  6260.000000   2209703   2208091   2206435   2204736   2202995  
  6250.000000   2201217   2199410   2197596   2195794   2194023  
  6240.000000   2192288   2190584   2188892   2187194   2185477  
  6230.000000   2183741   2181994   2180246   2178501   2176756  
  6220.000000   2174999   2173219   2171415   2169597   2167782  
  6210.000000   2165991   2164232   2162504   2160792   2159082  
  6200.000000   2157367   2155650   2153947   2152276   2150647  
  6190.000000   2149060   2147504   2145966   2144441   2142929  
  6180.000000   2141440   2139979   2138542   2137110   2135659  
  6170.000000   2134170   2132642   2131097   2129571   2128100  
  6160.000000   2126708   2125388   2124107   2122819   2121482  
  6150.000000   2120075   2118603   2117094   2115585   2114111  
  6140.000000   2112693   2111339   2110046   2108805   2107607  
  6130.000000   2106436   2105275   2104097   2102875   2101586  
  6120.000000   2100229   2098819   2097396   2096005   2094692  
  6110.000000   2093488   2092406   2091439   2090578   2089805  
  6100.000000   2089112   2088484   2087908   2087362   2086822  
  6090.000000   2086263   2085676   2085063   2084449   2083859  
  6080.000000   2083330   2082874   2082503   2082206   2081981  
  6070.000000   2081818   2081725   2081701   2081755   2081873  
  6060.000000   2082047   2082249   2082474   2082709   2082979  
  6050.000000   2083298   2083708   2084224   2084869   2085637  
  6040.000000   2086529   2087531   2088641   2089848   2091151  
  6030.000000   2092534   2093993   2095504   2097063   2098656  
  6020.000000   2100290   2101959   2103668   2105402   2107152  
  6010.000000   2108897   2110630   2112344   2114056   2115778  
  6000.000000   2117537   2119342   2121205   2123120   2125090  
  5990.000000   2127110   2129193   2131346   2133592   2135937  
  5980.000000   2138393   2140955   2143620   2146374   2149210  
  5970.000000   2152103   2155036   2157975   2160897   2163772  
  5960.000000   2166597   2169375   2172139   2174916   2177745  
  5950.000000   2180640   2183615   2186659   2189767   2192935  
  5940.000000   2196168   2199478   2202875   2206362   2209921  
  5930.000000   2213523   2217131   2220711   2224241   2227715  
  5920.000000   2231138   2234513   2237841   2241103   2244272  
  5910.000000   2247313   2250199   2252923   2255499   2257970  
  5900.000000   2260392   2262837   2265358   2268002   2270776  
  5890.000000   2273669   2276637   2279632   2282595   2285488  
  5880.000000   2288277   2290951   2293501   2295923   2298209  
  5870.000000   2300347   2302334   2304173   2305892   2307531  
  5860.000000   2309142   2310776   2312469   2314243   2316100  
  5850.000000   2318040   2320059   2322163   2324358   2326647  
  5840.000000   2329022   2331461   2333928   2336384   2338798  
  5830.000000   2341156   2343458   2345713   2347935   2350129  
  5820.000000   2352291   2354415   2356488   2358509   2360472  
  5810.000000   2362383   2364227   2366002   2367677   2369250  
  5800.000000   2370700   2372055   2373325   2374559   2375766  
  5790.000000   2376968   2378131   2379227   2380177   2380920  
  5780.000000   2381362   2381440   2381082   2380257   2378951  
  5770.000000   2377209   2375105   2372765   2370317   2367899  
  5760.000000   2365606   2363508   2361619   2359936   2358431  
  5750.000000   2357083   2355869   2354775   2353787   2352885  
  5740.000000   2352051   2351266   2350529   2349837   2349212  
  5730.000000   2348654   2348171   2347739   2347334   2346918  
  5720.000000   2346474   2345995   2345503   2345027   2344604  
  5710.000000   2344255   2343991   2343802   2343672   2343581  
  5700.000000   2343510   2343447   2343381   2343306   2343218  
  5690.000000   2343121   2343025   2342952   2342913   2342921  
  5680.000000   2342962   2343013   2343025   2342952   2342743  
  5670.000000   2342368   2341799   2341028   2340043   2338847  
  5660.000000   2337443   2335857   2334128   2332321   2330497  
  5650.000000   2328720   2327026   2325427   2323906   2322439  
  5640.000000   2320999   2319575   2318167   2316786   2315447  
  5630.000000   2314157   2312919   2311735   2310614   2309565  
  5620.000000   2308606   2307739   2306958   2306230   2305516  
  5610.000000   2304772   2303972   2303113   2302218   2301322  
  5600.000000   2300460   2299649   2298888   2298155   2297424  
  5590.000000   2296672   2295886   2295064   2294207   2293319  
  5580.000000   2292396   2291437   2290439   2289411   2288366  
  5570.000000   2287320   2286282   2285256   2284228   2283180  
  5560.000000   2282095   2280960   2279773   2278543   2277283  
  5550.000000   2276008   2274735   2273479   2272261   2271099  
  5540.000000   2270009   2269000   2268066   2267185   2266325  
  5530.000000   2265454   2264542   2263574   2262550   2261478  
  5520.000000   2260372   2259248   2258120   2257001   2255898  
  5510.000000   2254817   2253752   2252692   2251610   2250488  
  5500.000000   2249309   2248080   2246825   2245590   2244411  
  5490.000000   2243314   2242284   2241285   2240256   2239143  
  5480.000000   2237906   2236538   2235055   2233494   2231885  
  5470.000000   2230256   2228614   2226964   2225303   2223637  
  5460.000000   2221964   2220281   2218569   2216807   2214968  
  5450.000000   2213044   2211045   2209010   2206992   2205038  
  5440.000000   2203177   2201410   2199717   2198070   2196453  
  5430.000000   2194859   2193299   2191779   2190302   2188847  
  5420.000000   2187402   2185953   2184521   2183140   2181874  
  5410.000000   2180763   2179835   2179066   2178422   2177841  
  5400.000000   2177302   2176785   2176322   2175935   2175668  
  5390.000000   2175522   2175509   2175608   2175831   2176183  
  5380.000000   2176710   2177431   2178376   2179517   2180835  
  5370.000000   2182261   2183771   2185321   2186937   2188612  
  5360.000000   2190400   2192298   2194357   2196569   2199000  
  5350.000000   2201669   2204670   2208029   2211826   2216042  
  5340.000000   2220709   2225766   2231237   2237067   2243306  
  5330.000000   2249909   2256927   2264299   2272063   2280157  
  5320.000000   2288654   2297537   2306938   2316871   2327478  
  5310.000000   2338741   2350749   2363428   2376826   2390860  
  5300.000000   2405597   2420991   2437152   2454071   2471872  
  5290.000000   2490530   2510115   2530529   2551746   2573599  
  5280.000000   2596035   2618931   2642321   2666198   2690682  
  5270.000000   2715795   2741575   2767909   2794645   2821561  
  5260.000000   2848475   2875273   2901938   2928537   2955134  
  5250.000000   2981772   3008362   3034773   3060746   3086111  
  5240.000000   3110674   3134438   3157391   3179692   3201390  
  5230.000000   3222620   3243330   3263531   3283057   3301872  
  5220.000000   3319827   3336974   3353272   3368874   3383795  
  5210.000000   3398181   3411982   3425243   3437812   3449676  
  5200.000000   3460690   3470911   3480294   3488981   3496969  
  5190.000000   3504383   3511169   3517385   3522940   3527888  
  5180.000000   3532169   3535880   3538991   3541595   3543639  
  5170.000000   3545172   3546127   3546557   3546432   3545846  
  5160.000000   3544797   3543376   3541554   3539379   3536800  
  5150.000000   3533858   3530528   3526880   3522917   3518705  
  5140.000000   3514230   3509528   3504572   3499397   3494001  
  5130.000000   3488447   3482753   3476972   3471102   3465159  
  5120.000000   3459115   3452978   3446735   3440418   3434041  
  5110.000000   3427642   3421231   3414827   3408429   3402051  
  5100.000000   3395695   3389381   3383113   3376895   3370707  
  5090.000000   3364528   3358330   3352101   3345843   3339577  
  5080.000000   3333329   3327125   3320970   3314856   3308755  
  5070.000000   3302645   3296501   3290321   3284109   3277883  
  5060.000000   3271649   3265412   3259158   3252873   3246539  
  5050.000000   3240148   3233701   3227209   3220683   3214141  
  5040.000000   3207591   3201042   3194501   3187976   3181472  
  5030.000000   3174997   3168554   3162139   3155751   3149380  
  5020.000000   3143029   3136701   3130419   3124198   3118077  
  5010.000000   3112072   3106217   3100514   3094979   3089597  
  5000.000000   3084377   3079297   3074368   3069575   3064942  
  4990.000000   3060464   3056179   3052087   3048231   3044601  
  4980.000000   3041231   3038094   3035215   3032562   3030169  
  4970.000000   3028020   3026167   3024610   3023411   3022560  
  4960.000000   3022106   3022015   3022313   3022951   3023952  
  4950.000000   3025269   3026930   3028897   3031206   3033819  
  4940.000000   3036776   3040039   3043646   3047558   3051812  
  4930.000000   3056368   3061263   3066459   3071992   3077834  
  4920.000000   3084019   3090518   3097355   3104495   3111947  
  4910.000000   3119671   3127674   3135921   3144418   3153135  
  4900.000000   3162066   3171174   3180435   3189807   3199259  
  4890.000000   3208757   3218270   3227771   3237220   3246585  
  4880.000000   3255808   3264852   3273658   3282199   3290425  
  4870.000000   3298327   3305862   3313033   3319802   3326186  
  4860.000000   3332160   3337760   3342976   3347856   3352395  
  4850.000000   3356641   3360592   3364298   3367767   3371060  
  4840.000000   3374191   3377218   3380146   3383009   3385791  
  4830.000000   3388503   3391122   3393655   3396088   3398433  
  4820.000000   3400686   3402862   3404961   3407001   3408987  
  4810.000000   3410942   3412875   3414805   3416737   3418678  
  4800.000000   3420624   3422573   3424518   3426457   3428384  
  4790.000000   3430298   3432190   3434060   3435900   3437717  
  4780.000000   3439512   3441301   3443086   3444874   3446649  
  4770.000000   3448394   3450072   3451657   3453119   3454455  
  4760.000000   3455661   3456758   3457754   3458670   3459501  
  4750.000000   3460251   3460899   3461442   3461860   3462155  
  4740.000000   3462318   3462359   3462276   3462083   3461778  
  4730.000000   3461374   3460872   3460279   3459596   3458830  
  4720.000000   3457985   3457076   3456121   3455145   3454176  
  4710.000000   3453240   3452361   3451555   3450834   3450202  
  4700.000000   3449666   3449230   3448905   3448696   3448613  
  4690.000000   3448654   3448815   3449080   3449436   3449854  
  4680.000000   3450317   3450795   3451272   3451721   3452133  
  4670.000000   3452491   3452800   3453057   3453285   3453493  
  4660.000000   3453713   3453963   3454280   3454692   3455239  
  4650.000000   3455952   3456865   3457991   3459334   3460870  
  4640.000000   3462567   3464380   3466267   3468188   3470118  
  4630.000000   3472040   3473944   3475817   3477649   3479423  
  4620.000000   3481121   3482728   3484227   3485607   3486853  
  4610.000000   3487956   3488898   3489681   3490300   3490779  
  4600.000000   3491134   3491410   3491626   3491817   3491980  
  4590.000000   3492121   3492213   3492245   3492188   3492038  
  4580.000000   3491775   3491402   3490903   3490283   3489532  
  4570.000000   3488659   3487670   3486587   3485424   3484210  
  4560.000000   3482956   3481678   3480378   3479065   3477738  
  4550.000000   3476400   3475048   3473677   3472279   3470843  
  4540.000000   3469369   3467862   3466348   3464855   3463429  
  4530.000000   3462095   3460887   3459796   3458835   3457974  
  4520.000000   3457230   3456586   3456088   3455737   3455598  
  4510.000000   3455673   3456028   3456660   3457647   3458988  
  4500.000000   3460776   3463012   3465785   3469077   3472961  
  4490.000000   3477403   3482475   3488149   3494507   3501526  
  4480.000000   3509276   3517712   3526870   3536673   3547135  
  4470.000000   3558168   3569779   3581883   3594477   3607465  
  4460.000000   3620821   3634438   3648276   3662243   3676309  
  4450.000000   3690414   3704547   3718675   3732793   3746882  
  4440.000000   3760931   3774933   3788866   3802733   3816499  
  4430.000000   3830171   3843693   3857067   3870218   3883143  
  4420.000000   3895751   3908033   3919883   3931282   3942108  
  4410.000000   3952332   3961828   3970576   3978480   3985559  
  4400.000000   3991778   3997215   4001891   4005926   4009375  
  4390.000000   4012369   4014970   4017303   4019427   4021447  
  4380.000000   4023410   4025394   4027432   4029586   4031889  
  4370.000000   4034404   4037176   4040257   4043677   4047449  
  4360.000000   4051556   4055963   4060609   4065439   4070375  
  4350.000000   4075378   4080376   4085360   4090279   4095154  
  4340.000000   4099958   4104712   4109349   4113792   4117828  
  4330.000000   4121198   4123540   4124529   4123889   4121540  
  4320.000000   4117583   4112369   4106372   4100168   4094250  
  4310.000000   4089020   4084662   4081229   4078605   4076646  
  4300.000000   4075169   4074050   4073189   4072530   4072039  
  4290.000000   4071674   4071417   4071229   4071115   4071069  
  4280.000000   4071122   4071293   4071600   4072053   4072634  
  4270.000000   4073331   4074094   4074876   4075570   4076053  
  4260.000000   4076140   4075642   4074372   4072208   4069112  
  4250.000000   4065169   4060558   4055544   4050404   4045411  
  4240.000000   4040753   4036563   4032863   4029635   4026795  
  4230.000000   4024255   4021911   4019671   4017454   4015183  
  4220.000000   4012820   4010324   4007714   4005006   4002279  
  4210.000000   3999593   3997049   3994705   3992634   3990855  
  4200.000000   3989389   3988206   3987287   3986572   3986028  
  4190.000000   3985591   3985248   3984954   3984734   3984572  
  4180.000000   3984529   3984609   3984887   3985370   3986135  
  4170.000000   3987191   3988616   3990425   3992696   3995434  
  4160.000000   3998700   4002467   4006763   4011529   4016773  
  4150.000000   4022425   4028497   4034923   4041733   4048874  
  4140.000000   4056390   4064244   4072497   4081124   4090190  
  4130.000000   4099666   4109601   4119952   4130747   4141933  
  4120.000000   4153532   4165506   4177891   4190667   4203882  
  4110.000000   4217521   4231621   4246148   4261105   4276425  
  4100.000000   4292074   4307966   4324055   4340269   4356581  
  4090.000000   4372957   4389396   4405894   4422457   4439099  
  4080.000000   4455820   4472636   4489530   4506503   4523494  
  4070.000000   4540464   4557298   4573933   4590243   4606194  
  4060.000000   4621697   4636767   4651334   4665423   4678951  
  4050.000000   4691943   4704323   4716158   4727412   4738186  
  4040.000000   4748433   4758220   4767434   4776084   4784026  
  4030.000000   4791275   4797718   4803407   4808268   4812358  
  4020.000000   4815586   4818023   4819655   4820579   4820761  
  4010.000000   4820348   4819414   4817977   4815815   4812989  
  4000.000000   4809825  
##END= 
