##TITLE= Sample 015 By ssteindl date Montag, November 19 2018
##JCAMP-DX= 4.24
##DATA TYPE= INFRARED SPECTRUM
##ORIGIN= Exported PE Spectrum Data File
##OWNER= Sandra Steindl
##DATE= 18/11/19
##TIME= 17:41:07.00
##SPECTROMETER/DATA SYSTEM= PERKIN-ELMER Frontier FT-IR/NIR IR
##INSTRUMENT PARAMETERS=
  APODIZATION=stark
  DETECTOR=INGAAS
##RESOLUTION= 16.000000
##DELTAX= -2.000000
##XUNITS= 1/CM
##YUNITS= A
##XFACTOR= 1.00
##YFACTOR= 0.00000011920928955078
##FIRSTX= 10000.00
##LASTX= 4000.00
##NPOINTS= 3001
##FIRSTY= 0.226850
##MAXY= 0.603838
##MINY= 0.196012
##XYDATA= (X++(Y..Y))
 10000.000000   1902956   1903457   1904271   1905491   1906378  
  9990.000000   1906032   1904105   1901007   1897366   1893807  
  9980.000000   1890853   1888739   1887315   1886092   1884514  
  9970.000000   1882049   1878272   1872949   1866090   1858072  
  9960.000000   1849617   1841850   1836023   1833299   1834311  
  9950.000000   1838905   1846065   1854069   1861023   1865267  
  9940.000000   1865928   1862928   1857012   1849296   1841052  
  9930.000000   1833328   1826964   1822525   1820420   1820878  
  9920.000000   1823859   1829002   1835506   1842345   1848384  
  9910.000000   1852801   1855214   1855814   1855203   1854118  
  9900.000000   1853193   1852718   1852675   1852782   1852667  
  9890.000000   1851986   1850469   1847971   1844449   1840006  
  9880.000000   1834912   1829615   1824686   1820666   1817875  
  9870.000000   1816272   1815437   1814778   1813806   1812455  
  9860.000000   1811167   1810774   1812112   1815608   1820984  
  9850.000000   1827232   1832969   1836872   1838198   1836940  
  9840.000000   1833795   1829784   1825903   1822781   1820645  
  9830.000000   1819363   1818697   1818409   1818343   1818369  
  9820.000000   1818276   1817843   1816828   1815265   1813469  
  9810.000000   1812119   1812039   1813859   1817795   1823369  
  9800.000000   1829593   1835133   1838733   1839528   1837238  
  9790.000000   1832262   1825559   1818507   1812647   1809406  
  9780.000000   1809774   1813992   1821349   1830214   1838376  
  9770.000000   1843612   1844404   1840425   1832742   1823479  
  9760.000000   1815170   1809933   1808823   1811618   1817035  
  9750.000000   1823397   1829212   1833751   1836995   1839501  
  9740.000000   1841828   1844247   1846539   1848125   1848389  
  9730.000000   1846884   1843577   1838717   1832771   1826228  
  9720.000000   1819534   1813143   1807503   1803138   1800454  
  9710.000000   1799641   1800464   1802309   1804302   1805646  
  9700.000000   1805867   1804989   1803482   1801994   1801141  
  9690.000000   1801178   1802055   1803381   1804702   1805589  
  9680.000000   1805762   1805102   1803613   1801451   1798922  
  9670.000000   1796543   1794963   1794820   1796465   1799734  
  9660.000000   1803860   1807636   1809787   1809439   1806440  
  9650.000000   1801471   1795775   1790735   1787373   1786050  
  9640.000000   1786459   1787838   1789345   1790335   1790470  
  9630.000000   1789679   1787975   1785419   1782097   1778280  
  9620.000000   1774479   1771413   1769807   1770064   1772063  
  9610.000000   1775074   1778017   1779816   1779807   1777950  
  9600.000000   1774800   1771212   1767999   1765605   1764090  
  9590.000000   1763217   1762786   1762748   1763278   1764545  
  9580.000000   1766511   1768806   1770797   1771889   1771810  
  9570.000000   1770828   1769700   1769382   1770645   1773723  
  9560.000000   1778188   1783120   1787416   1790234   1791192  
  9550.000000   1790474   1788608   1786267   1783993   1782116  
  9540.000000   1780724   1779738   1778962   1778108   1776838  
  9530.000000   1774781   1771645   1767351   1762118   1756526  
  9520.000000   1751330   1747284   1744863   1744151   1744891  
  9510.000000   1746630   1748951   1751554   1754282   1756968  
  9500.000000   1759342   1760975   1761409   1760356   1757937  
  9490.000000   1754770   1751846   1750202   1750518   1752839  
  9480.000000   1756538   1760555   1763761   1765338   1764954  
  9470.000000   1762754   1759186   1754755   1749937   1745098  
  9460.000000   1740647   1736992   1734572   1733653   1734197  
  9450.000000   1735793   1737714   1739259   1739979   1740040  
  9440.000000   1740117   1741238   1744257   1749467   1756366  
  9430.000000   1763754   1770148   1774197   1775157   1772970  
  9420.000000   1768254   1761945   1755000   1748130   1741724  
  9410.000000   1735989   1731045   1727098   1724354   1723003  
  9400.000000   1723049   1724337   1726485   1729023   1731413  
  9390.000000   1733171   1733945   1733544   1732040   1729682  
  9380.000000   1726957   1724418   1722645   1722002   1722551  
  9370.000000   1723947   1725578   1726741   1726938   1726017  
  9360.000000   1724239   1722142   1720354   1719352   1719312  
  9350.000000   1720117   1721473   1723112   1724915   1726961  
  9340.000000   1729417   1732435   1735973   1739783   1743395  
  9330.000000   1746276   1747977   1748240   1747093   1744770  
  9320.000000   1741695   1738335   1735111   1732305   1729963  
  9310.000000   1727985   1726137   1724257   1722284   1720411  
  9300.000000   1718992   1718492   1719230   1721197   1723951  
  9290.000000   1726682   1728493   1728642   1726860   1723395  
  9280.000000   1718996   1714629   1711179   1709183   1708710  
  9270.000000   1709469   1710969   1712735   1714397   1715748  
  9260.000000   1716688   1717174   1717172   1716653   1715663  
  9250.000000   1714310   1712797   1711299   1709937   1708709  
  9240.000000   1707558   1706446   1705422   1704692   1704503  
  9230.000000   1705079   1706434   1708355   1710422   1712165  
  9220.000000   1713231   1713495   1713069   1712182   1711061  
  9210.000000   1709790   1708341   1706615   1704587   1702372  
  9200.000000   1700202   1698349   1696959   1696012   1695320  
  9190.000000   1694670   1693961   1693290   1692910   1693072  
  9180.000000   1693826   1694903   1695762   1695791   1694624  
  9170.000000   1692342   1689556   1687144   1685943   1686354  
  9160.000000   1688182   1690665   1692768   1693615   1692819  
  9150.000000   1690629   1687786   1685262   1683902   1684137  
  9140.000000   1685869   1688570   1691529   1694032   1695536  
  9130.000000   1695739   1694627   1692416   1689495   1686371  
  9120.000000   1683633   1681813   1681295   1682140   1684078  
  9110.000000   1686537   1688793   1690239   1690545   1689820  
  9100.000000   1688528   1687367   1687027   1687943   1690180  
  9090.000000   1693371   1696884   1699934   1701812   1702048  
  9080.000000   1700529   1697555   1693728   1689882   1686841  
  9070.000000   1685293   1685554   1687531   1690710   1694319  
  9060.000000   1697523   1699615   1700159   1699066   1696557  
  9050.000000   1693052   1689033   1684952   1681204   1678085  
  9040.000000   1675807   1674494   1674195   1674834   1676172  
  9030.000000   1677852   1679456   1680585   1680932   1680360  
  9020.000000   1678978   1677058   1675004   1673234   1672147  
  9010.000000   1672010   1672881   1674640   1676998   1679594  
  9000.000000   1682019   1683961   1685254   1685895   1685992  
  8990.000000   1685656   1684975   1683901   1682328   1680119  
  8980.000000   1677280   1673987   1670617   1667674   1665632  
  8970.000000   1664841   1665354   1667003   1669414   1672196  
  8960.000000   1675005   1677644   1680032   1682154   1683982  
  8950.000000   1685410   1686272   1686393   1685686   1684188  
  8940.000000   1682086   1679660   1677230   1675057   1673282  
  8930.000000   1671906   1670810   1669815   1668724   1667398  
  8920.000000   1665792   1663984   1662171   1660637   1659706  
  8910.000000   1659628   1660529   1662324   1664763   1667423  
  8900.000000   1669863   1671703   1672765   1673092   1672936  
  8890.000000   1672667   1672679   1673280   1674608   1676610  
  8880.000000   1679070   1681673   1684087   1686015   1687248  
  8870.000000   1687687   1687347   1686356   1684907   1683239  
  8860.000000   1681589   1680174   1679150   1678614   1678585  
  8850.000000   1679042   1679900   1681059   1682358   1683641  
  8840.000000   1684730   1685491   1685832   1685752   1685360  
  8830.000000   1684831   1684397   1684225   1684411   1684880  
  8820.000000   1685429   1685756   1685569   1684690   1683148  
  8810.000000   1681206   1679324   1678055   1677892   1679121  
  8800.000000   1681716   1685329   1689371   1693164   1696108  
  8790.000000   1697851   1698362   1697922   1697012   1696154  
  8780.000000   1695770   1696050   1696946   1698172   1699346  
  8770.000000   1700069   1700062   1699220   1697624   1695533  
  8760.000000   1693296   1691315   1689945   1689475   1690058  
  8750.000000   1691710   1694291   1697528   1701055   1704468  
  8740.000000   1707402   1709573   1710844   1711214   1710847  
  8730.000000   1709975   1708888   1707832   1707004   1706520  
  8720.000000   1706429   1706740   1707422   1708458   1709794  
  8710.000000   1711390   1713148   1714951   1716656   1718126  
  8700.000000   1719278   1720070   1720540   1720735   1720715  
  8690.000000   1720494   1720053   1719360   1718428   1717368  
  8680.000000   1716409   1715865   1716041   1717125   1719084  
  8670.000000   1721651   1724371   1726731   1728306   1728903  
  8660.000000   1728634   1727866   1727120   1726877   1727443  
  8650.000000   1728846   1730850   1733039   1734965   1736283  
  8640.000000   1736845   1736740   1736241   1735724   1735540  
  8630.000000   1735908   1736871   1738274   1739850   1741280  
  8620.000000   1742316   1742836   1742888   1742670   1742447  
  8610.000000   1742484   1742952   1743906   1745294   1746984  
  8600.000000   1748841   1750736   1752573   1754274   1755741  
  8590.000000   1756882   1757615   1757948   1757996   1758004  
  8580.000000   1758288   1759123   1760648   1762752   1765099  
  8570.000000   1767180   1768492   1768687   1767719   1765866  
  8560.000000   1763663   1761751   1760698   1760859   1762293  
  8550.000000   1764797   1767970   1771358   1774535   1777227  
  8540.000000   1779312   1780841   1781967   1782889   1783792  
  8530.000000   1784773   1785848   1786895   1787729   1788126  
  8520.000000   1787929   1787089   1785685   1783948   1782187  
  8510.000000   1780753   1779927   1779901   1780723   1782306  
  8500.000000   1784439   1786822   1789143   1791098   1792468  
  8490.000000   1793145   1793189   1792787   1792229   1791819  
  8480.000000   1791832   1792430   1793650   1795412   1797570  
  8470.000000   1799962   1802428   1804839   1807085   1809070  
  8460.000000   1810706   1811929   1812736   1813188   1813421  
  8450.000000   1813596   1813864   1814325   1814992   1815821  
  8440.000000   1816729   1817670   1818632   1819661   1820797  
  8430.000000   1822051   1823353   1824569   1825515   1826041  
  8420.000000   1826084   1825712   1825095   1824482   1824111  
  8410.000000   1824174   1824728   1825712   1826935   1828150  
  8400.000000   1829084   1829518   1829321   1828489   1827150  
  8390.000000   1825516   1823833   1822300   1821024   1820003  
  8380.000000   1819158   1818396   1817672   1817040   1816634  
  8370.000000   1816617   1817087   1818032   1819301   1820654  
  8360.000000   1821850   1822723   1823249   1823517   1823684  
  8350.000000   1823875   1824141   1824438   1824677   1824781  
  8340.000000   1824728   1824572   1824394   1824263   1824174  
  8330.000000   1824063   1823820   1823389   1822781   1822109  
  8320.000000   1821516   1821123   1820959   1820946   1820927  
  8310.000000   1820735   1820270   1819528   1818582   1817526  
  8300.000000   1816419   1815258   1814012   1812674   1811322  
  8290.000000   1810124   1809291   1808989   1809243   1809900  
  8280.000000   1810655   1811184   1811260   1810871   1810205  
  8270.000000   1809592   1809343   1809639   1810426   1811443  
  8260.000000   1812318   1812700   1812376   1811309   1809608  
  8250.000000   1807456   1805033   1802478   1799879   1797320  
  8240.000000   1794899   1792752   1790998   1789721   1788901  
  8230.000000   1788447   1788202   1788028   1787838   1787609  
  8220.000000   1787361   1787090   1786750   1786215   1785341  
  8210.000000   1784012   1782232   1780148   1778026   1776184  
  8200.000000   1774876   1774234   1774210   1774617   1775179  
  8190.000000   1775609   1775669   1775199   1774130   1772466  
  8180.000000   1770292   1767755   1765066   1762477   1760241  
  8170.000000   1758563   1757536   1757118   1757124   1757299  
  8160.000000   1757378   1757173   1756606   1755712   1754596  
  8150.000000   1753374   1752123   1750855   1749548   1748173  
  8140.000000   1746755   1745370   1744130   1743131   1742395  
  8130.000000   1741852   1741337   1740662   1739666   1738292  
  8120.000000   1736608   1734787   1733055   1731607   1730546  
  8110.000000   1729847   1729384   1728965   1728420   1727633  
  8100.000000   1726598   1725386   1724129   1722963   1721978  
  8090.000000   1721205   1720609   1720130   1719709   1719329  
  8080.000000   1719017   1718829   1718816   1718971   1719215  
  8070.000000   1719386   1719285   1718726   1717614   1715981  
  8060.000000   1714005   1711972   1710198   1708943   1708325  
  8050.000000   1708296   1708652   1709114   1709413   1709372  
  8040.000000   1708940   1708185   1707233   1706210   1705187  
  8030.000000   1704168   1703119   1702011   1700875   1699796  
  8020.000000   1698908   1698319   1698063   1698069   1698169  
  8010.000000   1698162   1697883   1697271   1696394   1695420  
  8000.000000   1694556   1693976   1693761   1693880   1694215  
  7990.000000   1694601   1694883   1694944   1694719   1694187  
  7980.000000   1693357   1692259   1690949   1689511   1688069  
  7970.000000   1686757   1685697   1684952   1684505   1684252  
  7960.000000   1684041   1683720   1683197   1682474   1681647  
  7950.000000   1680871   1680306   1680053   1680133   1680474  
  7940.000000   1680952   1681424   1681783   1681972   1681994  
  7930.000000   1681888   1681718   1681541   1681405   1681338  
  7920.000000   1681357   1681465   1681647   1681877   1682108  
  7910.000000   1682293   1682383   1682354   1682206   1681969  
  7900.000000   1681687   1681405   1681149   1680917   1680679  
  7890.000000   1680384   1679986   1679451   1678780   1678006  
  7880.000000   1677196   1676427   1675783   1675334   1675129  
  7870.000000   1675191   1675514   1676071   1676805   1677655  
  7860.000000   1678541   1679399   1680174   1680845   1681420  
  7850.000000   1681926   1682397   1682838   1683224   1683477  
  7840.000000   1683500   1683190   1682496   1681433   1680102  
  7830.000000   1678668   1677311   1676201   1675428   1675023  
  7820.000000   1674939   1675118   1675491   1676027   1676707  
  7810.000000   1677515   1678396   1679239   1679895   1680196  
  7800.000000   1680026   1679340   1678212   1676795   1675294  
  7790.000000   1673907   1672767   1671938   1671403   1671123  
  7780.000000   1671039   1671121   1671341   1671674   1672060  
  7770.000000   1672400   1672566   1672434   1671926   1671033  
  7760.000000   1669841   1668494   1667172   1666031   1665171  
  7750.000000   1664623   1664340   1664238   1664208   1664160  
  7740.000000   1664031   1663800   1663477   1663092   1662682  
  7730.000000   1662264   1661844   1661393   1660880   1660269  
  7720.000000   1659558   1658775   1657985   1657273   1656710  
  7710.000000   1656335   1656130   1656037   1655979   1655891  
  7700.000000   1655751   1655583   1655441   1655374   1655389  
  7690.000000   1655434   1655407   1655189   1654704   1653946  
  7680.000000   1653009   1652042   1651210   1650629   1650329  
  7670.000000   1650252   1650281   1650294   1650209   1650017  
  7660.000000   1649767   1649554   1649457   1649526   1649754  
  7650.000000   1650092   1650472   1650824   1651094   1651233  
  7640.000000   1651207   1650973   1650501   1649778   1648835  
  7630.000000   1647750   1646645   1645656   1644899   1644439  
  7620.000000   1644270   1644335   1644539   1644803   1645071  
  7610.000000   1645340   1645632   1645977   1646389   1646839  
  7600.000000   1647271   1647609   1647793   1647787   1647610  
  7590.000000   1647303   1646940   1646583   1646277   1646037  
  7580.000000   1645850   1645695   1645552   1645430   1645359  
  7570.000000   1645391   1645583   1645963   1646522   1647193  
  7560.000000   1647875   1648446   1648813   1648927   1648817  
  7550.000000   1648574   1648332   1648222   1648341   1648724  
  7540.000000   1649348   1650154   1651071   1652041   1653024  
  7530.000000   1653997   1654936   1655808   1656569   1657176  
  7520.000000   1657613   1657888   1658054   1658168   1658284  
  7510.000000   1658418   1658553   1658649   1658681   1658663  
  7500.000000   1658668   1658805   1659188   1659882   1660881  
  7490.000000   1662098   1663402   1664649   1665748   1666671  
  7480.000000   1667471   1668231   1669046   1669967   1671007  
  7470.000000   1672129   1673294   1674462   1675629   1676810  
  7460.000000   1678039   1679344   1680745   1682240   1683821  
  7450.000000   1685461   1687136   1688805   1690426   1691948  
  7440.000000   1693337   1694585   1695731   1696855   1698060  
  7430.000000   1699441   1701056   1702893   1704879   1706896  
  7420.000000   1708817   1710551   1712058   1713361   1714529  
  7410.000000   1715654   1716821   1718093   1719506   1721063  
  7400.000000   1722742   1724498   1726274   1728008   1729647  
  7390.000000   1731170   1732590   1733960   1735354   1736839  
  7380.000000   1738449   1740171   1741937   1743658   1745250  
  7370.000000   1746673   1747934   1749092   1750221   1751388  
  7360.000000   1752627   1753927   1755250   1756543   1757768  
  7350.000000   1758901   1759945   1760913   1761830   1762723  
  7340.000000   1763623   1764577   1765640   1766874   1768321  
  7330.000000   1769996   1771869   1773873   1775915   1777903  
  7320.000000   1779769   1781477   1783024   1784418   1785680  
  7310.000000   1786823   1787859   1788806   1789695   1790574  
  7300.000000   1791498   1792525   1793690   1795007   1796456  
  7290.000000   1797998   1799575   1801128   1802598   1803933  
  7280.000000   1805094   1806058   1806829   1807436   1807944  
  7270.000000   1808435   1808993   1809684   1810538   1811541  
  7260.000000   1812651   1813806   1814953   1816055   1817111  
  7250.000000   1818133   1819151   1820181   1821236   1822302  
  7240.000000   1823377   1824450   1825548   1826702   1827980  
  7230.000000   1829432   1831106   1833006   1835111   1837361  
  7220.000000   1839693   1842045   1844398   1846754   1849169  
  7210.000000   1851695   1854388   1857252   1860254   1863306  
  7200.000000   1866317   1869200   1871938   1874565   1877191  
  7190.000000   1879946   1882961   1886301   1889960   1893836  
  7180.000000   1897776   1901598   1905167   1908404   1911331  
  7170.000000   1914031   1916655   1919353   1922260   1925436  
  7160.000000   1928882   1932523   1936272   1940032   1943765  
  7150.000000   1947469   1951207   1955050   1959078   1963312  
  7140.000000   1967740   1972287   1976887   1981477   1986062  
  7130.000000   1990673   1995384   2000244   2005279   2010453  
  7120.000000   2015710   2020976   2026229   2031475   2036782  
  7110.000000   2042208   2047795   2053515   2059301   2065046  
  7100.000000   2070684   2076195   2081650   2087155   2092837  
  7090.000000   2098760   2104919   2111223   2117544   2123754  
  7080.000000   2129786   2135636   2141373   2147092   2152889  
  7070.000000   2158818   2164896   2171089   2177352   2183623  
  7060.000000   2189858   2196015   2202072   2208019   2213875  
  7050.000000   2219684   2225513   2231438   2237516   2243767  
  7040.000000   2250164   2256639   2263108   2269499   2275765  
  7030.000000   2281899   2287908   2293811   2299610   2305297  
  7020.000000   2310856   2316286   2321594   2326814   2331968  
  7010.000000   2337074   2342113   2347065   2351900   2356626  
  7000.000000   2361272   2365907   2370582   2375334   2380132  
  6990.000000   2384913   2389573   2394038   2398263   2402264  
  6980.000000   2406084   2409781   2413380   2416891   2420287  
  6970.000000   2423566   2426737   2429867   2433024   2436282  
  6960.000000   2439657   2443125   2446592   2449958   2453124  
  6950.000000   2456043   2458703   2461140   2463396   2465519  
  6940.000000   2467538   2469490   2471405   2473334   2475316  
  6930.000000   2477394   2479568   2481820   2484087   2486309  
  6920.000000   2488418   2490375   2492150   2493737   2495133  
  6910.000000   2496345   2497389   2498302   2499135   2499955  
  6900.000000   2500806   2501714   2502656   2503591   2504465  
  6890.000000   2505263   2506007   2506772   2507640   2508680  
  6880.000000   2509895   2511234   2512594   2513869   2514986  
  6870.000000   2515930   2516740   2517485   2518224   2518990  
  6860.000000   2519770   2520537   2521260   2521935   2522579  
  6850.000000   2523231   2523912   2524627   2525346   2526029  
  6840.000000   2526633   2527140   2527552   2527890   2528173  
  6830.000000   2528406   2528581   2528686   2528714   2528686  
  6820.000000   2528637   2528616   2528662   2528799   2529022  
  6810.000000   2529314   2529643   2529986   2530316   2530610  
  6800.000000   2530831   2530941   2530901   2530694   2530324  
  6790.000000   2529836   2529288   2528748   2528258   2527838  
  6780.000000   2527477   2527153   2526844   2526547   2526262  
  6770.000000   2526000   2525756   2525511   2525236   2524900  
  6760.000000   2524489   2524010   2523488   2522954   2522430  
  6750.000000   2521927   2521448   2521000   2520605   2520298  
  6740.000000   2520116   2520079   2520169   2520327   2520469  
  6730.000000   2520506   2520374   2520057   2519580   2519000  
  6720.000000   2518375   2517748   2517137   2516541   2515956  
  6710.000000   2515389   2514855   2514379   2513968   2513621  
  6700.000000   2513307   2512994   2512646   2512253   2511813  
  6690.000000   2511340   2510836   2510291   2509672   2508943  
  6680.000000   2508072   2507053   2505902   2504666   2503396  
  6670.000000   2502146   2500949   2499832   2498799   2497855  
  6660.000000   2496990   2496195   2495443   2494705   2493938  
  6650.000000   2493107   2492179   2491143   2489996   2488749  
  6640.000000   2487418   2486020   2484575   2483110   2481648  
  6630.000000   2480217   2478829   2477483   2476155   2474810  
  6620.000000   2473411   2471943   2470412   2468854   2467313  
  6610.000000   2465833   2464433   2463108   2461830   2460570  
  6600.000000   2459306   2458036   2456768   2455506   2454242  
  6590.000000   2452943   2451561   2450054   2448396   2446599  
  6580.000000   2444710   2442798   2440939   2439192   2437590  
  6570.000000   2436139   2434815   2433581   2432388   2431192  
  6560.000000   2429951   2428639   2427247   2425789   2424298  
  6550.000000   2422816   2421383   2420017   2418717   2417455  
  6540.000000   2416194   2414901   2413556   2412161   2410731  
  6530.000000   2409287   2407851   2406441   2405074   2403771  
  6520.000000   2402555   2401440   2400425   2399481   2398556  
  6510.000000   2397583   2396512   2395322   2394041   2392737  
  6500.000000   2391492   2390371   2389399   2388545   2387742  
  6490.000000   2386906   2385970   2384905   2383722   2382463  
  6480.000000   2381177   2379909   2378682   2377505   2376379  
  6470.000000   2375300   2374264   2373258   2372261   2371242  
  6460.000000   2370169   2369017   2367788   2366506   2365215  
  6450.000000   2363963   2362789   2361707   2360713   2359789  
  6440.000000   2358918   2358090   2357308   2356575   2355892  
  6430.000000   2355246   2354619   2353986   2353333   2352655  
  6420.000000   2351966   2351285   2350635   2350033   2349493  
  6410.000000   2349022   2348628   2348311   2348068   2347882  
  6400.000000   2347725   2347558   2347347   2347069   2346721  
  6390.000000   2346320   2345893   2345463   2345042   2344628  
  6380.000000   2344212   2343790   2343370   2342977   2342639  
  6370.000000   2342380   2342202   2342087   2341994   2341881  
  6360.000000   2341713   2341472   2341151   2340750   2340264  
  6350.000000   2339688   2339011   2338237   2337383   2336490  
  6340.000000   2335603   2334763   2333990   2333278   2332598  
  6330.000000   2331919   2331208   2330456   2329660   2328837  
  6320.000000   2327993   2327137   2326270   2325395   2324523  
  6310.000000   2323670   2322848   2322060   2321281   2320472  
  6300.000000   2319579   2318568   2317426   2316181   2314883  
  6290.000000   2313597   2312363   2311198   2310083   2308984  
  6280.000000   2307857   2306681   2305447   2304168   2302855  
  6270.000000   2301518   2300151   2298743   2297277   2295753  
  6260.000000   2294178   2292573   2290961   2289358   2287768  
  6250.000000   2286189   2284607   2283015   2281404   2279773  
  6240.000000   2278121   2276455   2274779   2273109   2271468  
  6230.000000   2269881   2268370   2266943   2265587   2264267  
  6220.000000   2262934   2261539   2260051   2258461   2256792  
  6210.000000   2255081   2253373   2251702   2250088   2248533  
  6200.000000   2247029   2245567   2244141   2242753   2241413  
  6190.000000   2240131   2238916   2237775   2236705   2235698  
  6180.000000   2234738   2233802   2232867   2231906   2230897  
  6170.000000   2229829   2228700   2227516   2226290   2225034  
  6160.000000   2223756   2222461   2221152   2219833   2218513  
  6150.000000   2217205   2215917   2214658   2213424   2212207  
  6140.000000   2210994   2209770   2208528   2207265   2205982  
  6130.000000   2204687   2203388   2202096   2200827   2199593  
  6120.000000   2198414   2197293   2196232   2195214   2194219  
  6110.000000   2193221   2192212   2191193   2190191   2189239  
  6100.000000   2188371   2187606   2186951   2186385   2185883  
  6090.000000   2185412   2184950   2184477   2183992   2183490  
  6080.000000   2182985   2182486   2182020   2181611   2181296  
  6070.000000   2181091   2181011   2181034   2181135   2181269  
  6060.000000   2181414   2181551   2181699   2181876   2182123  
  6050.000000   2182451   2182876   2183384   2183978   2184651  
  6040.000000   2185430   2186334   2187394   2188613   2189984  
  6030.000000   2191467   2193033   2194643   2196300   2198006  
  6020.000000   2199797   2201683   2203677   2205751   2207878  
  6010.000000   2210009   2212124   2214201   2216255   2218293  
  6000.000000   2220345   2222420   2224543   2226724   2228994  
  5990.000000   2231371   2233888   2236553   2239372   2242323  
  5980.000000   2245388   2248536   2251762   2255060   2258447  
  5970.000000   2261927   2265509   2269169   2272893   2276642  
  5960.000000   2280403   2284159   2287924   2291702   2295519  
  5950.000000   2299385   2303320   2307331   2311435   2315637  
  5940.000000   2319940   2324331   2328780   2333251   2337703  
  5930.000000   2342115   2346483   2350827   2355175   2359551  
  5920.000000   2363948   2368333   2372641   2376802   2380751  
  5910.000000   2384452   2387898   2391115   2394138   2397016  
  5900.000000   2399788   2402498   2405177   2407868   2410597  
  5890.000000   2413399   2416279   2419237   2422246   2425283  
  5880.000000   2428311   2431309   2434251   2437121   2439893  
  5870.000000   2442541   2445039   2447371   2449539   2451568  
  5860.000000   2453506   2455408   2457331   2459319   2461398  
  5850.000000   2463579   2465858   2468226   2470660   2473136  
  5840.000000   2475619   2478076   2480481   2482824   2485120  
  5830.000000   2487399   2489705   2492071   2494513   2497017  
  5820.000000   2499553   2502075   2504549   2506955   2509291  
  5810.000000   2511572   2513810   2516024   2518212   2520391  
  5800.000000   2522551   2524721   2526896   2529103   2531309  
  5790.000000   2533503   2535607   2537569   2539282   2540675  
  5780.000000   2541638   2542099   2541968   2541207   2539794  
  5770.000000   2537784   2535271   2532418   2529383   2526342  
  5760.000000   2523401   2520640   2518063   2515672   2513438  
  5750.000000   2511367   2509462   2507745   2506219   2504869  
  5740.000000   2503656   2502523   2501422   2500314   2499198  
  5730.000000   2498080   2496994   2495956   2494989   2494090  
  5720.000000   2493258   2492477   2491738   2491023   2490323  
  5710.000000   2489622   2488917   2488211   2487515   2486848  
  5700.000000   2486224   2485646   2485104   2484575   2484036  
  5690.000000   2483482   2482920   2482387   2481911   2481522  
  5680.000000   2481201   2480910   2480567   2480096   2479420  
  5670.000000   2478497   2477302   2475840   2474111   2472130  
  5660.000000   2469904   2467466   2464859   2462163   2459460  
  5650.000000   2456842   2454366   2452060   2449907   2447874  
  5640.000000   2445912   2443989   2442085   2440196   2438328  
  5630.000000   2436484   2434669   2432884   2431143   2429457  
  5620.000000   2427851   2426335   2424912   2423558   2422248  
  5610.000000   2420947   2419641   2418329   2417035   2415787  
  5600.000000   2414609   2413505   2412466   2411465   2410479  
  5590.000000   2409490   2408496   2407501   2406509   2405520  
  5580.000000   2404528   2403523   2402500   2401465   2400429  
  5570.000000   2399404   2398397   2397400   2396393   2395356  
  5560.000000   2394267   2393123   2391929   2390701   2389457  
  5550.000000   2388210   2386965   2385727   2384501   2383293  
  5540.000000   2382113   2380967   2379852   2378759   2377674  
  5530.000000   2376588   2375499   2374418   2373357   2372328  
  5520.000000   2371326   2370338   2369337   2368300   2367210  
  5510.000000   2366066   2364872   2363639   2362371   2361066  
  5500.000000   2359720   2358337   2356930   2355527   2354152  
  5490.000000   2352817   2351504   2350178   2348783   2347278  
  5480.000000   2345640   2343887   2342058   2340207   2338378  
  5470.000000   2336597   2334862   2333158   2331466   2329777  
  5460.000000   2328087   2326396   2324695   2322969   2321196  
  5450.000000   2319362   2317470   2315545   2313629   2311764  
  5440.000000   2309977   2308264   2306609   2304974   2303340  
  5430.000000   2301693   2300046   2298411   2296807   2295236  
  5420.000000   2293708   2292230   2290837   2289566   2288473  
  5410.000000   2287580   2286893   2286359   2285925   2285512  
  5400.000000   2285089   2284637   2284196   2283804   2283525  
  5390.000000   2283383   2283405   2283578   2283912   2284400  
  5380.000000   2285074   2285940   2287027   2288310   2289787  
  5370.000000   2291404   2293154   2294998   2296963   2299034  
  5360.000000   2301256   2303615   2306163   2308891   2311876  
  5350.000000   2315134   2318761   2322772   2327240   2332130  
  5340.000000   2337475   2343208   2349366   2355899   2362868  
  5330.000000   2370231   2378046   2386251   2394897   2403927  
  5320.000000   2413431   2423399   2433966   2445138   2457042  
  5310.000000   2469640   2483009   2497068   2511875   2527362  
  5300.000000   2543615   2560601   2578430   2597074   2616628  
  5290.000000   2637026   2658301   2680324   2703054   2726330  
  5280.000000   2750118   2774326   2799026   2824246   2850131  
  5270.000000   2876720   2904049   2932000   2960405   2989028  
  5260.000000   3017672   3046217   3074640   3103000   3131346  
  5250.000000   3159704   3187968   3215994   3243529   3270419  
  5240.000000   3296498   3321803   3346347   3370308   3393737  
  5230.000000   3416765   3439324   3461409   3482840   3503566  
  5220.000000   3523432   3542477   3560659   3578127   3594906  
  5210.000000   3611156   3626847   3642042   3656599   3670502  
  5200.000000   3683592   3695905   3707377   3718140   3728195  
  5190.000000   3737677   3746544   3754862   3762529   3769581  
  5180.000000   3775928   3781638   3786658   3791073   3794834  
  5170.000000   3798009   3800548   3802530   3803940   3804889  
  5160.000000   3805379   3805505   3805229   3804596   3803538  
  5150.000000   3802092   3800222   3798004   3795441   3792614  
  5140.000000   3789511   3786173   3782558   3778686   3774521  
  5130.000000   3770104   3765430   3760550   3755468   3750225  
  5120.000000   3744817   3739282   3733622   3727873   3722040  
  5110.000000   3716150   3710193   3704183   3698114   3692011  
  5100.000000   3685889   3679792   3673742   3667765   3661858  
  5090.000000   3656015   3650210   3644433   3638671   3632930  
  5080.000000   3627212   3621524   3615856   3610199   3604528  
  5070.000000   3598830   3593087   3587300   3581459   3575567  
  5060.000000   3569609   3563584   3557476   3551290   3545023  
  5050.000000   3538693   3532300   3525852   3519332   3512730  
  5040.000000   3506024   3499214   3492299   3485306   3478260  
  5030.000000   3471193   3464128   3457085   3450075   3443112  
  5020.000000   3436212   3429392   3422671   3416054   3409544  
  5010.000000   3403120   3396772   3390481   3384256   3378105  
  5000.000000   3372071   3366178   3360476   3354970   3349682  
  4990.000000   3344589   3339699   3334985   3330464   3326121  
  4980.000000   3321988   3318052   3314348   3310858   3307620  
  4970.000000   3304620   3301909   3299478   3297381   3295600  
  4960.000000   3294177   3293077   3292333   3291906   3291834  
  4950.000000   3292088   3292712   3293678   3295024   3296711  
  4940.000000   3298769   3301154   3303901   3306974   3310418  
  4930.000000   3314202   3318372   3322891   3327798   3333050  
  4920.000000   3338678   3344642   3350967   3357615   3364610  
  4910.000000   3371916   3379552   3387487   3395730   3404246  
  4900.000000   3413025   3422023   3431211   3440542   3449978  
  4890.000000   3459482   3469011   3478531   3487985   3497325  
  4880.000000   3506469   3515360   3523905   3532059   3539743  
  4870.000000   3546943   3553607   3559757   3565366   3570484  
  4860.000000   3575104   3579290   3583039   3586410   3589390  
  4850.000000   3592028   3594309   3596282   3597941   3599344  
  4840.000000   3600500   3601470   3602270   3602957   3603550  
  4830.000000   3604101   3604631   3605184   3605774   3606425  
  4820.000000   3607140   3607925   3608776   3609693   3610678  
  4810.000000   3611729   3612844   3614008   3615206   3616417  
  4800.000000   3617629   3618834   3620047   3621286   3622582  
  4790.000000   3623952   3625405   3626928   3628501   3630093  
  4780.000000   3631679   3633243   3634781   3636297   3637795  
  4770.000000   3639284   3640764   3642236   3643697   3645146  
  4760.000000   3646577   3647986   3649355   3650668   3651903  
  4750.000000   3653050   3654099   3655062   3655948   3656779  
  4740.000000   3657558   3658292   3658965   3659565   3660076  
  4730.000000   3660494   3660819   3661064   3661238   3661351  
  4720.000000   3661404   3661396   3661330   3661214   3661073  
  4710.000000   3660932   3660832   3660803   3660878   3661073  
  4700.000000   3661411   3661906   3662582   3663455   3664551  
  4690.000000   3665875   3667429   3669187   3671121   3673179  
  4680.000000   3675320   3677483   3679636   3681731   3683755  
  4670.000000   3685681   3687521   3689281   3691003   3692722  
  4660.000000   3694496   3696368   3698390   3700586   3702980  
  4650.000000   3705569   3708349   3711298   3714391   3717596  
  4640.000000   3720883   3724223   3727600   3731005   3734437  
  4630.000000   3737902   3741396   3744907   3748396   3751818  
  4620.000000   3755099   3758176   3760980   3763480   3765649  
  4610.000000   3767509   3769080   3770424   3771578   3772609  
  4600.000000   3773542   3774422   3775246   3776035   3776759  
  4590.000000   3777416   3777960   3778377   3778617   3778665  
  4580.000000   3778482   3778067   3777406   3776523   3775431  
  4570.000000   3774175   3772782   3771301   3769750   3768155  
  4560.000000   3766514   3764831   3763088   3761285   3759413  
  4550.000000   3757486   3755514   3753524   3751533   3749565  
  4540.000000   3747630   3745737   3743891   3742087   3740332  
  4530.000000   3738617   3736949   3735318   3733735   3732188  
  4520.000000   3730703   3729273   3727944   3726718   3725659  
  4510.000000   3724773   3724135   3723751   3723704   3723999  
  4500.000000   3724727   3725889   3727576   3729779   3732585  
  4490.000000   3735976   3740034   3744736   3750164   3756285  
  4480.000000   3763168   3770764   3779120   3788161   3797909  
  4470.000000   3808270   3819243   3830723   3842699   3855068  
  4460.000000   3867819   3880865   3894205   3907769   3921554  
  4450.000000   3935498   3949592   3963787   3978074   3992431  
  4440.000000   4006859   4021358   4035920   4050543   4065181  
  4430.000000   4079805   4094329   4108709   4122841   4136691  
  4420.000000   4150163   4163236   4175823   4187908   4199402  
  4410.000000   4210288   4220480   4229976   4238714   4246734  
  4400.000000   4254026   4260686   4266756   4272371   4277603  
  4390.000000   4282591   4287407   4292167   4296916   4301731  
  4380.000000   4306619   4311615   4316702   4321894   4327179  
  4370.000000   4332576   4338089   4343737   4349519   4355431  
  4360.000000   4361443   4367532   4373648   4379777   4385857  
  4350.000000   4391892   4397801   4403597   4409192   4414627  
  4340.000000   4419846   4424912   4429748   4434299   4438292  
  4330.000000   4441389   4443069   4442840   4440259   4435157  
  4320.000000   4427647   4418217   4407579   4396605   4386073  
  4310.000000   4376617   4368557   4361984   4356749   4352627  
  4300.000000   4349360   4346752   4344680   4343067   4341894  
  4290.000000   4341103   4340692   4340590   4340812   4341326  
  4280.000000   4342175   4343357   4344894   4346768   4348943  
  4270.000000   4351377   4353998   4356731   4359435   4361930  
  4260.000000   4363944   4365172   4365291   4364058   4361347  
  4250.000000   4357224   4351915   4345805   4339317   4332891  
  4240.000000   4326843   4321406   4316637   4312524   4308944  
  4230.000000   4305776   4302868   4300098   4297360   4294571  
  4220.000000   4291698   4288718   4285686   4282650   4279739  
  4210.000000   4277043   4274690   4272736   4271242   4270187  
  4200.000000   4269553   4269261   4269262   4269467   4269838  
  4190.000000   4270306   4270865   4271472   4272157   4272899  
  4180.000000   4273753   4274714   4275848   4277159   4278718  
  4170.000000   4280539   4282698   4285213   4288157   4291532  
  4160.000000   4295386   4299688   4304455   4309623   4315196  
  4150.000000   4321105   4327363   4333916   4340797   4347969  
  4140.000000   4355479   4363300   4371482   4379993   4388879  
  4130.000000   4398098   4407688   4417607   4427901   4438546  
  4120.000000   4449601   4461064   4472999   4485407   4498339  
  4110.000000   4511775   4525734   4540160   4555027   4570241  
  4100.000000   4585737   4601409   4617198   4633036   4648909  
  4090.000000   4664816   4680780   4696826   4712962   4729195  
  4080.000000   4745490   4761830   4778150   4794426   4810568  
  4070.000000   4826540   4842222   4857566   4872449   4886851  
  4060.000000   4900688   4913989   4926703   4938880   4950464  
  4050.000000   4961507   4971955   4981883   4991254   5000160  
  4040.000000   5008546   5016468   5023824   5030636   5036799  
  4030.000000   5042365   5047275   5051614   5055345   5058528  
  4020.000000   5061083   5063048   5064391   5065174   5065359  
  4010.000000   5065069   5064369   5063279   5061618   5059427  
  4000.000000   5056965  
##END= 
