##TITLE= Sample 030 By ssteindl date Montag, November 19 2018
##JCAMP-DX= 4.24
##DATA TYPE= INFRARED SPECTRUM
##ORIGIN= Exported PE Spectrum Data File
##OWNER= Sandra Steindl
##DATE= 18/11/19
##TIME= 17:59:14.00
##SPECTROMETER/DATA SYSTEM= PERKIN-ELMER Frontier FT-IR/NIR IR
##INSTRUMENT PARAMETERS=
  APODIZATION=stark
  DETECTOR=INGAAS
##RESOLUTION= 16.000000
##DELTAX= -2.000000
##XUNITS= 1/CM
##YUNITS= A
##XFACTOR= 1.00
##YFACTOR= 0.00000011920928955078
##FIRSTX= 10000.00
##LASTX= 4000.00
##NPOINTS= 3001
##FIRSTY= 0.202054
##MAXY= 0.676215
##MINY= 0.174273
##XYDATA= (X++(Y..Y))
 10000.000000   1694955   1695845   1696446   1696186   1694674  
  9990.000000   1691733   1687506   1682497   1677572   1673608  
  9980.000000   1670984   1669534   1668661   1667888   1667085  
  9970.000000   1666769   1667782   1670899   1676257   1683082  
  9960.000000   1689879   1694827   1696530   1694348   1688637  
  9950.000000   1680381   1670888   1661316   1652594   1645429  
  9940.000000   1640431   1638193   1639043   1642927   1649033  
  9930.000000   1656041   1662298   1666530   1668217   1667841  
  9920.000000   1666629   1665901   1666474   1668109   1669689  
  9910.000000   1669613   1666642   1660436   1651778   1642285  
  9900.000000   1633731   1627459   1623908   1622719   1623011  
  9890.000000   1623878   1624710   1625227   1625404   1625174  
  9880.000000   1624407   1622891   1620590   1617754   1615000  
  9870.000000   1613085   1612701   1614140   1617301   1621723  
  9860.000000   1626839   1632170   1637358   1642145   1646200  
  9850.000000   1649113   1650474   1650107   1648294   1645818  
  9840.000000   1643749   1643040   1644055   1646384   1648888  
  9830.000000   1650238   1649392   1646140   1641137   1635674  
  9820.000000   1631104   1628302   1627349   1627565   1627871  
  9810.000000   1627265   1625212   1621774   1617524   1613259  
  9800.000000   1609756   1607591   1607076   1608282   1611002  
  9790.000000   1614769   1618836   1622327   1624466   1624877  
  9780.000000   1623812   1622089   1620856   1621033   1622928  
  9770.000000   1625922   1628704   1629688   1627714   1622563  
  9760.000000   1615123   1607181   1600735   1597401   1597789  
  9750.000000   1601513   1607328   1613694   1619205   1622919  
  9740.000000   1624471   1623932   1621694   1618228   1614047  
  9730.000000   1609583   1605228   1601242   1597796   1594929  
  9720.000000   1592631   1590936   1589935   1589881   1590951  
  9710.000000   1593225   1596419   1599941   1603013   1604917  
  9700.000000   1605333   1604363   1602545   1600463   1598533  
  9690.000000   1596729   1594706   1592002   1588407   1584177  
  9680.000000   1580035   1576959   1575755   1576791   1579762  
  9670.000000   1583914   1588227   1591879   1594384   1595707  
  9660.000000   1596109   1595937   1595495   1594876   1594104  
  9650.000000   1593056   1591646   1589694   1586998   1583287  
  9640.000000   1578349   1572261   1565486   1559025   1554131  
  9630.000000   1552066   1553584   1558669   1566424   1575284  
  9620.000000   1583469   1589425   1592246   1591757   1588482  
  9610.000000   1583359   1577502   1571967   1567625   1565099  
  9600.000000   1564684   1566325   1569545   1573552   1577318  
  9590.000000   1579891   1580559   1579095   1575716   1570997  
  9580.000000   1565661   1560344   1555540   1551503   1548393  
  9570.000000   1546254   1545109   1544870   1545308   1546042  
  9560.000000   1546584   1546536   1545710   1544296   1542803  
  9550.000000   1541917   1542254   1544108   1547391   1551611  
  9540.000000   1556097   1560098   1563014   1564406   1564088  
  9530.000000   1562081   1558649   1554287   1549681   1545656  
  9520.000000   1542973   1542197   1543469   1546513   1550628  
  9510.000000   1554977   1558733   1561367   1562649   1562650  
  9500.000000   1561597   1559729   1557292   1554457   1551438  
  9490.000000   1548416   1545552   1542900   1540389   1537890  
  9480.000000   1535301   1532703   1530385   1528816   1528465  
  9470.000000   1529569   1531966   1535045   1537938   1539819  
  9460.000000   1540212   1539199   1537358   1535575   1534690  
  9450.000000   1535225   1537259   1540421   1544116   1547618  
  9440.000000   1550278   1551495   1550822   1547966   1542957  
  9430.000000   1536232   1528698   1521620   1516341   1513960  
  9420.000000   1514943   1519036   1525245   1532277   1538838  
  9410.000000   1544116   1547821   1550171   1551616   1552543  
  9400.000000   1553148   1553307   1552778   1551242   1548554  
  9390.000000   1544733   1540011   1534750   1529362   1524333  
  9380.000000   1520112   1517187   1515872   1516302   1518227  
  9370.000000   1521105   1524177   1526728   1528302   1528791  
  9360.000000   1528466   1527734   1527030   1526487   1525982  
  9350.000000   1525114   1523510   1521000   1517780   1514367  
  9340.000000   1511433   1509628   1509381   1510841   1513793  
  9330.000000   1517768   1522078   1526015   1528940   1530437  
  9320.000000   1530403   1529102   1527142   1525296   1524245  
  9310.000000   1524294   1525245   1526448   1527049   1526315  
  9300.000000   1523913   1520089   1515565   1511307   1508109  
  9290.000000   1506361   1505920   1506291   1506816   1506985  
  9280.000000   1506541   1505554   1504300   1503093   1502159  
  9270.000000   1501552   1501241   1501071   1500856   1500287  
  9260.000000   1499047   1496830   1493520   1489278   1484616  
  9250.000000   1480376   1477545   1476957   1478958   1483231  
  9240.000000   1488855   1494583   1499215   1501942   1502564  
  9230.000000   1501480   1499532   1497614   1496419   1496219  
  9220.000000   1496941   1498223   1499597   1500627   1501029  
  9210.000000   1500745   1499907   1498838   1497927   1497578  
  9200.000000   1498042   1499339   1501204   1503143   1504613  
  9190.000000   1505195   1504764   1503551   1502050   1500834  
  9180.000000   1500296   1500539   1501334   1502286   1502991  
  9170.000000   1503229   1503018   1502567   1502130   1501853  
  9160.000000   1501690   1501435   1500814   1499653   1497930  
  9150.000000   1495815   1493587   1491599   1490167   1489526  
  9140.000000   1489749   1490774   1492371   1494132   1495497  
  9130.000000   1495861   1494785   1492122   1488126   1483400  
  9120.000000   1478759   1474968   1472509   1471442   1471465  
  9110.000000   1472088   1472868   1473565   1474162   1474788  
  9100.000000   1475544   1476374   1477047   1477256   1476839  
  9090.000000   1475855   1474649   1473667   1473306   1473701  
  9080.000000   1474663   1475776   1476579   1476804   1476472  
  9070.000000   1475886   1475466   1475540   1476193   1477225  
  9060.000000   1478263   1478922   1478959   1478341   1477217  
  9050.000000   1475843   1474483   1473358   1472635   1472430  
  9040.000000   1472819   1473784   1475166   1476643   1477770  
  9030.000000   1478121   1477424   1475759   1473554   1471508  
  9020.000000   1470323   1470487   1472088   1474743   1477736  
  9010.000000   1480222   1481550   1481353   1479655   1476765  
  9000.000000   1473204   1469525   1466209   1463642   1462132  
  8990.000000   1461908   1463075   1465608   1469298   1473772  
  8980.000000   1478470   1482810   1486273   1488530   1489484  
  8970.000000   1489252   1488163   1486598   1484939   1483435  
  8960.000000   1482212   1481254   1480442   1479629   1478681  
  8950.000000   1477573   1476354   1475183   1474220   1473616  
  8940.000000   1473427   1473620   1474083   1474666   1475253  
  8930.000000   1475756   1476157   1476440   1476608   1476633  
  8920.000000   1476493   1476177   1475718   1475208   1474767  
  8910.000000   1474533   1474603   1475040   1475868   1477081  
  8900.000000   1478644   1480461   1482363   1484056   1485174  
  8890.000000   1485339   1484322   1482123   1479063   1475724  
  8880.000000   1472824   1471005   1470635   1471717   1473920  
  8870.000000   1476715   1479552   1482028   1483968   1485400  
  8860.000000   1486461   1487287   1487969   1488534   1489020  
  8850.000000   1489503   1490122   1491037   1492340   1494015  
  8840.000000   1495895   1497730   1499246   1500260   1500725  
  8830.000000   1500698   1500291   1499567   1498553   1497204  
  8820.000000   1495515   1493548   1491509   1489711   1488505  
  8810.000000   1488178   1488862   1490528   1493001   1496053  
  8800.000000   1499450   1503001   1506563   1510004   1513192  
  8790.000000   1515976   1518242   1519921   1521055   1521762  
  8780.000000   1522242   1522682   1523224   1523909   1524683  
  8770.000000   1525441   1526062   1526478   1526684   1526763  
  8760.000000   1526836   1527054   1527527   1528325   1529439  
  8750.000000   1530806   1532320   1533864   1535357   1536751  
  8740.000000   1538053   1539277   1540440   1541520   1542479  
  8730.000000   1543270   1543898   1544436   1545025   1545851  
  8720.000000   1547053   1548695   1550696   1552889   1555054  
  8710.000000   1557025   1558730   1560197   1561509   1562715  
  8700.000000   1563778   1564557   1564872   1564590   1563737  
  8690.000000   1562514   1561280   1560427   1560263   1560901  
  8680.000000   1562227   1563970   1565805   1567484   1568892  
  8670.000000   1570072   1571172   1572378   1573842   1575631  
  8660.000000   1577739   1580073   1582510   1584868   1586977  
  8650.000000   1588647   1589771   1590309   1590372   1590180  
  8640.000000   1590049   1590283   1591101   1592583   1594672  
  8630.000000   1597220   1600050   1603044   1606148   1609380  
  8620.000000   1612746   1616210   1619667   1622960   1625934  
  8610.000000   1628481   1630577   1632260   1633605   1634682  
  8600.000000   1635534   1636205   1636742   1637241   1637819  
  8590.000000   1638605   1639661   1640958   1642348   1643633  
  8580.000000   1644607   1645169   1645341   1645285   1645250  
  8570.000000   1645486   1646176   1647384   1649049   1651013  
  8560.000000   1653061   1654982   1656600   1657821   1658641  
  8550.000000   1659165   1659583   1660139   1661049   1662433  
  8540.000000   1664257   1666313   1668274   1669776   1670549  
  8530.000000   1670497   1669732   1668539   1667295   1666343  
  8520.000000   1665920   1666103   1666840   1667996   1669416  
  8510.000000   1670976   1672588   1674223   1675868   1677536  
  8500.000000   1679242   1681005   1682862   1684814   1686846  
  8490.000000   1688864   1690737   1692292   1693378   1693925  
  8480.000000   1693986   1693754   1693511   1693590   1694274  
  8470.000000   1695734   1697944   1700704   1703651   1706372  
  8460.000000   1708476   1709723   1710081   1709749   1709104  
  8450.000000   1708573   1708519   1709091   1710208   1711564  
  8440.000000   1712778   1713512   1713620   1713199   1712560  
  8430.000000   1712117   1712221   1713066   1714635   1716752  
  8420.000000   1719163   1721641   1724056   1726377   1728624  
  8410.000000   1730800   1732840   1734620   1735999   1736878  
  8400.000000   1737257   1737238   1737002   1736745   1736607  
  8390.000000   1736661   1736879   1737209   1737551   1737854  
  8380.000000   1738070   1738207   1738270   1738303   1738346  
  8370.000000   1738443   1738610   1738807   1738938   1738837  
  8360.000000   1738329   1737265   1735618   1733506   1731205  
  8350.000000   1729073   1727454   1726587   1726547   1727245  
  8340.000000   1728465   1729965   1731539   1733070   1734519  
  8330.000000   1735881   1737149   1738280   1739209   1739862  
  8320.000000   1740213   1740281   1740155   1739939   1739732  
  8310.000000   1739594   1739526   1739508   1739490   1739448  
  8300.000000   1739368   1739275   1739201   1739186   1739245  
  8290.000000   1739374   1739533   1739658   1739654   1739428  
  8280.000000   1738909   1738089   1737039   1735906   1734876  
  8270.000000   1734121   1733741   1733721   1733926   1734146  
  8260.000000   1734172   1733875   1733243   1732386   1731478  
  8250.000000   1730703   1730174   1729925   1729897   1730006  
  8240.000000   1730164   1730329   1730486   1730630   1730729  
  8230.000000   1730717   1730486   1729936   1728998   1727674  
  8220.000000   1726033   1724202   1722327   1720548   1718974  
  8210.000000   1717678   1716679   1715953   1715411   1714930  
  8200.000000   1714350   1713535   1712399   1710963   1709357  
  8190.000000   1707797   1706515   1705674   1705303   1705281  
  8180.000000   1705369   1705308   1704889   1704047   1702847  
  8170.000000   1701468   1700109   1698919   1697937   1697089  
  8160.000000   1696233   1695208   1693902   1692272   1690345  
  8150.000000   1688195   1685922   1683629   1681421   1679405  
  8140.000000   1677683   1676335   1675396   1674832   1674539  
  8130.000000   1674369   1674170   1673845   1673371   1672814  
  8120.000000   1672280   1671873   1671629   1671498   1671350  
  8110.000000   1671022   1670375   1669339   1667940   1666269  
  8100.000000   1664453   1662602   1660771   1658962   1657141  
  8090.000000   1655278   1653381   1651514   1649775   1648275  
  8080.000000   1647088   1646234   1645666   1645298   1645029  
  8070.000000   1644781   1644516   1644225   1643928   1643631  
  8060.000000   1643322   1642953   1642460   1641766   1640826  
  8050.000000   1639626   1638199   1636622   1634991   1633420  
  8040.000000   1632003   1630815   1629884   1629195   1628683  
  8030.000000   1628244   1627761   1627120   1626250   1625131  
  8020.000000   1623815   1622391   1620980   1619685   1618577  
  8010.000000   1617681   1616987   1616467   1616099   1615873  
  8000.000000   1615789   1615842   1616006   1616219   1616397  
  7990.000000   1616445   1616287   1615883   1615244   1614415  
  7980.000000   1613470   1612490   1611545   1610701   1610004  
  7970.000000   1609491   1609170   1609022   1608981   1608949  
  7960.000000   1608811   1608463   1607856   1606996   1605959  
  7950.000000   1604847   1603764   1602778   1601913   1601169  
  7940.000000   1600542   1600064   1599796   1599815   1600165  
  7930.000000   1600822   1601667   1602509   1603140   1603396  
  7920.000000   1603223   1602676   1601908   1601087   1600341  
  7910.000000   1599706   1599132   1598527   1597818   1597011  
  7900.000000   1596205   1595570   1595274   1595425   1596002  
  7890.000000   1596861   1597767   1598465   1598760   1598565  
  7880.000000   1597929   1597003   1596000   1595128   1594539  
  7870.000000   1594304   1594400   1594738   1595187   1595614  
  7860.000000   1595912   1596016   1595909   1595603   1595123  
  7850.000000   1594494   1593731   1592846   1591873   1590873  
  7840.000000   1589952   1589236   1588837   1588823   1589166  
  7830.000000   1589757   1590412   1590939   1591181   1591079  
  7820.000000   1590670   1590074   1589438   1588889   1588484  
  7810.000000   1588203   1587972   1587691   1587280   1586700  
  7800.000000   1585951   1585061   1584058   1582968   1581799  
  7790.000000   1580572   1579317   1578096   1576986   1576067  
  7780.000000   1575395   1574985   1574797   1574747   1574724  
  7770.000000   1574610   1574315   1573779   1572997   1572011  
  7760.000000   1570912   1569812   1568835   1568081   1567607  
  7750.000000   1567416   1567456   1567633   1567842   1567984  
  7740.000000   1567989   1567822   1567476   1566965   1566314  
  7730.000000   1565559   1564747   1563941   1563211   1562623  
  7720.000000   1562211   1561964   1561814   1561654   1561360  
  7710.000000   1560824   1559993   1558868   1557514   1556025  
  7700.000000   1554513   1553073   1551784   1550700   1549858  
  7690.000000   1549283   1548980   1548935   1549111   1549453  
  7680.000000   1549896   1550375   1550841   1551252   1551578  
  7670.000000   1551783   1551835   1551701   1551374   1550877  
  7660.000000   1550279   1549679   1549187   1548882   1548793  
  7650.000000   1548882   1549056   1549201   1549211   1549025  
  7640.000000   1548637   1548097   1547492   1546932   1546523  
  7630.000000   1546352   1546473   1546886   1547543   1548338  
  7620.000000   1549136   1549797   1550221   1550366   1550276  
  7610.000000   1550049   1549815   1549673   1549665   1549761  
  7600.000000   1549892   1549984   1550009   1550000   1550047  
  7590.000000   1550253   1550694   1551369   1552206   1553069  
  7580.000000   1553830   1554388   1554729   1554899   1555003  
  7570.000000   1555146   1555423   1555880   1556529   1557354  
  7560.000000   1558322   1559396   1560537   1561702   1562852  
  7550.000000   1563958   1565016   1566035   1567047   1568064  
  7540.000000   1569087   1570063   1570925   1571594   1572034  
  7530.000000   1572273   1572422   1572653   1573157   1574089  
  7520.000000   1575529   1577461   1579779   1582315   1584892  
  7510.000000   1587350   1589590   1591562   1593280   1594784  
  7500.000000   1596152   1597448   1598742   1600067   1601447  
  7490.000000   1602874   1604346   1605862   1607441   1609124  
  7480.000000   1610956   1612974   1615186   1617559   1620034  
  7470.000000   1622527   1624972   1627315   1629554   1631696  
  7460.000000   1633777   1635821   1637859   1639919   1642048  
  7450.000000   1644300   1646739   1649418   1652356   1655524  
  7440.000000   1658845   1662209   1665510   1668661   1671618  
  7430.000000   1674358   1676891   1679229   1681398   1683430  
  7420.000000   1685390   1687367   1689474   1691812   1694434  
  7410.000000   1697322   1700380   1703465   1706421   1709141  
  7400.000000   1711595   1713831   1715955   1718086   1720327  
  7390.000000   1722731   1725309   1728032   1730859   1733737  
  7380.000000   1736603   1739390   1742027   1744461   1746675  
  7370.000000   1748707   1750653   1752636   1754775   1757134  
  7360.000000   1759701   1762396   1765107   1767740   1770261  
  7350.000000   1772723   1775230   1777908   1780822   1783967  
  7340.000000   1787250   1790534   1793679   1796593   1799247  
  7330.000000   1801663   1803883   1805939   1807839   1809576  
  7320.000000   1811136   1812540   1813838   1815128   1816510  
  7310.000000   1818083   1819892   1821947   1824194   1826566  
  7300.000000   1828971   1831331   1833562   1835593   1837359  
  7290.000000   1838803   1839896   1840639   1841076   1841291  
  7280.000000   1841394   1841509   1841747   1842199   1842904  
  7270.000000   1843866   1845045   1846378   1847788   1849206  
  7260.000000   1850583   1851892   1853137   1854322   1855477  
  7250.000000   1856607   1857735   1858858   1860007   1861205  
  7240.000000   1862514   1863989   1865696   1867671   1869931  
  7230.000000   1872449   1875189   1878084   1881092   1884153  
  7220.000000   1887242   1890314   1893351   1896317   1899217  
  7210.000000   1902052   1904875   1907740   1910730   1913894  
  7200.000000   1917278   1920873   1924665   1928610   1932686  
  7190.000000   1936858   1941123   1945450   1949824   1954196  
  7180.000000   1958543   1962838   1967114   1971420   1975859  
  7170.000000   1980517   1985475   1990740   1996284   2002007  
  7160.000000   2007811   2013579   2019255   2024795   2030228  
  7150.000000   2035583   2040941   2046364   2051949   2057759  
  7140.000000   2063866   2070287   2077032   2084058   2091325  
  7130.000000   2098765   2106342   2114011   2121766   2129578  
  7120.000000   2137444   2145324   2153206   2161056   2168886  
  7110.000000   2176699   2184546   2192458   2200485   2208642  
  7100.000000   2216949   2225405   2234025   2242813   2251783  
  7090.000000   2260925   2270213   2279585   2288966   2298273  
  7080.000000   2307451   2316468   2325345   2334116   2342835  
  7070.000000   2351538   2360247   2368955   2377652   2386322  
  7060.000000   2394965   2403590   2412216   2420858   2429531  
  7050.000000   2438242   2446990   2455773   2464581   2473408  
  7040.000000   2482237   2491062   2499876   2508692   2517523  
  7030.000000   2526397   2535314   2544258   2553165   2561956  
  7020.000000   2570529   2578817   2586777   2594431   2601819  
  7010.000000   2609017   2616066   2623000   2629803   2636467  
  7000.000000   2642960   2649297   2655481   2661554   2667521  
  6990.000000   2673398   2679154   2684780   2690247   2695572  
  6980.000000   2700765   2705872   2710901   2715867   2720733  
  6970.000000   2725473   2730036   2734413   2738597   2742627  
  6960.000000   2746527   2750346   2754096   2757800   2761441  
  6950.000000   2765020   2768505   2771884   2775120   2778202  
  6940.000000   2781107   2783850   2786448   2788954   2791407  
  6930.000000   2793851   2796290   2798712   2801067   2803311  
  6920.000000   2805390   2807294   2809021   2810617   2812129  
  6910.000000   2813624   2815145   2816730   2818377   2820064  
  6900.000000   2821730   2823306   2824721   2825940   2826967  
  6890.000000   2827860   2828709   2829616   2830645   2831821  
  6880.000000   2833104   2834428   2835720   2836945   2838103  
  6870.000000   2839240   2840404   2841623   2842878   2844109  
  6860.000000   2845237   2846195   2846958   2847552   2848041  
  6850.000000   2848503   2849005   2849588   2850268   2851050  
  6840.000000   2851932   2852921   2854007   2855169   2856355  
  6830.000000   2857505   2858558   2859486   2860297   2861042  
  6820.000000   2861777   2862539   2863315   2864042   2864624  
  6810.000000   2864978   2865055   2864876   2864509   2864061  
  6800.000000   2863624   2863271   2863024   2862885   2862829  
  6790.000000   2862839   2862894   2862980   2863069   2863133  
  6780.000000   2863135   2863054   2862877   2862620   2862298  
  6770.000000   2861929   2861514   2861040   2860488   2859852  
  6760.000000   2859143   2858392   2857629   2856877   2856127  
  6750.000000   2855358   2854542   2853679   2852795   2851951  
  6740.000000   2851209   2850608   2850136   2849734   2849314  
  6730.000000   2848792   2848125   2847322   2846428   2845503  
  6720.000000   2844583   2843671   2842731   2841734   2840662  
  6710.000000   2839548   2838445   2837424   2836516   2835716  
  6700.000000   2834960   2834167   2833254   2832175   2830919  
  6690.000000   2829511   2827981   2826356   2824641   2822843  
  6680.000000   2820969   2819057   2817157   2815338   2813645  
  6670.000000   2812097   2810666   2809305   2807943   2806530  
  6660.000000   2805031   2803443   2801774   2800043   2798265  
  6650.000000   2796451   2794607   2792741   2790856   2788951  
  6640.000000   2787017   2785044   2783019   2780946   2778840  
  6630.000000   2776735   2774662   2772646   2770685   2768759  
  6620.000000   2766831   2764872   2762865   2760822   2758765  
  6610.000000   2756720   2754697   2752680   2750639   2748538  
  6600.000000   2746359   2744106   2741806   2739500   2737226  
  6590.000000   2735006   2732851   2730757   2728719   2726731  
  6580.000000   2724789   2722886   2721009   2719146   2717287  
  6570.000000   2715434   2713605   2711823   2710110   2708465  
  6560.000000   2706865   2705262   2703612   2701882   2700081  
  6550.000000   2698243   2696428   2694683   2693036   2691476  
  6540.000000   2689974   2688492   2687013   2685542   2684104  
  6530.000000   2682724   2681414   2680158   2678929   2677694  
  6520.000000   2676442   2675183   2673949   2672764   2671637  
  6510.000000   2670542   2669431   2668249   2666964   2665578  
  6500.000000   2664133   2662691   2661317   2660052   2658909  
  6490.000000   2657874   2656914   2656001   2655113   2654236  
  6480.000000   2653363   2652487   2651597   2650685   2649748  
  6470.000000   2648785   2647801   2646792   2645749   2644653  
  6460.000000   2643487   2642248   2640949   2639628   2638330  
  6450.000000   2637098   2635954   2634899   2633912   2632970  
  6440.000000   2632048   2631137   2630232   2629327   2628408  
  6430.000000   2627448   2626425   2625326   2624168   2622987  
  6420.000000   2621836   2620755   2619759   2618825   2617909  
  6410.000000   2616968   2615979   2614959   2613958   2613039  
  6400.000000   2612255   2611623   2611118   2610683   2610251  
  6390.000000   2609759   2609173   2608483   2607704   2606860  
  6380.000000   2605982   2605099   2604241   2603437   2602708  
  6370.000000   2602065   2601498   2600979   2600468   2599929  
  6360.000000   2599335   2598686   2597994   2597282   2596562  
  6350.000000   2595833   2595077   2594271   2593397   2592454  
  6340.000000   2591455   2590428   2589394   2588370   2587350  
  6330.000000   2586323   2585268   2584174   2583032   2581847  
  6320.000000   2580621   2579363   2578076   2576771   2575452  
  6310.000000   2574140   2572844   2571581   2570339   2569109  
  6300.000000   2567854   2566547   2565153   2563654   2562034  
  6290.000000   2560292   2558424   2556438   2554336   2552138  
  6280.000000   2549863   2547544   2545201   2542858   2540509  
  6270.000000   2538151   2535762   2533335   2530863   2528359  
  6260.000000   2525830   2523291   2520738   2518169   2515573  
  6250.000000   2512951   2510310   2507674   2505056   2502467  
  6240.000000   2499891   2497299   2494653   2491924   2489100  
  6230.000000   2486195   2483239   2480267   2477308   2474375  
  6220.000000   2471471   2468593   2465739   2462917   2460136  
  6210.000000   2457405   2454723   2452080   2449457   2446835  
  6200.000000   2444203   2441556   2438900   2436238   2433575  
  6190.000000   2430912   2428256   2425621   2423028   2420506  
  6180.000000   2418073   2415736   2413476   2411256   2409036  
  6170.000000   2406777   2404466   2402103   2399711   2397313  
  6160.000000   2394929   2392564   2390220   2387895   2385594  
  6150.000000   2383327   2381110   2378951   2376852   2374800  
  6140.000000   2372783   2370791   2368828   2366905   2365041  
  6130.000000   2363242   2361507   2359810   2358127   2356427  
  6120.000000   2354704   2352962   2351227   2349523   2347878  
  6110.000000   2346298   2344793   2343357   2341995   2340708  
  6100.000000   2339507   2338390   2337357   2336391   2335480  
  6090.000000   2334608   2333781   2333006   2332309   2331698  
  6080.000000   2331187   2330757   2330393   2330061   2329746  
  6070.000000   2329427   2329111   2328801   2328520   2328283  
  6060.000000   2328122   2328057   2328122   2328326   2328685  
  6050.000000   2329177   2329789   2330479   2331237   2332050  
  6040.000000   2332947   2333952   2335111   2336439   2337944  
  6030.000000   2339593   2341357   2343195   2345093   2347046  
  6020.000000   2349072   2351177   2353365   2355610   2357878  
  6010.000000   2360119   2362298   2364384   2366377   2368282  
  6000.000000   2370125   2371925   2373713   2375513   2377361  
  5990.000000   2379279   2381293   2383407   2385616   2387894  
  5980.000000   2390214   2392550   2394899   2397268   2399688  
  5970.000000   2402183   2404781   2407488   2410303   2413203  
  5960.000000   2416171   2419179   2422207   2425230   2428228  
  5950.000000   2431179   2434077   2436918   2439723   2442513  
  5940.000000   2445317   2448147   2451006   2453882   2456762  
  5930.000000   2459642   2462538   2465477   2468497   2471620  
  5920.000000   2474845   2478139   2481452   2484725   2487918  
  5910.000000   2491012   2494023   2496974   2499898   2502814  
  5900.000000   2505727   2508635   2511533   2514425   2517324  
  5890.000000   2520252   2523225   2526252   2529329   2532444  
  5880.000000   2535575   2538702   2541806   2544860   2547839  
  5870.000000   2550709   2553445   2556028   2558471   2560803  
  5860.000000   2563083   2565368   2567717   2570168   2572743  
  5850.000000   2575446   2578280   2581241   2584330   2587544  
  5840.000000   2590869   2594282   2597751   2601246   2604740  
  5830.000000   2608225   2611698   2615164   2618614   2622035  
  5820.000000   2625388   2628639   2631741   2634674   2637410  
  5810.000000   2639950   2642276   2644399   2646301   2648007  
  5800.000000   2649516   2650880   2652116   2653275   2654346  
  5790.000000   2655332   2656169   2656818   2657202   2657287  
  5780.000000   2657021   2656399   2655400   2654042   2652338  
  5770.000000   2650341   2648118   2645769   2643393   2641091  
  5760.000000   2638927   2636940   2635130   2633487   2631997  
  5750.000000   2630660   2629492   2628508   2627724   2627123  
  5740.000000   2626681   2626342   2626067   2625811   2625565  
  5730.000000   2625323   2625108   2624926   2624796   2624712  
  5720.000000   2624680   2624686   2624735   2624818   2624938  
  5710.000000   2625091   2625286   2625530   2625843   2626246  
  5700.000000   2626759   2627387   2628120   2628925   2629757  
  5690.000000   2630575   2631343   2632049   2632691   2633281  
  5680.000000   2633819   2634304   2634714   2635031   2635229  
  5670.000000   2635298   2635226   2635016   2634657   2634153  
  5660.000000   2633497   2632706   2631802   2630833   2629843  
  5650.000000   2628879   2627957   2627080   2626217   2625342  
  5640.000000   2624430   2623479   2622504   2621537   2620604  
  5630.000000   2619728   2618911   2618150   2617432   2616749  
  5620.000000   2616093   2615459   2614836   2614216   2613585  
  5610.000000   2612941   2612288   2611643   2611024   2610442  
  5600.000000   2609893   2609355   2608791   2608168   2607464  
  5590.000000   2606680   2605829   2604936   2604015   2603072  
  5580.000000   2602093   2601064   2599970   2598815   2597606  
  5570.000000   2596359   2595083   2593778   2592433   2591041  
  5560.000000   2589600   2588126   2586642   2585178   2583754  
  5550.000000   2582377   2581042   2579733   2578439   2577158  
  5540.000000   2575899   2574670   2573481   2572329   2571204  
  5530.000000   2570096   2569000   2567918   2566864   2565846  
  5520.000000   2564868   2563921   2562985   2562040   2561069  
  5510.000000   2560065   2559027   2557958   2556849   2555687  
  5500.000000   2554453   2553136   2551734   2550272   2548777  
  5490.000000   2547285   2545808   2544348   2542880   2541383  
  5480.000000   2539830   2538221   2536556   2534851   2533105  
  5470.000000   2531319   2529473   2527557   2525558   2523484  
  5460.000000   2521343   2519150   2516902   2514594   2512207  
  5450.000000   2509738   2507194   2504608   2502025   2499492  
  5440.000000   2497038   2494671   2492382   2490153   2487973  
  5430.000000   2485839   2483764   2481747   2479796   2477892  
  5420.000000   2476035   2474218   2472473   2470831   2469348  
  5410.000000   2468041   2466922   2465945   2465081   2464281  
  5400.000000   2463555   2462918   2462439   2462158   2462124  
  5390.000000   2462322   2462742   2463328   2464071   2464946  
  5380.000000   2465988   2467198   2468608   2470183   2471922  
  5370.000000   2473768   2475731   2477790   2480003   2482377  
  5360.000000   2484985   2487821   2490947   2494349   2498106  
  5350.000000   2502221   2506790   2511806   2517338   2523327  
  5340.000000   2529807   2536707   2544096   2551944   2560362  
  5330.000000   2569324   2578915   2589058   2599799   2611049  
  5320.000000   2622892   2635298   2648425   2662275   2677010  
  5310.000000   2692583   2709090   2726425   2744655   2763690  
  5300.000000   2783636   2804461   2826320   2849211   2873283  
  5290.000000   2898495   2924911   2952390   2980875   3010150  
  5280.000000   3040132   3070673   3101805   3133534   3165994  
  5270.000000   3199221   3233235   3267892   3302968   3338180  
  5260.000000   3373262   3408070   3442542   3476746   3510703  
  5250.000000   3544450   3577823   3610669   3642659   3673641  
  5240.000000   3703402   3732020   3759493   3786059   3811755  
  5230.000000   3836763   3860988   3884462   3906967   3928488  
  5220.000000   3948840   3968107   3986226   4003393   4019610  
  5210.000000   4035074   4049725   4063649   4076676   4088822  
  5200.000000   4099915   4110040   4119133   4127372   4134743  
  5190.000000   4141402   4147281   4152455   4156810   4160413  
  5180.000000   4163188   4165247   4166555   4167221   4167188  
  5170.000000   4166525   4165161   4163180   4160566   4157453  
  5160.000000   4153859   4149907   4145573   4140910   4135852  
  5150.000000   4130435   4124620   4118479   4112016   4105306  
  5140.000000   4098339   4091155   4083717   4076056   4068159  
  5130.000000   4060082   4051847   4043517   4035109   4026659  
  5120.000000   4018159   4009629   4001058   3992465   3983846  
  5110.000000   3975212   3966555   3957878   3949177   3940473  
  5100.000000   3931787   3923154   3914598   3906137   3897761  
  5090.000000   3889454   3881186   3872941   3864709   3856498  
  5080.000000   3848318   3840179   3832077   3824005   3815940  
  5070.000000   3807873   3799792   3791703   3783610   3775521  
  5060.000000   3767430   3759330   3751201   3743035   3734819  
  5050.000000   3726559   3718262   3709940   3701601   3693256  
  5040.000000   3684907   3676563   3668238   3659946   3651708  
  5030.000000   3643537   3635449   3627440   3619519   3611678  
  5020.000000   3603928   3596268   3588720   3581285   3573988  
  5010.000000   3566823   3559815   3552955   3546274   3539769  
  5000.000000   3533479   3527400   3521571   3515979   3510660  
  4990.000000   3505596   3500824   3496327   3492146   3488258  
  4980.000000   3484702   3481449   3478539   3475946   3473726  
  4970.000000   3471864   3470428   3469404   3468851   3468735  
  4960.000000   3469095   3469878   3471114   3472748   3474817  
  4950.000000   3477274   3480161   3483429   3487116   3491169  
  4940.000000   3495620   3500418   3505595   3511101   3516965  
  4930.000000   3523138   3529645   3536443   3543563   3550972  
  4920.000000   3558706   3566733   3575083   3583717   3592654  
  4910.000000   3601855   3611333   3621054   3631024   3641202  
  4900.000000   3651573   3662090   3672731   3683463   3694282  
  4890.000000   3705183   3716168   3727230   3738340   3749456  
  4880.000000   3760512   3771455   3782221   3792783   3803106  
  4870.000000   3813185   3822985   3832497   3841673   3850505  
  4860.000000   3858957   3867054   3874800   3882253   3889432  
  4850.000000   3896401   3903171   3909795   3916274   3922655  
  4840.000000   3928927   3935122   3941208   3947192   3953029  
  4830.000000   3958721   3964243   3969621   3974853   3979972  
  4820.000000   3984967   3989846   3994568   3999119   4003459  
  4810.000000   4007589   4011498   4015214   4018744   4022125  
  4800.000000   4025361   4028485   4031501   4034441   4037309  
  4790.000000   4040136   4042914   4045653   4048330   4050945  
  4780.000000   4053473   4055923   4058278   4060554   4062731  
  4770.000000   4064813   4066769   4068597   4070265   4071782  
  4760.000000   4073124   4074306   4075307   4076134   4076764  
  4750.000000   4077205   4077440   4077491   4077346   4077029  
  4740.000000   4076521   4075830   4074928   4073825   4072509  
  4730.000000   4071012   4069346   4067555   4065650   4063655  
  4720.000000   4061559   4059368   4057069   4054677   4052202  
  4710.000000   4049677   4047122   4044566   4042017   4039489  
  4700.000000   4036981   4034503   4032061   4029665   4027320  
  4690.000000   4025027   4022774   4020547   4018327   4016100  
  4680.000000   4013858   4011594   4009307   4006985   4004621  
  4670.000000   4002197   3999709   3997152   3994549   3991929  
  4660.000000   3989341   3986827   3984437   3982198   3980137  
  4650.000000   3978260   3976575   3975075   3973758   3972609  
  4640.000000   3971620   3970765   3970032   3969394   3968837  
  4630.000000   3968338   3967883   3967449   3967021   3966579  
  4620.000000   3966116   3965621   3965096   3964537   3963945  
  4610.000000   3963310   3962622   3961868   3961043   3960152  
  4600.000000   3959213   3958257   3957314   3956416   3955572  
  4590.000000   3954785   3954033   3953291   3952526   3951718  
  4580.000000   3950847   3949911   3948911   3947862   3946774  
  4570.000000   3945665   3944538   3943399   3942233   3941026  
  4560.000000   3939753   3938396   3936946   3935408   3933804  
  4550.000000   3932158   3930501   3928849   3927213   3925588  
  4540.000000   3923980   3922388   3920842   3919363   3918005  
  4530.000000   3916785   3915748   3914884   3914224   3913744  
  4520.000000   3913493   3913464   3913736   3914310   3915268  
  4510.000000   3916594   3918360   3920537   3923209   3926363  
  4500.000000   3930114   3934460   3939520   3945275   3951816  
  4490.000000   3959098   3967190   3976037   3985704   3996137  
  4480.000000   4007396   4019416   4032236   4045777   4060050  
  4470.000000   4074960   4090487   4106517   4122994   4139789  
  4460.000000   4156829   4173989   4191203   4208376   4225457  
  4450.000000   4242377   4259098   4275582   4291804   4307772  
  4440.000000   4323489   4339009   4354346   4369568   4384665  
  4430.000000   4399686   4414577   4429361   4443946   4458337  
  4420.000000   4472413   4486162   4499432   4512190   4524262  
  4410.000000   4535602   4546035   4555523   4563922   4571232  
  4400.000000   4577367   4582390   4586294   4589207   4591193  
  4390.000000   4592425   4593006   4593119   4592873   4592437  
  4380.000000   4591910   4591434   4591102   4591030   4591300  
  4370.000000   4592003   4593207   4594962   4597308   4600251  
  4360.000000   4603794   4607899   4612533   4617626   4623113  
  4350.000000   4628909   4634939   4641129   4647421   4653781  
  4340.000000   4660178   4666591   4672968   4679222   4685200  
  4330.000000   4690699   4695468   4699277   4701942   4703415  
  4320.000000   4703769   4703254   4702195   4700996   4699990  
  4310.000000   4699457   4699503   4700151   4701273   4702736  
  4300.000000   4704351   4705998   4707559   4708984   4710228  
  4290.000000   4711279   4712125   4712768   4713220   4713518  
  4280.000000   4713698   4713824   4713932   4714080   4714269  
  4270.000000   4714522   4714795   4715059   4715219   4715182  
  4260.000000   4714805   4713962   4712519   4710404   4707592  
  4250.000000   4704154   4700214   4695972   4691624   4687382  
  4240.000000   4683387   4679751   4676493   4673603   4671006  
  4230.000000   4668627   4666365   4664134   4661850   4659442  
  4220.000000   4656865   4654086   4651118   4647980   4644749  
  4210.000000   4641495   4638323   4635309   4632537   4630045  
  4200.000000   4627862   4625970   4624354   4622956   4621744  
  4190.000000   4620650   4619658   4618710   4617826   4616975  
  4180.000000   4616216   4615547   4615056   4614766   4614788  
  4170.000000   4615162   4616017   4617400   4619434   4622139  
  4160.000000   4625596   4629763   4634661   4640192   4646347  
  4150.000000   4653016   4660213   4667857   4676003   4684608  
  4140.000000   4693759   4703431   4713716   4724582   4736094  
  4130.000000   4748189   4760892   4774108   4787838   4801991  
  4120.000000   4816581   4831558   4846973   4862816   4879157  
  4110.000000   4895988   4913356   4931218   4949567   4968315  
  4100.000000   4987413   5006762   5026313   5046003   5065822  
  4090.000000   5085758   5105825   5126027   5146366   5166839  
  4080.000000   5187424   5208118   5228893   5249752   5270646  
  4070.000000   5291557   5312389   5333098   5353565   5373763  
  4060.000000   5393600   5413094   5432169   5450854   5469048  
  4050.000000   5486769   5503904   5520496   5536444   5551815  
  4040.000000   5566488   5580498   5593669   5606009   5617344  
  4030.000000   5627726   5637037   5645371   5652630   5658871  
  4020.000000   5663930   5667847   5670543   5672112   5672498  
  4010.000000   5671914   5670487   5668307   5665152   5661155  
  4000.000000   5656732  
##END= 
