##TITLE= Sample 014 By ssteindl date Dienstag, November 20 2018
##JCAMP-DX= 4.24
##DATA TYPE= INFRARED SPECTRUM
##ORIGIN= Exported PE Spectrum Data File
##OWNER= Sandra Steindl
##DATE= 18/11/20
##TIME= 14:15:54.00
##SPECTROMETER/DATA SYSTEM= PERKIN-ELMER Frontier FT-IR/NIR IR
##INSTRUMENT PARAMETERS=
  APODIZATION=stark
  DETECTOR=INGAAS
##RESOLUTION= 16.000000
##DELTAX= -2.000000
##XUNITS= 1/CM
##YUNITS= A
##XFACTOR= 1.00
##YFACTOR= 0.00000011920928955078
##FIRSTX= 10000.00
##LASTX= 4000.00
##NPOINTS= 3001
##FIRSTY= 0.207576
##MAXY= 0.581164
##MINY= 0.183472
##XYDATA= (X++(Y..Y))
 10000.000000   1741277   1742431   1743572   1744557   1745023  
  9990.000000   1744379   1742105   1738140   1733101   1728138  
  9980.000000   1724378   1722569   1722732   1724344   1726527  
  9970.000000   1728603   1730272   1731736   1733292   1735085  
  9960.000000   1736783   1737698   1737044   1734306   1729540  
  9950.000000   1723303   1716529   1710043   1704313   1699251  
  9940.000000   1694331   1688938   1682705   1675805   1668964  
  9930.000000   1663218   1659595   1658682   1660486   1664327  
  9920.000000   1669125   1673585   1676688   1677824   1677129  
  9910.000000   1675322   1673633   1673360   1675499   1680418  
  9900.000000   1687715   1696386   1705118   1712745   1718544  
  9890.000000   1722425   1724794   1726285   1727397   1728213  
  9880.000000   1728406   1727363   1724577   1719888   1713658  
  9870.000000   1706716   1700054   1694654   1691096   1689666  
  9860.000000   1690217   1692473   1695996   1700370   1705095  
  9850.000000   1709636   1713353   1715638   1716019   1714335  
  9840.000000   1710826   1706051   1700778   1695687   1691255  
  9830.000000   1687587   1684485   1681495   1678118   1673911  
  9820.000000   1668721   1662685   1656300   1650244   1645225  
  9810.000000   1641781   1640131   1640196   1641674   1644278  
  9800.000000   1647881   1652624   1658770   1666491   1675557  
  9790.000000   1685153   1693997   1700564   1703701   1702877  
  9780.000000   1698552   1691846   1684260   1677072   1671007  
  9770.000000   1666186   1662291   1659059   1656464   1654982  
  9760.000000   1655200   1657643   1662217   1668231   1674450  
  9750.000000   1679552   1682614   1683303   1682020   1679436  
  9740.000000   1676294   1672933   1669378   1665419   1660978  
  9730.000000   1656344   1652182   1649412   1648779   1650660  
  9720.000000   1654799   1660525   1666879   1672987   1678169  
  9710.000000   1682011   1684310   1684953   1683959   1681446  
  9700.000000   1677786   1673528   1669369   1665893   1663390  
  9690.000000   1661746   1660485   1659074   1657114   1654656  
  9680.000000   1652093   1650082   1649166   1649572   1651086  
  9670.000000   1653135   1655047   1656238   1656417   1655534  
  9660.000000   1653748   1651275   1648339   1645195   1642135  
  9650.000000   1639561   1637871   1637376   1638120   1639805  
  9640.000000   1641858   1643574   1644377   1643944   1642264  
  9630.000000   1639515   1635938   1631727   1627069   1622243  
  9620.000000   1617730   1614241   1612532   1613177   1616218  
  9610.000000   1621081   1626622   1631477   1634512   1635128  
  9600.000000   1633490   1630270   1626444   1622756   1619603  
  9590.000000   1616888   1614337   1611727   1609159   1607089  
  9580.000000   1606125   1606829   1609392   1613654   1619069  
  9570.000000   1624981   1630743   1635873   1640086   1643205  
  9560.000000   1645154   1645867   1645350   1643704   1641166  
  9550.000000   1638092   1634882   1631887   1629325   1627284  
  9540.000000   1625720   1624547   1623613   1622764   1621773  
  9530.000000   1620409   1618466   1615880   1612845   1609826  
  9520.000000   1607494   1606485   1607151   1609368   1612538  
  9510.000000   1615784   1618288   1619567   1619669   1619060  
  9500.000000   1618446   1618406   1619173   1620501   1621796  
  9490.000000   1622376   1621807   1620122   1617829   1615727  
  9480.000000   1614572   1614845   1616541   1619248   1622227  
  9470.000000   1624690   1626001   1625872   1624423   1622117  
  9460.000000   1619589   1617436   1616037   1615455   1615461  
  9450.000000   1615615   1615451   1614627   1613040   1610885  
  9440.000000   1608526   1606432   1604945   1604256   1604343  
  9430.000000   1605044   1606146   1607406   1608620   1609548  
  9420.000000   1609956   1609569   1608174   1605681   1602241  
  9410.000000   1598266   1594385   1591294   1589559   1589477  
  9400.000000   1590976   1593691   1597045   1600434   1603318  
  9390.000000   1605317   1606221   1605978   1604686   1602562  
  9380.000000   1599941   1597202   1594735   1592814   1591560  
  9370.000000   1590881   1590535   1590217   1589672   1588791  
  9360.000000   1587613   1586304   1585048   1583995   1583206  
  9350.000000   1582701   1582508   1582709   1583433   1584786  
  9340.000000   1586772   1589210   1591761   1593952   1595350  
  9330.000000   1595649   1594816   1593054   1590759   1588380  
  9320.000000   1586306   1584819   1584051   1584061   1584814  
  9310.000000   1586268   1588293   1590716   1593248   1595555  
  9300.000000   1597274   1598100   1597867   1596547   1594312  
  9290.000000   1591413   1588189   1584937   1581896   1579220  
  9280.000000   1576997   1575314   1574257   1573946   1574465  
  9270.000000   1575843   1577975   1580613   1583350   1585699  
  9260.000000   1587229   1587690   1587129   1585866   1584399  
  9250.000000   1583246   1582770   1583070   1583950   1584998  
  9240.000000   1585780   1585969   1585478   1584396   1582908  
  9230.000000   1581147   1579114   1576731   1573930   1570820  
  9220.000000   1567767   1565403   1564451   1565470   1568555  
  9210.000000   1573275   1578720   1583770   1587386   1588921  
  9200.000000   1588311   1586022   1582892   1579790   1577389  
  9190.000000   1575986   1575496   1575536   1575613   1575322  
  9180.000000   1574484   1573170   1571595   1570049   1568749  
  9170.000000   1567816   1567221   1566834   1566515   1566179  
  9160.000000   1565878   1565764   1566014   1566757   1567953  
  9150.000000   1569434   1570894   1572056   1572745   1572967  
  9140.000000   1572892   1572753   1572725   1572776   1572634  
  9130.000000   1571863   1570036   1566932   1562647   1557642  
  9120.000000   1552622   1548352   1545412   1544051   1544129  
  9110.000000   1545181   1546578   1547678   1548025   1547409  
  9100.000000   1545927   1543887   1541744   1539989   1539072  
  9090.000000   1539284   1540710   1543206   1546472   1550104  
  9080.000000   1553672   1556807   1559252   1560872   1561628  
  9070.000000   1561542   1560725   1559321   1557556   1555656  
  9060.000000   1553865   1552345   1551149   1550209   1549376  
  9050.000000   1548539   1547694   1547035   1546881   1547588  
  9040.000000   1549359   1552142   1555579   1559113   1562168  
  9030.000000   1564353   1565585   1566093   1566307   1566651  
  9020.000000   1567379   1568483   1569725   1570740   1571182  
  9010.000000   1570848   1569728   1567966   1565786   1563440  
  9000.000000   1561173   1559212   1557720   1556820   1556516  
  8990.000000   1556723   1557225   1557795   1558257   1558600  
  8980.000000   1558957   1559559   1560587   1562028   1563610  
  8970.000000   1564820   1565118   1564104   1561756   1558423  
  8960.000000   1554770   1551510   1549179   1547965   1547702  
  8950.000000   1548005   1548450   1548789   1548990   1549243  
  8940.000000   1549770   1550732   1552103   1553724   1555372  
  8930.000000   1556837   1557991   1558750   1559073   1558862  
  8920.000000   1558007   1556400   1554083   1551257   1548311  
  8910.000000   1545679   1543722   1542576   1542106   1542000  
  8900.000000   1541919   1541688   1541402   1541404   1542148  
  8890.000000   1543971   1546913   1550639   1554526   1557858  
  8880.000000   1560084   1560999   1560867   1560273   1559945  
  8870.000000   1560455   1562033   1564470   1567194   1569472  
  8860.000000   1570678   1570501   1569057   1566850   1564603  
  8850.000000   1563042   1562643   1563528   1565436   1567879  
  8840.000000   1570307   1572316   1573744   1574698   1575436  
  8830.000000   1576252   1577306   1578593   1579938   1581102  
  8820.000000   1581879   1582184   1582080   1581721   1581281  
  8810.000000   1580866   1580491   1580060   1579442   1578495  
  8800.000000   1577162   1575453   1573478   1571420   1569523  
  8790.000000   1568085   1567379   1567662   1569066   1571598  
  8780.000000   1575080   1579176   1583455   1587448   1590779  
  8770.000000   1593152   1594436   1594587   1593705   1591953  
  8760.000000   1589612   1587039   1584676   1583000   1582411  
  8750.000000   1583174   1585274   1588469   1592250   1596052  
  8740.000000   1599319   1601693   1603043   1603473   1603274  
  8730.000000   1602758   1602216   1601761   1601388   1600931  
  8720.000000   1600190   1598984   1597254   1595127   1592905  
  8710.000000   1591058   1590082   1590412   1592248   1595493  
  8700.000000   1599729   1604313   1608556   1611883   1614012  
  8690.000000   1614975   1615114   1614904   1614827   1615177  
  8680.000000   1616055   1617346   1618846   1620330   1621644  
  8670.000000   1622732   1623603   1624335   1624992   1625672  
  8660.000000   1626457   1627456   1628767   1630459   1632525  
  8650.000000   1634839   1637177   1639252   1640812   1641701  
  8640.000000   1641917   1641583   1640930   1640202   1639618  
  8630.000000   1639313   1639352   1639755   1640527   1641685  
  8620.000000   1643235   1645175   1647453   1649981   1652615  
  8610.000000   1655205   1657606   1659718   1661492   1662936  
  8600.000000   1664100   1665057   1665876   1666604   1667246  
  8590.000000   1667773   1668125   1668241   1668089   1667684  
  8580.000000   1667098   1666445   1665836   1665355   1665020  
  8570.000000   1664812   1664695   1664669   1664801   1665218  
  8560.000000   1666077   1667472   1669389   1671647   1673951  
  8550.000000   1675946   1677356   1678067   1678205   1678087  
  8540.000000   1678136   1678756   1680197   1682497   1685447  
  8530.000000   1688690   1691828   1694528   1696593   1697974  
  8520.000000   1698750   1699044   1698962   1698554   1697838  
  8510.000000   1696842   1695652   1694453   1693520   1693165  
  8500.000000   1693623   1694994   1697159   1699820   1702548  
  8490.000000   1704918   1706638   1707615   1707976   1707994  
  8480.000000   1708007   1708283   1708973   1710062   1711447  
  8470.000000   1712968   1714486   1715910   1717193   1718321  
  8460.000000   1719278   1720061   1720679   1721188   1721686  
  8450.000000   1722305   1723160   1724306   1725694   1727189  
  8440.000000   1728609   1729796   1730659   1731207   1731509  
  8430.000000   1731664   1731741   1731760   1731714   1731599  
  8420.000000   1731459   1731387   1731482   1731811   1732333  
  8410.000000   1732931   1733426   1733688   1733689   1733551  
  8400.000000   1733498   1733748   1734402   1735352   1736305  
  8390.000000   1736866   1736698   1735659   1733887   1731781  
  8380.000000   1729863   1728628   1728365   1729110   1730639  
  8370.000000   1732567   1734467   1735984   1736908   1737168  
  8360.000000   1736810   1735949   1734752   1733402   1732104  
  8350.000000   1731041   1730367   1730160   1730393   1730948  
  8340.000000   1731638   1732294   1732798   1733139   1733383  
  8330.000000   1733634   1733969   1734374   1734751   1734929  
  8320.000000   1734761   1734161   1733171   1731938   1730684  
  8310.000000   1729644   1728980   1728771   1728985   1729530  
  8300.000000   1730272   1731088   1731864   1732512   1732959  
  8290.000000   1733152   1733057   1732670   1732036   1731237  
  8280.000000   1730384   1729582   1728897   1728350   1727902  
  8270.000000   1727497   1727066   1726589   1726082   1725614  
  8260.000000   1725256   1725057   1725007   1725030   1725008  
  8250.000000   1724801   1724298   1723442   1722254   1720826  
  8240.000000   1719302   1717849   1716623   1715752   1715307  
  8230.000000   1715306   1715684   1716317   1717014   1717576  
  8220.000000   1717815   1717615   1716949   1715888   1714586  
  8210.000000   1713209   1711891   1710667   1709486   1708231  
  8200.000000   1706790   1705124   1703296   1701493   1699951  
  8190.000000   1698909   1698487   1698667   1699262   1699984  
  8180.000000   1700518   1700614   1700142   1699108   1697634  
  8170.000000   1695906   1694113   1692410   1690888   1689578  
  8160.000000   1688462   1687486   1686581   1685666   1684661  
  8150.000000   1683498   1682130   1680546   1678777   1676896  
  8140.000000   1675004   1673217   1671649   1670397   1669527  
  8130.000000   1669072   1669010   1669276   1669749   1670266  
  8120.000000   1670642   1670694   1670292   1669371   1667977  
  8110.000000   1666222   1664291   1662362   1660587   1659053  
  8100.000000   1657776   1656730   1655857   1655123   1654510  
  8090.000000   1654048   1653763   1653680   1653779   1653989  
  8080.000000   1654198   1654258   1654036   1653409   1652325  
  8070.000000   1650779   1648847   1646651   1644357   1642151  
  8060.000000   1640208   1638688   1637692   1637274   1637407  
  8050.000000   1638013   1638947   1640032   1641075   1641893  
  8040.000000   1642337   1642306   1641769   1640757   1639372  
  8030.000000   1637754   1636078   1634507   1633186   1632200  
  8020.000000   1631569   1631245   1631114   1631030   1630837  
  8010.000000   1630421   1629732   1628816   1627799   1626872  
  8000.000000   1626227   1626009   1626260   1626896   1627726  
  7990.000000   1628481   1628904   1628797   1628088   1626833  
  7980.000000   1625203   1623431   1621752   1620356   1619348  
  7970.000000   1618762   1618562   1618685   1619045   1619560  
  7960.000000   1620139   1620692   1621125   1621351   1621308  
  7950.000000   1620958   1620313   1619414   1618338   1617173  
  7940.000000   1616017   1614974   1614141   1613608   1613427  
  7930.000000   1613601   1614058   1614647   1615168   1615403  
  7920.000000   1615194   1614473   1613312   1611889   1610459  
  7910.000000   1609270   1608509   1608255   1608480   1609075  
  7900.000000   1609897   1610815   1611728   1612578   1613326  
  7890.000000   1613944   1614405   1614683   1614775   1614698  
  7880.000000   1614507   1614269   1614055   1613916   1613872  
  7870.000000   1613920   1614033   1614194   1614379   1614587  
  7860.000000   1614807   1615034   1615250   1615435   1615569  
  7850.000000   1615632   1615612   1615489   1615241   1614839  
  7840.000000   1614266   1613523   1612648   1611719   1610833  
  7830.000000   1610098   1609582   1609319   1609287   1609436  
  7820.000000   1609696   1610010   1610327   1610604   1610792  
  7810.000000   1610827   1610642   1610177   1609419   1608404  
  7800.000000   1607224   1605998   1604839   1603821   1602974  
  7790.000000   1602292   1601755   1601363   1601130   1601085  
  7780.000000   1601228   1601518   1601858   1602120   1602190  
  7770.000000   1602003   1601586   1601022   1600438   1599926  
  7760.000000   1599519   1599177   1598810   1598339   1597739  
  7750.000000   1597069   1596449   1596018   1595872   1596020  
  7740.000000   1596371   1596768   1597036   1597041   1596726  
  7730.000000   1596119   1595309   1594416   1593551   1592803  
  7720.000000   1592220   1591818   1591581   1591462   1591387  
  7710.000000   1591259   1590974   1590445   1589629   1588542  
  7700.000000   1587264   1585922   1584663   1583624   1582901  
  7690.000000   1582538   1582526   1582803   1583277   1583826  
  7680.000000   1584323   1584646   1584705   1584457   1583926  
  7670.000000   1583196   1582400   1581678   1581152   1580889  
  7660.000000   1580891   1581102   1581435   1581798   1582117  
  7650.000000   1582344   1582451   1582417   1582223   1581853  
  7640.000000   1581307   1580616   1579851   1579119   1578542  
  7630.000000   1578224   1578219   1578511   1579015   1579595  
  7620.000000   1580104   1580412   1580446   1580192   1579706  
  7610.000000   1579081   1578443   1577902   1577549   1577420  
  7600.000000   1577512   1577769   1578117   1578470   1578759  
  7590.000000   1578952   1579059   1579130   1579241   1579468  
  7580.000000   1579863   1580427   1581124   1581871   1582582  
  7570.000000   1583174   1583606   1583881   1584042   1584155  
  7560.000000   1584286   1584478   1584752   1585099   1585499  
  7550.000000   1585929   1586377   1586836   1587308   1587790  
  7540.000000   1588280   1588772   1589274   1589804   1590402  
  7530.000000   1591104   1591941   1592907   1593963   1595044  
  7520.000000   1596085   1597049   1597954   1598863   1599874  
  7510.000000   1601066   1602472   1604043   1605671   1607207  
  7500.000000   1608520   1609534   1610265   1610801   1611282  
  7490.000000   1611843   1612585   1613549   1614719   1616038  
  7480.000000   1617435   1618845   1620226   1621555   1622827  
  7470.000000   1624045   1625225   1626377   1627529   1628693  
  7460.000000   1629889   1631113   1632367   1633644   1634957  
  7450.000000   1636334   1637824   1639484   1641362   1643478  
  7440.000000   1645808   1648284   1650815   1653297   1655646  
  7430.000000   1657797   1659724   1661430   1662943   1664312  
  7420.000000   1665598   1666867   1668188   1669614   1671172  
  7410.000000   1672852   1674610   1676375   1678066   1679623  
  7400.000000   1681013   1682249   1683382   1684492   1685677  
  7390.000000   1687027   1688612   1690466   1692580   1694888  
  7380.000000   1697275   1699598   1701717   1703534   1705025  
  7370.000000   1706250   1707342   1708459   1709744   1711272  
  7360.000000   1713035   1714948   1716890   1718751   1720472  
  7350.000000   1722071   1723614   1725196   1726886   1728709  
  7340.000000   1730631   1732583   1734491   1736303   1738006  
  7330.000000   1739615   1741161   1742667   1744140   1745565  
  7320.000000   1746921   1748193   1749383   1750520   1751648  
  7310.000000   1752826   1754100   1755504   1757037   1758679  
  7300.000000   1760381   1762086   1763731   1765269   1766669  
  7290.000000   1767920   1769026   1769994   1770823   1771502  
  7280.000000   1772016   1772360   1772553   1772656   1772765  
  7270.000000   1772996   1773453   1774203   1775248   1776532  
  7260.000000   1777951   1779387   1780740   1781938   1782969  
  7250.000000   1783846   1784618   1785327   1786023   1786733  
  7240.000000   1787494   1788325   1789267   1790351   1791620  
  7230.000000   1793098   1794803   1796717   1798812   1801030  
  7220.000000   1803315   1805604   1807868   1810091   1812309  
  7210.000000   1814559   1816905   1819375   1821985   1824697  
  7200.000000   1827467   1830233   1832972   1835683   1838417  
  7190.000000   1841228   1844178   1847284   1850536   1853873  
  7180.000000   1857234   1860556   1863816   1867016   1870197  
  7170.000000   1873393   1876655   1880001   1883460   1887028  
  7160.000000   1890710   1894481   1898320   1902177   1906024  
  7150.000000   1909832   1913626   1917455   1921421   1925614  
  7140.000000   1930109   1934903   1939942   1945107   1950293  
  7130.000000   1955406   1960429   1965376   1970319   1975301  
  7120.000000   1980367   1985503   1990696   1995914   2001169  
  7110.000000   2006477   2011889   2017429   2023112   2028913  
  7100.000000   2034808   2040773   2046819   2052974   2059285  
  7090.000000   2065765   2072400   2079116   2085824   2092428  
  7080.000000   2098877   2105153   2111291   2117339   2123352  
  7070.000000   2129368   2135420   2141535   2147749   2154095  
  7060.000000   2160591   2167213   2173884   2180494   2186923  
  7050.000000   2193095   2199007   2204737   2210409   2216153  
  7040.000000   2222042   2228078   2234189   2240280   2246266  
  7030.000000   2252120   2257864   2263561   2269260   2274989  
  7020.000000   2280722   2286420   2292039   2297570   2303022  
  7010.000000   2308422   2313773   2319054   2324202   2329166  
  7000.000000   2333914   2338484   2342954   2347440   2352021  
  6990.000000   2356733   2361517   2366278   2370882   2375242  
  6980.000000   2379306   2383102   2386676   2390106   2393436  
  6970.000000   2396702   2399907   2403066   2406176   2409254  
  6960.000000   2412289   2415273   2418156   2420899   2423456  
  6950.000000   2425825   2428021   2430099   2432103   2434081  
  6940.000000   2436043   2437990   2439898   2441758   2443558  
  6930.000000   2445304   2446987   2448601   2450124   2451548  
  6920.000000   2452866   2454110   2455324   2456569   2457883  
  6910.000000   2459285   2460747   2462227   2463662   2465010  
  6900.000000   2466245   2467368   2468392   2469341   2470232  
  6890.000000   2471085   2471917   2472753   2473615   2474519  
  6880.000000   2475462   2476426   2477375   2478279   2479120  
  6870.000000   2479911   2480687   2481489   2482346   2483257  
  6860.000000   2484185   2485069   2485846   2486466   2486916  
  6850.000000   2487220   2487431   2487619   2487849   2488178  
  6840.000000   2488638   2489239   2489958   2490754   2491565  
  6830.000000   2492337   2493023   2493614   2494125   2494603  
  6820.000000   2495096   2495635   2496215   2496791   2497300  
  6810.000000   2497678   2497889   2497938   2497861   2497722  
  6800.000000   2497570   2497445   2497350   2497287   2497241  
  6790.000000   2497219   2497223   2497264   2497329   2497386  
  6780.000000   2497380   2497256   2496974   2496528   2495950  
  6770.000000   2495302   2494650   2494050   2493530   2493091  
  6760.000000   2492710   2492362   2492022   2491679   2491325  
  6750.000000   2490967   2490607   2490258   2489928   2489635  
  6740.000000   2489389   2489194   2489040   2488899   2488732  
  6730.000000   2488489   2488124   2487603   2486908   2486047  
  6720.000000   2485048   2483967   2482875   2481858   2480990  
  6710.000000   2480325   2479864   2479564   2479327   2479045  
  6700.000000   2478614   2477976   2477132   2476139   2475079  
  6690.000000   2474038   2473063   2472161   2471302   2470442  
  6680.000000   2469542   2468599   2467628   2466665   2465737  
  6670.000000   2464854   2463996   2463125   2462196   2461170  
  6660.000000   2460029   2458774   2457426   2456022   2454607  
  6650.000000   2453234   2451946   2450779   2449737   2448800  
  6640.000000   2447913   2447010   2446025   2444920   2443683  
  6630.000000   2442342   2440934   2439503   2438074   2436657  
  6620.000000   2435243   2433829   2432413   2431004   2429608  
  6610.000000   2428223   2426822   2425372   2423833   2422189  
  6600.000000   2420449   2418656   2416867   2415135   2413490  
  6590.000000   2411934   2410444   2408986   2407532   2406062  
  6580.000000   2404565   2403030   2401443   2399787   2398058  
  6570.000000   2396269   2394467   2392720   2391104   2389672  
  6560.000000   2388444   2387391   2386449   2385542   2384603  
  6550.000000   2383586   2382475   2381270   2379980   2378613  
  6540.000000   2377182   2375707   2374226   2372790   2371453  
  6530.000000   2370258   2369221   2368328   2367542   2366817  
  6520.000000   2366112   2365403   2364677   2363926   2363139  
  6510.000000   2362296   2361381   2360383   2359313   2358196  
  6500.000000   2357072   2355971   2354906   2353872   2352847  
  6490.000000   2351817   2350781   2349762   2348790   2347897  
  6480.000000   2347088   2346339   2345604   2344821   2343942  
  6470.000000   2342939   2341816   2340597   2339325   2338043  
  6460.000000   2336797   2335628   2334572   2333655   2332886  
  6450.000000   2332250   2331711   2331214   2330706   2330149  
  6440.000000   2329529   2328857   2328157   2327449   2326742  
  6430.000000   2326024   2325285   2324517   2323734   2322963  
  6420.000000   2322240   2321582   2320983   2320410   2319820  
  6410.000000   2319182   2318499   2317805   2317162   2316625  
  6400.000000   2316225   2315951   2315759   2315585   2315377  
  6390.000000   2315110   2314786   2314430   2314066   2313711  
  6380.000000   2313362   2313007   2312635   2312245   2311848  
  6370.000000   2311462   2311101   2310768   2310452   2310138  
  6360.000000   2309809   2309459   2309085   2308691   2308271  
  6350.000000   2307813   2307300   2306723   2306084   2305403  
  6340.000000   2304709   2304033   2303388   2302773   2302169  
  6330.000000   2301553   2300904   2300217   2299491   2298736  
  6320.000000   2297949   2297129   2296264   2295358   2294417  
  6310.000000   2293470   2292540   2291647   2290782   2289918  
  6300.000000   2289002   2287989   2286844   2285569   2284186  
  6290.000000   2282739   2281264   2279793   2278330   2276875  
  6280.000000   2275415   2273947   2272462   2270961   2269434  
  6270.000000   2267871   2266260   2264597   2262889   2261160  
  6260.000000   2259436   2257742   2256082   2254446   2252803  
  6250.000000   2251129   2249404   2247632   2245831   2244026  
  6240.000000   2242236   2240469   2238718   2236974   2235231  
  6230.000000   2233494   2231772   2230077   2228409   2226756  
  6220.000000   2225094   2223399   2221654   2219862   2218036  
  6210.000000   2216203   2214381   2212582   2210802   2209030  
  6200.000000   2207254   2205468   2203672   2201874   2200080  
  6190.000000   2198296   2196525   2194774   2193056   2191389  
  6180.000000   2189795   2188288   2186875   2185545   2184276  
  6170.000000   2183045   2181829   2180613   2179393   2178165  
  6160.000000   2176928   2175678   2174407   2173108   2171780  
  6150.000000   2170427   2169056   2167673   2166283   2164885  
  6140.000000   2163478   2162062   2160643   2159235   2157849  
  6130.000000   2156496   2155182   2153905   2152662   2151451  
  6120.000000   2150274   2149133   2148032   2146961   2145913  
  6110.000000   2144867   2143813   2142742   2141666   2140598  
  6100.000000   2139561   2138571   2137646   2136790   2136016  
  6090.000000   2135329   2134744   2134264   2133890   2133600  
  6080.000000   2133369   2133159   2132954   2132744   2132555  
  6070.000000   2132410   2132348   2132375   2132496   2132684  
  6060.000000   2132923   2133193   2133506   2133874   2134331  
  6050.000000   2134884   2135543   2136286   2137100   2137962  
  6040.000000   2138880   2139856   2140911   2142048   2143264  
  6030.000000   2144536   2145851   2147197   2148593   2150060  
  6020.000000   2151632   2153317   2155108   2156960   2158829  
  6010.000000   2160664   2162454   2164202   2165949   2167724  
  6000.000000   2169558   2171442   2173361   2175280   2177187  
  5990.000000   2179079   2180987   2182947   2185001   2187173  
  5980.000000   2189474   2191892   2194416   2197024   2199706  
  5970.000000   2202443   2205222   2208018   2210815   2213592  
  5960.000000   2216350   2219089   2221829   2224576   2227340  
  5950.000000   2230113   2232889   2235656   2238419   2241192  
  5940.000000   2244000   2246863   2249799   2252810   2255886  
  5930.000000   2259017   2262191   2265400   2268637   2271889  
  5920.000000   2275129   2278325   2281442   2284455   2287355  
  5910.000000   2290152   2292866   2295510   2298086   2300584  
  5900.000000   2302985   2305288   2307507   2309691   2311896  
  5890.000000   2314187   2316597   2319129   2321748   2324400  
  5880.000000   2327019   2329555   2331972   2334253   2336393  
  5870.000000   2338393   2340266   2342028   2343718   2345379  
  5860.000000   2347065   2348816   2350655   2352582   2354579  
  5850.000000   2356630   2358726   2360879   2363113   2365451  
  5840.000000   2367899   2370436   2373020   2375603   2378142  
  5830.000000   2380619   2383038   2385419   2387779   2390121  
  5820.000000   2392428   2394670   2396813   2398840   2400744  
  5810.000000   2402544   2404250   2405890   2407463   2408988  
  5800.000000   2410456   2411894   2413297   2414689   2416044  
  5790.000000   2417349   2418540   2419574   2420378   2420912  
  5780.000000   2421125   2420996   2420489   2419595   2418304  
  5770.000000   2416646   2414671   2412480   2410179   2407890  
  5760.000000   2405701   2403679   2401839   2400181   2398681  
  5750.000000   2397327   2396106   2395015   2394048   2393191  
  5740.000000   2392425   2391724   2391078   2390477   2389935  
  5730.000000   2389454   2389044   2388694   2388394   2388122  
  5720.000000   2387877   2387656   2387473   2387334   2387239  
  5710.000000   2387167   2387092   2386984   2386835   2386654  
  5700.000000   2386477   2386345   2386292   2386337   2386473  
  5690.000000   2386681   2386934   2387216   2387509   2387807  
  5680.000000   2388085   2388319   2388463   2388482   2388338  
  5670.000000   2388017   2387514   2386842   2386002   2385000  
  5660.000000   2383827   2382494   2381017   2379446   2377838  
  5650.000000   2376266   2374775   2373395   2372118   2370920  
  5640.000000   2369765   2368628   2367495   2366366   2365246  
  5630.000000   2364136   2363036   2361942   2360861   2359808  
  5620.000000   2358807   2357881   2357039   2356274   2355558  
  5610.000000   2354857   2354143   2353404   2352649   2351900  
  5600.000000   2351182   2350508   2349872   2349257   2348636  
  5590.000000   2347986   2347292   2346552   2345766   2344938  
  5580.000000   2344070   2343165   2342227   2341267   2340296  
  5570.000000   2339324   2338352   2337376   2336380   2335357  
  5560.000000   2334303   2333226   2332141   2331061   2329988  
  5550.000000   2328913   2327819   2326689   2325519   2324321  
  5540.000000   2323125   2321961   2320852   2319804   2318805  
  5530.000000   2317832   2316865   2315894   2314920   2313952  
  5520.000000   2312997   2312056   2311118   2310168   2309194  
  5510.000000   2308192   2307164   2306119   2305064   2304001  
  5500.000000   2302928   2301842   2300745   2299645   2298549  
  5490.000000   2297461   2296368   2295248   2294068   2292808  
  5480.000000   2291454   2290024   2288540   2287040   2285544  
  5470.000000   2284065   2282593   2281115   2279616   2278091  
  5460.000000   2276537   2274955   2273336   2271667   2269931  
  5450.000000   2268123   2266254   2264355   2262472   2260642  
  5440.000000   2258888   2257205   2255573   2253962   2252358  
  5430.000000   2250756   2249173   2247617   2246101   2244614  
  5420.000000   2243153   2241711   2240314   2238996   2237815  
  5410.000000   2236803   2235980   2235312   2234765   2234282  
  5400.000000   2233850   2233462   2233160   2232971   2232936  
  5390.000000   2233045   2233292   2233638   2234080   2234609  
  5380.000000   2235268   2236077   2237076   2238245   2239578  
  5370.000000   2241014   2242539   2244115   2245772   2247509  
  5360.000000   2249386   2251403   2253618   2256025   2258695  
  5350.000000   2261639   2264948   2268633   2272761   2277291  
  5340.000000   2282244   2287545   2293220   2299221   2305615  
  5330.000000   2312377   2319579   2327178   2335224   2343660  
  5320.000000   2352556   2361885   2371762   2382180   2393262  
  5310.000000   2404972   2417391   2430446   2444201   2458595  
  5300.000000   2473718   2489544   2506193   2523649   2542021  
  5290.000000   2561259   2581411   2602362   2624079   2646404  
  5280.000000   2669294   2692642   2716491   2740842   2765814  
  5270.000000   2791430   2817720   2844573   2871832   2899269  
  5260.000000   2926691   2953973   2981079   3008062   3034971  
  5250.000000   3061852   3088618   3115154   3141219   3166661  
  5240.000000   3191293   3215128   3238146   3260507   3282245  
  5230.000000   3303492   3324185   3344334   3363766   3382446  
  5220.000000   3400223   3417154   3433200   3448518   3463126  
  5210.000000   3477174   3490616   3503498   3515673   3527135  
  5200.000000   3537745   3547571   3556573   3564903   3572565  
  5190.000000   3579686   3586214   3592206   3597565   3602333  
  5180.000000   3606441   3609971   3612887   3615274   3617083  
  5170.000000   3618371   3619085   3619294   3618983   3618256  
  5160.000000   3617117   3615656   3613841   3611711   3609207  
  5150.000000   3606361   3603140   3599603   3595746   3591624  
  5140.000000   3587216   3582552   3577601   3572397   3566941  
  5130.000000   3561303   3555510   3549631   3543678   3537680  
  5120.000000   3531620   3525503   3519311   3513058   3506736  
  5110.000000   3500363   3493934   3487464   3480955   3474432  
  5100.000000   3467921   3461459   3455075   3448791   3442604  
  5090.000000   3436504   3430467   3424477   3418519   3412598  
  5080.000000   3406714   3400874   3395069   3389287   3383502  
  5070.000000   3377698   3371857   3365977   3360057   3354105  
  5060.000000   3348118   3342095   3336021   3329891   3323692  
  5050.000000   3317427   3311092   3304696   3298235   3291712  
  5040.000000   3285121   3278466   3271747   3264979   3258178  
  5030.000000   3251370   3244578   3237822   3231124   3224492  
  5020.000000   3217939   3211467   3205084   3198787   3192590  
  5010.000000   3186489   3180502   3174631   3168896   3163294  
  5000.000000   3157844   3152533   3147380   3142367   3137519  
  4990.000000   3132828   3128330   3124019   3119933   3116057  
  4980.000000   3112419   3108993   3105808   3102842   3100141  
  4970.000000   3097700   3095575   3093763   3092311   3091194  
  4960.000000   3090445   3090026   3089971   3090250   3090907  
  4950.000000   3091916   3093312   3095050   3097141   3099519  
  4940.000000   3102192   3105106   3108299   3111750   3115525  
  4930.000000   3119615   3124077   3128885   3134065   3139566  
  4920.000000   3145396   3151507   3157909   3164569   3171510  
  4910.000000   3178706   3186179   3193900   3201875   3210060  
  4900.000000   3218440   3226966   3235612   3244343   3253144  
  4890.000000   3262001   3270908   3279859   3288829   3297794  
  4880.000000   3306697   3315493   3324109   3332505   3340618  
  4870.000000   3348431   3355900   3363034   3369807   3376241  
  4860.000000   3382320   3388072   3393479   3398570   3403323  
  4850.000000   3407771   3411901   3415761   3419359   3422759  
  4840.000000   3425979   3429078   3432063   3434971   3437796  
  4830.000000   3440559   3443252   3445896   3448485   3451036  
  4820.000000   3453538   3455997   3458403   3460757   3463057  
  4810.000000   3465309   3467516   3469684   3471811   3473902  
  4800.000000   3475959   3477997   3480034   3482100   3484213  
  4790.000000   3486388   3488612   3490861   3493090   3495265  
  4780.000000   3497349   3499337   3501230   3503054   3504821  
  4770.000000   3506550   3508229   3509851   3511384   3512816  
  4760.000000   3514124   3515312   3516369   3517307   3518115  
  4750.000000   3518797   3519339   3519750   3520022   3520176  
  4740.000000   3520216   3520167   3520030   3519818   3519520  
  4730.000000   3519141   3518669   3518112   3517471   3516761  
  4720.000000   3515988   3515167   3514301   3513395   3512454  
  4710.000000   3511483   3510498   3509517   3508569   3507682  
  4700.000000   3506883   3506193   3505627   3505191   3504884  
  4690.000000   3504702   3504640   3504686   3504831   3505052  
  4680.000000   3505330   3505624   3505906   3506131   3506279  
  4670.000000   3506325   3506277   3506141   3505955   3505747  
  4660.000000   3505562   3505431   3505396   3505482   3505722  
  4650.000000   3506135   3506741   3507545   3508550   3509742  
  4640.000000   3511107   3512617   3514251   3515979   3517780  
  4630.000000   3519623   3521486   3523334   3525143   3526883  
  4620.000000   3528534   3530077   3531503   3532807   3533980  
  4610.000000   3535022   3535929   3536710   3537371   3537943  
  4600.000000   3538446   3538918   3539375   3539840   3540302  
  4590.000000   3540754   3541163   3541511   3541766   3541918  
  4580.000000   3541953   3541878   3541693   3541420   3541065  
  4570.000000   3540653   3540190   3539691   3539151   3538568  
  4560.000000   3537924   3537208   3536405   3535517   3534547  
  4550.000000   3533514   3532434   3531324   3530193   3529042  
  4540.000000   3527873   3526684   3525491   3524305   3523158  
  4530.000000   3522071   3521075   3520177   3519401   3518737  
  4520.000000   3518213   3517819   3517597   3517541   3517699  
  4510.000000   3518059   3518674   3519528   3520691   3522161  
  4500.000000   3524032   3526313   3529107   3532411   3536315  
  4490.000000   3540799   3545938   3551707   3558182   3565334  
  4480.000000   3573229   3581823   3591151   3601137   3611782  
  4470.000000   3622990   3634743   3646942   3659568   3672530  
  4460.000000   3685805   3699306   3712999   3726798   3740660  
  4450.000000   3754509   3768311   3782026   3795647   3809180  
  4440.000000   3822636   3836039   3849382   3862677   3875877  
  4430.000000   3888975   3901898   3914641   3927131   3939375  
  4420.000000   3951297   3962903   3974096   3984863   3995087  
  4410.000000   4004737   4013692   4021927   4029343   4035951  
  4400.000000   4041705   4046671   4050862   4054394   4057325  
  4390.000000   4059789   4061857   4063656   4065250   4066743  
  4380.000000   4068186   4069665   4071225   4072942   4074864  
  4370.000000   4077058   4079571   4082447   4085708   4089358  
  4360.000000   4093378   4097726   4102346   4107176   4112139  
  4350.000000   4117178   4122216   4127228   4132163   4137040  
  4340.000000   4141844   4146607   4151282   4155807   4159993  
  4330.000000   4163600   4166290   4167754   4167725   4166114  
  4320.000000   4163002   4158700   4153638   4148347   4143289  
  4310.000000   4138849   4135213   4132445   4130449   4129093  
  4300.000000   4128198   4127631   4127277   4127066   4126945  
  4290.000000   4126874   4126835   4126808   4126809   4126848  
  4280.000000   4126958   4127157   4127451   4127839   4128292  
  4270.000000   4128801   4129328   4129850   4130293   4130569  
  4260.000000   4130524   4129994   4128796   4126801   4123952  
  4250.000000   4120303   4116000   4111278   4106386   4101579  
  4240.000000   4097040   4092901   4089197   4085926   4083026  
  4230.000000   4080431   4078054   4075814   4073634   4071440  
  4220.000000   4069188   4066835   4064394   4061880   4059363  
  4210.000000   4056894   4054557   4052395   4050462   4048762  
  4200.000000   4047312   4046086   4045077   4044242   4043567  
  4190.000000   4043000   4042531   4042117   4041775   4041485  
  4180.000000   4041300   4041227   4041337   4041644   4042223  
  4170.000000   4043085   4044311   4045915   4047981   4050520  
  4160.000000   4053601   4057199   4061345   4065972   4071085  
  4150.000000   4076603   4082541   4088841   4095548   4102633  
  4140.000000   4110158   4118096   4126502   4135327   4144598  
  4130.000000   4154245   4164281   4174638   4185343   4196362  
  4120.000000   4207753   4219514   4231719   4244368   4257515  
  4110.000000   4271135   4285239   4299771   4314711   4329984  
  4100.000000   4345553   4361343   4377321   4393431   4409657  
  4090.000000   4425970   4442362   4458820   4475333   4491898  
  4080.000000   4508501   4525156   4541855   4558617   4575409  
  4070.000000   4592219   4608952   4625553   4641889   4657906  
  4060.000000   4673489   4688629   4703246   4717367   4730927  
  4050.000000   4743974   4756453   4768442   4779898   4790906  
  4040.000000   4801394   4811406   4820815   4829628   4837710  
  4030.000000   4845093   4851676   4857519   4862541   4866782  
  4020.000000   4870130   4872635   4874264   4875114   4875158  
  4010.000000   4874560   4873406   4871737   4869359   4866348  
  4000.000000   4863014  
##END= 
