##TITLE= Sample 010 By ssteindl date Montag, November 19 2018
##JCAMP-DX= 4.24
##DATA TYPE= INFRARED SPECTRUM
##ORIGIN= Exported PE Spectrum Data File
##OWNER= Sandra Steindl
##DATE= 18/11/19
##TIME= 17:31:21.00
##SPECTROMETER/DATA SYSTEM= PERKIN-ELMER Frontier FT-IR/NIR IR
##INSTRUMENT PARAMETERS=
  APODIZATION=stark
  DETECTOR=INGAAS
##RESOLUTION= 16.000000
##DELTAX= -2.000000
##XUNITS= 1/CM
##YUNITS= A
##XFACTOR= 1.00
##YFACTOR= 0.00000011920928955078
##FIRSTX= 10000.00
##LASTX= 4000.00
##NPOINTS= 3001
##FIRSTY= 0.188708
##MAXY= 0.515239
##MINY= 0.169705
##XYDATA= (X++(Y..Y))
 10000.000000   1582996   1591959   1600428   1607580   1612736  
  9990.000000   1615517   1615716   1613388   1609007   1603381  
  9980.000000   1597333   1591540   1586346   1581945   1578337  
  9970.000000   1575750   1574495   1575149   1578080   1583421  
  9960.000000   1590724   1599117   1607422   1614452   1619301  
  9950.000000   1621409   1620685   1617310   1611750   1604596  
  9940.000000   1596603   1588635   1581606   1576329   1573314  
  9930.000000   1572605   1573758   1575948   1578223   1579781  
  9920.000000   1580131   1579188   1577155   1574462   1571647  
  9910.000000   1569359   1568345   1569376   1573058   1579563  
  9900.000000   1588369   1598203   1607231   1613531   1615674  
  9890.000000   1613194   1606765   1597963   1588726   1580708  
  9880.000000   1574811   1571073   1568888   1567459   1566151  
  9870.000000   1564726   1563208   1561737   1560289   1558667  
  9860.000000   1556601   1553950   1550920   1547988   1545832  
  9850.000000   1544935   1545464   1547109   1549304   1551457  
  9840.000000   1553253   1554758   1556321   1558319   1560896  
  9830.000000   1563841   1566705   1569013   1570546   1571395  
  9820.000000   1571914   1572434   1573097   1573719   1573917  
  9810.000000   1573322   1571793   1569582   1567208   1565326  
  9800.000000   1564398   1564603   1565756   1567518   1569534  
  9790.000000   1571596   1573615   1575500   1577037   1577819  
  9780.000000   1577383   1575402   1571915   1567419   1562762  
  9770.000000   1558906   1556558   1556000   1556980   1558946  
  9760.000000   1561232   1563357   1565064   1566298   1567046  
  9750.000000   1567176   1566453   1564566   1561391   1557057  
  9740.000000   1552072   1547131   1542942   1539982   1538383  
  9730.000000   1537992   1538491   1539610   1541220   1543323  
  9720.000000   1545966   1549045   1552279   1555175   1557224  
  9710.000000   1558043   1557580   1556156   1554401   1553099  
  9700.000000   1552926   1554321   1557322   1561646   1566706  
  9690.000000   1571791   1576139   1579067   1580051   1578806  
  9680.000000   1575378   1570146   1563805   1557202   1551178  
  9670.000000   1546371   1543093   1541326   1540767   1541012  
  9660.000000   1541676   1542539   1543528   1544705   1546093  
  9650.000000   1547640   1549112   1550217   1550697   1550492  
  9640.000000   1549845   1549236   1549272   1550370   1552579  
  9630.000000   1555385   1557830   1558724   1557094   1552504  
  9620.000000   1545326   1536666   1528100   1521237   1517234  
  9610.000000   1516548   1518805   1523088   1528224   1533220  
  9600.000000   1537467   1540824   1543471   1545674   1547582  
  9590.000000   1549082   1549913   1549736   1548448   1546160  
  9580.000000   1543333   1540527   1538276   1536911   1536425  
  9570.000000   1536624   1537099   1537564   1537815   1537960  
  9560.000000   1538243   1539052   1540667   1543154   1546232  
  9550.000000   1549264   1551409   1551770   1549727   1545040  
  9540.000000   1538050   1529524   1520564   1512299   1505648  
  9530.000000   1501145   1498836   1498412   1499325   1501066  
  9520.000000   1503256   1505743   1508518   1511595   1514920  
  9510.000000   1518264   1521295   1523590   1524827   1524819  
  9500.000000   1523662   1521673   1519383   1517385   1516202  
  9490.000000   1516136   1517159   1518907   1520746   1521963  
  9480.000000   1521952   1520434   1517513   1513725   1509825  
  9470.000000   1506654   1504835   1504680   1506080   1508619  
  9460.000000   1511679   1514620   1516873   1518032   1517860  
  9450.000000   1516288   1513421   1509480   1504863   1500008  
  9440.000000   1495435   1491521   1488512   1486373   1484881  
  9430.000000   1483713   1482591   1481454   1480464   1480023  
  9420.000000   1480599   1482596   1486166   1491138   1497046  
  9410.000000   1503209   1508937   1513599   1516810   1518384  
  9400.000000   1518423   1517194   1515121   1512652   1510188  
  9390.000000   1508037   1506356   1505244   1504683   1504690  
  9380.000000   1505228   1506323   1507929   1509959   1512161  
  9370.000000   1514141   1515425   1515553   1514281   1511596  
  9360.000000   1507827   1503489   1499234   1495635   1493080  
  9350.000000   1491725   1491473   1492146   1493485   1495328  
  9340.000000   1497530   1500045   1502819   1505789   1508800  
  9330.000000   1511562   1513695   1514740   1514355   1512320  
  9320.000000   1508715   1503860   1498334   1492842   1488057  
  9310.000000   1484497   1482357   1481579   1481827   1482722  
  9300.000000   1483895   1485165   1486499   1487957   1489564  
  9290.000000   1491181   1492547   1493255   1492976   1491479  
  9280.000000   1488837   1485371   1481658   1478349   1475999  
  9270.000000   1474973   1475337   1476958   1479492   1482543  
  9260.000000   1485694   1488611   1491054   1492884   1494038  
  9250.000000   1494462   1494123   1492958   1490975   1488238  
  9240.000000   1484989   1481590   1478518   1476243   1475073  
  9230.000000   1475082   1476008   1477424   1478815   1479838  
  9220.000000   1480377   1480641   1481021   1481909   1483464  
  9210.000000   1485502   1487550   1488981   1489286   1488205  
  9200.000000   1485874   1482705   1479268   1476061   1473366  
  9190.000000   1471214   1469457   1467935   1466596   1465556  
  9180.000000   1465040   1465262   1466302   1468041   1470168  
  9170.000000   1472292   1474070   1475302   1475993   1476299  
  9160.000000   1476485   1476801   1477413   1478352   1479521  
  9150.000000   1480742   1481817   1482559   1482845   1482618  
  9140.000000   1481925   1480872   1479584   1478165   1476652  
  9130.000000   1475064   1473403   1471755   1470289   1469325  
  9120.000000   1469218   1470272   1472522   1475700   1479209  
  9110.000000   1482254   1484055   1484062   1482200   1478827  
  9100.000000   1474685   1470587   1467226   1464940   1463674  
  9090.000000   1463093   1462764   1462400   1461959   1461699  
  9080.000000   1462001   1463229   1465483   1468552   1471921  
  9070.000000   1474919   1476949   1477635   1476993   1475323  
  9060.000000   1473142   1470956   1469115   1467735   1466697  
  9050.000000   1465782   1464805   1463731   1462693   1461941  
  9040.000000   1461695   1462040   1462802   1463628   1464077  
  9030.000000   1463813   1462771   1461202   1459659   1458738  
  9020.000000   1458894   1460206   1462346   1464630   1466253  
  9010.000000   1466581   1465412   1463058   1460253   1457920  
  9000.000000   1456873   1457546   1459839   1463178   1466724  
  8990.000000   1469645   1471376   1471755   1471013   1469667  
  8980.000000   1468283   1467330   1467029   1467370   1468184  
  8970.000000   1469232   1470299   1471231   1471909   1472237  
  8960.000000   1472054   1471224   1469631   1467310   1464466  
  8950.000000   1461474   1458824   1456925   1456003   1455961  
  8940.000000   1456417   1456804   1456548   1455276   1452960  
  8930.000000   1449962   1446944   1444667   1443773   1444582  
  8920.000000   1447021   1450619   1454658   1458334   1460995  
  8910.000000   1462281   1462209   1461126   1459582   1458179  
  8900.000000   1457403   1457508   1458479   1460057   1461863  
  8890.000000   1463490   1464620   1465076   1464818   1463936  
  8880.000000   1462564   1460873   1459031   1457236   1455706  
  8870.000000   1454670   1454312   1454729   1455860   1457494  
  8860.000000   1459279   1460821   1461783   1461974   1461407  
  8850.000000   1460234   1458716   1457082   1455536   1454163  
  8840.000000   1453013   1452089   1451423   1451054   1451011  
  8830.000000   1451313   1451931   1452851   1454064   1455646  
  8820.000000   1457716   1460395   1463699   1467449   1471267  
  8810.000000   1474618   1476977   1477953   1477464   1475734  
  8800.000000   1473263   1470636   1468361   1466731   1465780  
  8790.000000   1465361   1465243   1465268   1465381   1465664  
  8780.000000   1466224   1467138   1468355   1469717   1471002  
  8770.000000   1472007   1472647   1472960   1473107   1473276  
  8760.000000   1473623   1474205   1474980   1475840   1476661  
  8750.000000   1477354   1477886   1478263   1478513   1478645  
  8740.000000   1478655   1478513   1478201   1477720   1477128  
  8730.000000   1476523   1476037   1475805   1475928   1476471  
  8720.000000   1477431   1478765   1480375   1482154   1483988  
  8710.000000   1485789   1487489   1489033   1490373   1491443  
  8700.000000   1492170   1492469   1492295   1491647   1490618  
  8690.000000   1489366   1488107   1487051   1486356   1486095  
  8680.000000   1486233   1486673   1487291   1487997   1488752  
  8670.000000   1489581   1490539   1491684   1493034   1494553  
  8660.000000   1496173   1497796   1499346   1500753   1501989  
  8650.000000   1503030   1503861   1504465   1504821   1504940  
  8640.000000   1504856   1504668   1504498   1504498   1504791  
  8630.000000   1505445   1506447   1507670   1508916   1509918  
  8620.000000   1510432   1510259   1509333   1507729   1505697  
  8610.000000   1503616   1501939   1501103   1501442   1503107  
  8600.000000   1506014   1509863   1514191   1518473   1522215  
  8590.000000   1525066   1526885   1527760   1527981   1527937  
  8580.000000   1528018   1528517   1529551   1531044   1532734  
  8570.000000   1534293   1535413   1535928   1535833   1535285  
  8560.000000   1534526   1533765   1533102   1532470   1531695  
  8550.000000   1530562   1528943   1526904   1524743   1522947  
  8540.000000   1522044   1522470   1524394   1527673   1531818  
  8530.000000   1536163   1540024   1542881   1544511   1545000  
  8520.000000   1544735   1544188   1543807   1543798   1544128  
  8510.000000   1544505   1544537   1543875   1542392   1540277  
  8500.000000   1537998   1536217   1535539   1536380   1538767  
  8490.000000   1542357   1546503   1550460   1553616   1555629  
  8480.000000   1556518   1556569   1556223   1555870   1555741  
  8470.000000   1555847   1556056   1556192   1556156   1556004  
  8460.000000   1555923   1556163   1556884   1558109   1559660  
  8450.000000   1561236   1562491   1563146   1563097   1562411  
  8440.000000   1561325   1560137   1559141   1558546   1558443  
  8430.000000   1558820   1559568   1560564   1561681   1562853  
  8420.000000   1564056   1565323   1566693   1568181   1569732  
  8410.000000   1571193   1572337   1572910   1572727   1571736  
  8400.000000   1570073   1568057   1566106   1564635   1563895  
  8390.000000   1563937   1564588   1565545   1566478   1567136  
  8380.000000   1567422   1567371   1567097   1566691   1566174  
  8370.000000   1565498   1564616   1563543   1562418   1561495  
  8360.000000   1561075   1561418   1562618   1564565   1566958  
  8350.000000   1569392   1571491   1572961   1573664   1573572  
  8340.000000   1572770   1571381   1569573   1567543   1565542  
  8330.000000   1563879   1562872   1562781   1563697   1565526  
  8320.000000   1567957   1570573   1572926   1574681   1575687  
  8310.000000   1575977   1575742   1575193   1574529   1573838  
  8300.000000   1573148   1572431   1571683   1570968   1570415  
  8290.000000   1570210   1570500   1571391   1572854   1574774  
  8280.000000   1576911   1578988   1580715   1581872   1582335  
  8270.000000   1582107   1581314   1580164   1578895   1577704  
  8260.000000   1576689   1575840   1575045   1574175   1573111  
  8250.000000   1571841   1570430   1569037   1567816   1566878  
  8240.000000   1566230   1565776   1565366   1564833   1564075  
  8230.000000   1563053   1561823   1560487   1559172   1557993  
  8220.000000   1557036   1556361   1556000   1555964   1556229  
  8210.000000   1556737   1557379   1558024   1558529   1558783  
  8200.000000   1558726   1558351   1557707   1556858   1555867  
  8190.000000   1554762   1553538   1552173   1550648   1548998  
  8180.000000   1547297   1545681   1544294   1543274   1542692  
  8170.000000   1542533   1542665   1542860   1542830   1542313  
  8160.000000   1541152   1539357   1537127   1534798   1532760  
  8150.000000   1531333   1530671   1530690   1531102   1531490  
  8140.000000   1531451   1530715   1529230   1527159   1524825  
  8130.000000   1522609   1520848   1519753   1519394   1519690  
  8120.000000   1520468   1521483   1522472   1523190   1523446  
  8110.000000   1523142   1522300   1521066   1519683   1518433  
  8100.000000   1517558   1517193   1517324   1517802   1518388  
  8090.000000   1518844   1518991   1518758   1518161   1517277  
  8080.000000   1516188   1514953   1513606   1512164   1510659  
  8070.000000   1509147   1507699   1506399   1505297   1504421  
  8060.000000   1503753   1503272   1502936   1502720   1502580  
  8050.000000   1502458   1502272   1501915   1501298   1500355  
  8040.000000   1499092   1497555   1495842   1494039   1492222  
  8030.000000   1490434   1488716   1487124   1485759   1484752  
  8020.000000   1484224   1484236   1484740   1485582   1486530  
  8010.000000   1487357   1487912   1488167   1488224   1488249  
  8000.000000   1488403   1488756   1489267   1489779   1490091  
  7990.000000   1490021   1489474   1488462   1487097   1485546  
  7980.000000   1483978   1482524   1481250   1480170   1479250  
  7970.000000   1478446   1477720   1477066   1476507   1476099  
  7960.000000   1475909   1475993   1476360   1476957   1477664  
  7950.000000   1478312   1478737   1478813   1478512   1477896  
  7940.000000   1477113   1476332   1475697   1475272   1475034  
  7930.000000   1474885   1474702   1474380   1473869   1473193  
  7920.000000   1472426   1471679   1471055   1470640   1470478  
  7910.000000   1470572   1470880   1471328   1471815   1472241  
  7900.000000   1472522   1472615   1472533   1472325   1472068  
  7890.000000   1471813   1471573   1471293   1470883   1470244  
  7880.000000   1469326   1468165   1466890   1465700   1464807  
  7870.000000   1464375   1464463   1465010   1465849   1466759  
  7860.000000   1467528   1468005   1468139   1467976   1467636  
  7850.000000   1467258   1466963   1466809   1466790   1466835  
  7840.000000   1466855   1466755   1466480   1466017   1465392  
  7830.000000   1464665   1463894   1463145   1462473   1461936  
  7820.000000   1461587   1461480   1461635   1462035   1462593  
  7810.000000   1463174   1463608   1463740   1463481   1462828  
  7800.000000   1461875   1460758   1459621   1458553   1457570  
  7790.000000   1456635   1455688   1454712   1453751   1452916  
  7780.000000   1452332   1452099   1452217   1452599   1453067  
  7770.000000   1453429   1453529   1453295   1452752   1451986  
  7760.000000   1451110   1450209   1449325   1448453   1447571  
  7750.000000   1446656   1445718   1444784   1443899   1443100  
  7740.000000   1442403   1441811   1441311   1440898   1440578  
  7730.000000   1440366   1440285   1440338   1440517   1440779  
  7720.000000   1441064   1441300   1441419   1441373   1441148  
  7710.000000   1440770   1440304   1439837   1439455   1439216  
  7700.000000   1439125   1439124   1439110   1438956   1438566  
  7690.000000   1437902   1437004   1435988   1435002   1434198  
  7680.000000   1433674   1433474   1433571   1433903   1434379  
  7670.000000   1434904   1435381   1435714   1435813   1435610  
  7660.000000   1435078   1434247   1433210   1432100   1431058  
  7650.000000   1430189   1429538   1429088   1428776   1428534  
  7640.000000   1428309   1428082   1427857   1427635   1427401  
  7630.000000   1427113   1426728   1426217   1425605   1424958  
  7620.000000   1424384   1423976   1423793   1423833   1424045  
  7610.000000   1424347   1424669   1424965   1425219   1425430  
  7600.000000   1425594   1425691   1425701   1425612   1425444  
  7590.000000   1425250   1425100   1425050   1425115   1425256  
  7580.000000   1425399   1425458   1425385   1425181   1424897  
  7570.000000   1424599   1424342   1424140   1423977   1423822  
  7560.000000   1423677   1423589   1423652   1423965   1424596  
  7550.000000   1425539   1426702   1427931   1429065   1429976  
  7540.000000   1430616   1431002   1431214   1431334   1431443  
  7530.000000   1431584   1431788   1432071   1432459   1432980  
  7520.000000   1433656   1434487   1435441   1436461   1437483  
  7510.000000   1438454   1439353   1440189   1440993   1441796  
  7500.000000   1442622   1443475   1444348   1445223   1446090  
  7490.000000   1446936   1447756   1448534   1449261   1449923  
  7480.000000   1450522   1451072   1451602   1452146   1452732  
  7470.000000   1453375   1454084   1454862   1455728   1456710  
  7460.000000   1457852   1459180   1460699   1462364   1464097  
  7450.000000   1465799   1467395   1468849   1470185   1471468  
  7440.000000   1472792   1474229   1475812   1477520   1479294  
  7430.000000   1481060   1482750   1484328   1485795   1487181  
  7420.000000   1488527   1489876   1491250   1492651   1494059  
  7410.000000   1495436   1496744   1497947   1499029   1499994  
  7400.000000   1500875   1501719   1502576   1503488   1504477  
  7390.000000   1505543   1506670   1507839   1509037   1510258  
  7380.000000   1511505   1512774   1514056   1515332   1516586  
  7370.000000   1517818   1519050   1520329   1521704   1523213  
  7360.000000   1524861   1526611   1528394   1530127   1531746  
  7350.000000   1533209   1534511   1535668   1536704   1537643  
  7340.000000   1538501   1539299   1540074   1540888   1541809  
  7330.000000   1542905   1544210   1545715   1547354   1549026  
  7320.000000   1550614   1552021   1553175   1554048   1554654  
  7310.000000   1555042   1555289   1555494   1555758   1556178  
  7300.000000   1556810   1557665   1558686   1559775   1560805  
  7290.000000   1561674   1562323   1562771   1563088   1563379  
  7280.000000   1563729   1564181   1564729   1565324   1565910  
  7270.000000   1566449   1566935   1567392   1567852   1568333  
  7260.000000   1568826   1569295   1569704   1570024   1570266  
  7250.000000   1570461   1570663   1570914   1571246   1571665  
  7240.000000   1572179   1572802   1573577   1574559   1575809  
  7230.000000   1577349   1579159   1581148   1583201   1585181  
  7220.000000   1586997   1588591   1589993   1591260   1592507  
  7210.000000   1593827   1595314   1597005   1598915   1601007  
  7200.000000   1603239   1605554   1607918   1610314   1612762  
  7190.000000   1615284   1617923   1620685   1623564   1626501  
  7180.000000   1629431   1632274   1634997   1637604   1640165  
  7170.000000   1642771   1645538   1648535   1651794   1655268  
  7160.000000   1658877   1662502   1666051   1669457   1672715  
  7150.000000   1675853   1678948   1682082   1685353   1688831  
  7140.000000   1692578   1696603   1700901   1705417   1710098  
  7130.000000   1714859   1719639   1724372   1729034   1733610  
  7120.000000   1738137   1742652   1747232   1751931   1756812  
  7110.000000   1761891   1767174   1772624   1778205   1783866  
  7100.000000   1789584   1795339   1801141   1806989   1812882  
  7090.000000   1818789   1824674   1830487   1836209   1841836  
  7080.000000   1847420   1853016   1858692   1864476   1870364  
  7070.000000   1876309   1882256   1888163   1894032   1899904  
  7060.000000   1905849   1911927   1918165   1924535   1930965  
  7050.000000   1937362   1943644   1949765   1955729   1961578  
  7040.000000   1967373   1973169   1978995   1984861   1990750  
  7030.000000   1996645   2002522   2008369   2014173   2019933  
  7020.000000   2025639   2031288   2036863   2042351   2047717  
  7010.000000   2052936   2057977   2062842   2067549   2072167  
  7000.000000   2076763   2081414   2086139   2090917   2095653  
  6990.000000   2100243   2104575   2108612   2112368   2115938  
  6980.000000   2119423   2122921   2126461   2130027   2133550  
  6970.000000   2136978   2140269   2143441   2146517   2149544  
  6960.000000   2152517   2155424   2158212   2160862   2163367  
  6950.000000   2165772   2168121   2170448   2172727   2174890  
  6940.000000   2176830   2178471   2179786   2180839   2181738  
  6930.000000   2182622   2183586   2184675   2185858   2187084  
  6920.000000   2188295   2189484   2190671   2191911   2193227  
  6910.000000   2194610   2195993   2197289   2198409   2199312  
  6900.000000   2200000   2200528   2200966   2201380   2201812  
  6890.000000   2202282   2202789   2203331   2203896   2204476  
  6880.000000   2205046   2205582   2206055   2206465   2206834  
  6870.000000   2207218   2207675   2208249   2208934   2209677  
  6860.000000   2210393   2210998   2211444   2211739   2211932  
  6850.000000   2212097   2212288   2212525   2212788   2213041  
  6840.000000   2213256   2213436   2213606   2213799   2214020  
  6830.000000   2214245   2214419   2214490   2214434   2214285  
  6820.000000   2214118   2214022   2214056   2214221   2214452  
  6810.000000   2214650   2214717   2214603   2214314   2213906  
  6800.000000   2213449   2213002   2212582   2212184   2211784  
  6790.000000   2211377   2210975   2210609   2210299   2210042  
  6780.000000   2209796   2209501   2209094   2208546   2207862  
  6770.000000   2207088   2206277   2205475   2204698   2203943  
  6760.000000   2203190   2202428   2201653   2200875   2200093  
  6750.000000   2199302   2198475   2197592   2196649   2195675  
  6740.000000   2194722   2193852   2193100   2192461   2191875  
  6730.000000   2191253   2190509   2189595   2188514   2187320  
  6720.000000   2186088   2184883   2183732   2182627   2181529  
  6710.000000   2180408   2179245   2178053   2176858   2175687  
  6700.000000   2174547   2173426   2172290   2171107   2169849  
  6690.000000   2168508   2167087   2165597   2164049   2162459  
  6680.000000   2160845   2159243   2157690   2156226   2154873  
  6670.000000   2153631   2152464   2151319   2150133   2148859  
  6660.000000   2147470   2145966   2144361   2142680   2140945  
  6650.000000   2139184   2137423   2135699   2134048   2132498  
  6640.000000   2131050   2129676   2128320   2126914   2125400  
  6630.000000   2123757   2121999   2120176   2118348   2116566  
  6620.000000   2114851   2113191   2111555   2109908   2108226  
  6610.000000   2106509   2104772   2103045   2101348   2099699  
  6600.000000   2098099   2096542   2095012   2093489   2091947  
  6590.000000   2090350   2088664   2086858   2084922   2082869  
  6580.000000   2080743   2078606   2076529   2074577   2072789  
  6570.000000   2071177   2069725   2068394   2067134   2065895  
  6560.000000   2064633   2063320   2061948   2060522   2059068  
  6550.000000   2057613   2056185   2054794   2053441   2052108  
  6540.000000   2050780   2049450   2048132   2046856   2045666  
  6530.000000   2044595   2043658   2042841   2042104   2041394  
  6520.000000   2040658   2039856   2038970   2037997   2036954  
  6510.000000   2035866   2034766   2033693   2032683   2031763  
  6500.000000   2030938   2030185   2029452   2028672   2027781  
  6490.000000   2026747   2025582   2024341   2023106   2021952  
  6480.000000   2020920   2020004   2019156   2018308   2017403  
  6470.000000   2016420   2015379   2014330   2013328   2012411  
  6460.000000   2011585   2010829   2010104   2009372   2008610  
  6450.000000   2007809   2006971   2006101   2005201   2004272  
  6440.000000   2003319   2002358   2001413   2000507   1999658  
  6430.000000   1998867   1998115   1997375   1996617   1995830  
  6420.000000   1995018   1994201   1993410   1992663   1991970  
  6410.000000   1991322   1990702   1990091   1989475   1988846  
  6400.000000   1988203   1987546   1986878   1986200   1985514  
  6390.000000   1984825   1984141   1983465   1982797   1982130  
  6380.000000   1981454   1980761   1980050   1979332   1978622  
  6370.000000   1977936   1977282   1976658   1976046   1975427  
  6360.000000   1974784   1974106   1973395   1972656   1971897  
  6350.000000   1971118   1970318   1969494   1968646   1967786  
  6340.000000   1966930   1966100   1965311   1964576   1963896  
  6330.000000   1963265   1962668   1962085   1961487   1960840  
  6320.000000   1960104   1959246   1958244   1957105   1955857  
  6310.000000   1954553   1953242   1951969   1950744   1949559  
  6300.000000   1948380   1947181   1945944   1944680   1943402  
  6290.000000   1942130   1940857   1939559   1938188   1936705  
  6280.000000   1935081   1933331   1931494   1929632   1927796  
  6270.000000   1926020   1924296   1922594   1920864   1919069  
  6260.000000   1917183   1915211   1913165   1911070   1908944  
  6250.000000   1906801   1904648   1902492   1900344   1898218  
  6240.000000   1896122   1894061   1892027   1890006   1887977  
  6230.000000   1885925   1883841   1881729   1879598   1877463  
  6220.000000   1875342   1873250   1871202   1869204   1867260  
  6210.000000   1865361   1863494   1861639   1859778   1857897  
  6200.000000   1855995   1854082   1852176   1850293   1848440  
  6190.000000   1846615   1844803   1842988   1841159   1839314  
  6180.000000   1837464   1835626   1833817   1832047   1830314  
  6170.000000   1828605   1826904   1825191   1823457   1821698  
  6160.000000   1819924   1818148   1816390   1814667   1812994  
  6150.000000   1811377   1809817   1808303   1806822   1805358  
  6140.000000   1803901   1802444   1800990   1799547   1798125  
  6130.000000   1796731   1795374   1794053   1792775   1791537  
  6120.000000   1790344   1789190   1788070   1786972   1785884  
  6110.000000   1784795   1783708   1782628   1781577   1780572  
  6100.000000   1779629   1778751   1777936   1777171   1776452  
  6090.000000   1775771   1775136   1774543   1773993   1773468  
  6080.000000   1772954   1772427   1771885   1771335   1770811  
  6070.000000   1770345   1769974   1769707   1769541   1769446  
  6060.000000   1769397   1769366   1769352   1769360   1769417  
  6050.000000   1769537   1769739   1770020   1770385   1770827  
  6040.000000   1771357   1771974   1772690   1773494   1774372  
  6030.000000   1775293   1776236   1777179   1778125   1779081  
  6020.000000   1780070   1781101   1782183   1783304   1784457  
  6010.000000   1785628   1786818   1788028   1789264   1790518  
  6000.000000   1791776   1793010   1794197   1795318   1796378  
  5990.000000   1797392   1798390   1799395   1800423   1801477  
  5980.000000   1802557   1803659   1804795   1805979   1807229  
  5970.000000   1808549   1809932   1811352   1812785   1814212  
  5960.000000   1815638   1817081   1818573   1820136   1821778  
  5950.000000   1823474   1825191   1826884   1828531   1830121  
  5940.000000   1831677   1833227   1834808   1836442   1838145  
  5930.000000   1839919   1841764   1843674   1845643   1847654  
  5920.000000   1849682   1851692   1853648   1855523   1857312  
  5910.000000   1859029   1860704   1862363   1864024   1865685  
  5900.000000   1867332   1868950   1870536   1872104   1873688  
  5890.000000   1875324   1877037   1878833   1880690   1882574  
  5880.000000   1884449   1886290   1888092   1889863   1891622  
  5870.000000   1893378   1895138   1896891   1898631   1900349  
  5860.000000   1902050   1903743   1905444   1907165   1908923  
  5850.000000   1910722   1912574   1914488   1916472   1918533  
  5840.000000   1920672   1922883   1925157   1927482   1929852  
  5830.000000   1932264   1934710   1937177   1939635   1942047  
  5820.000000   1944364   1946550   1948582   1950466   1952219  
  5810.000000   1953879   1955463   1956994   1958461   1959863  
  5800.000000   1961178   1962419   1963578   1964681   1965717  
  5790.000000   1966692   1967566   1968315   1968883   1969242  
  5780.000000   1969346   1969179   1968710   1967935   1966848  
  5770.000000   1965476   1963862   1962081   1960218   1958366  
  5760.000000   1956593   1954953   1953462   1952125   1950934  
  5750.000000   1949887   1948985   1948235   1947638   1947180  
  5740.000000   1946843   1946585   1946380   1946193   1946018  
  5730.000000   1945844   1945688   1945554   1945462   1945419  
  5720.000000   1945440   1945529   1945697   1945934   1946234  
  5710.000000   1946575   1946942   1947320   1947711   1948123  
  5700.000000   1948578   1949091   1949668   1950305   1950984  
  5690.000000   1951685   1952394   1953107   1953823   1954548  
  5680.000000   1955273   1955982   1956641   1957218   1957681  
  5670.000000   1958012   1958203   1958262   1958192   1958005  
  5660.000000   1957702   1957295   1956793   1956220   1955598  
  5650.000000   1954955   1954304   1953655   1953003   1952347  
  5640.000000   1951682   1951019   1950367   1949742   1949151  
  5630.000000   1948599   1948080   1947590   1947127   1946693  
  5620.000000   1946291   1945916   1945557   1945193   1944801  
  5610.000000   1944365   1943882   1943368   1942847   1942342  
  5600.000000   1941866   1941417   1940977   1940528   1940053  
  5590.000000   1939553   1939028   1938487   1937925   1937328  
  5580.000000   1936670   1935928   1935088   1934157   1933155  
  5570.000000   1932113   1931057   1930005   1928957   1927912  
  5560.000000   1926864   1925813   1924766   1923733   1922719  
  5550.000000   1921724   1920740   1919759   1918778   1917798  
  5540.000000   1916830   1915881   1914957   1914055   1913170  
  5530.000000   1912299   1911444   1910615   1909821   1909070  
  5520.000000   1908355   1907659   1906963   1906252   1905523  
  5510.000000   1904785   1904050   1903327   1902603   1901855  
  5500.000000   1901047   1900156   1899174   1898126   1897050  
  5490.000000   1895991   1894970   1893986   1893004   1891984  
  5480.000000   1890886   1889696   1888418   1887085   1885725  
  5470.000000   1884365   1883009   1881654   1880282   1878880  
  5460.000000   1877433   1875936   1874378   1872753   1871054  
  5450.000000   1869287   1867469   1865631   1863810   1862037  
  5440.000000   1860326   1858671   1857059   1855472   1853911  
  5430.000000   1852383   1850910   1849499   1848149   1846832  
  5420.000000   1845524   1844198   1842866   1841560   1840344  
  5410.000000   1839267   1838371   1837642   1837050   1836538  
  5400.000000   1836078   1835646   1835271   1834978   1834814  
  5390.000000   1834791   1834921   1835178   1835560   1836048  
  5380.000000   1836660   1837396   1838279   1839289   1840423  
  5370.000000   1841639   1842934   1844279   1845704   1847206  
  5360.000000   1848831   1850577   1852489   1854562   1856857  
  5350.000000   1859384   1862226   1865398   1868969   1872918  
  5340.000000   1877277   1881995   1887104   1892559   1898412  
  5330.000000   1904623   1911241   1918208   1925563   1933248  
  5320.000000   1941331   1949793   1958747   1968196   1978258  
  5310.000000   1988906   2000225   2012148   2024741   2037941  
  5300.000000   2051831   2066377   2081686   2097742   2114650  
  5290.000000   2132375   2150977   2170359   2190504   2211266  
  5280.000000   2232608   2254424   2276756   2299603   2323076  
  5270.000000   2347201   2372007   2397389   2423199   2449221  
  5260.000000   2475268   2501209   2526994   2552644   2578169  
  5250.000000   2603574   2628744   2653554   2677776   2701293  
  5240.000000   2723958   2745818   2766871   2787275   2807049  
  5230.000000   2826308   2844975   2863065   2880421   2897036  
  5220.000000   2912784   2927733   2941839   2955245   2967944  
  5210.000000   2980072   2991573   3002503   3012726   3022247  
  5200.000000   3030931   3038834   3045902   3052267   3057921  
  5190.000000   3062993   3067441   3071336   3074595   3077270  
  5180.000000   3079290   3080732   3081552   3081831   3081521  
  5170.000000   3080683   3079269   3077354   3074928   3072098  
  5160.000000   3068880   3065375   3061576   3057537   3053218  
  5150.000000   3048654   3043814   3038750   3033451   3027971  
  5140.000000   3022292   3016444   3010397   3004173   2997758  
  5130.000000   2991190   2984472   2977649   2970723   2963724  
  5120.000000   2956649   2949523   2942349   2935158   2927953  
  5110.000000   2920752   2913548   2906338   2899108   2891861  
  5100.000000   2884600   2877347   2870121   2862942   2855815  
  5090.000000   2848738   2841698   2834683   2827685   2820704  
  5080.000000   2813742   2806807   2799898   2793011   2786137  
  5070.000000   2779267   2772396   2765525   2758659   2751803  
  5060.000000   2744962   2738139   2731330   2724537   2717759  
  5050.000000   2711000   2704264   2697550   2690856   2684171  
  5040.000000   2677488   2670798   2664110   2657435   2650804  
  5030.000000   2644240   2637776   2631423   2625196   2619089  
  5020.000000   2613108   2607243   2601505   2595889   2590412  
  5010.000000   2585064   2579858   2574775   2569830   2565008  
  5000.000000   2560339   2555819   2551491   2547350   2543431  
  4990.000000   2539715   2536228   2532942   2529887   2527044  
  4980.000000   2524453   2522107   2520053   2518284   2516849  
  4970.000000   2515735   2514987   2514580   2514545   2514837  
  4960.000000   2515467   2516379   2517584   2519035   2520766  
  4950.000000   2522755   2525055   2527651   2530587   2533831  
  4940.000000   2537404   2541263   2545422   2549843   2554548  
  4930.000000   2559507   2564744   2570226   2575970   2581937  
  4920.000000   2588136   2594529   2601123   2607884   2614817  
  4910.000000   2621892   2629117   2636473   2643974   2651608  
  4900.000000   2659389   2667306   2675362   2683540   2691827  
  4890.000000   2700199   2708634   2717101   2725565   2733990  
  4880.000000   2742336   2750574   2758672   2766621   2774410  
  4870.000000   2782049   2789533   2796875   2804067   2811118  
  4860.000000   2818015   2824770   2831368   2837819   2844101  
  4850.000000   2850218   2856141   2861874   2867398   2872739  
  4840.000000   2877901   2882926   2887827   2892642   2897368  
  4830.000000   2902021   2906576   2911035   2915361   2919552  
  4820.000000   2923577   2927440   2931122   2934639   2937985  
  4810.000000   2941185   2944236   2947160   2949946   2952604  
  4800.000000   2955121   2957511   2959774   2961942   2964030  
  4790.000000   2966073   2968075   2970049   2971970   2973827  
  4780.000000   2975583   2977233   2978754   2980164   2981457  
  4770.000000   2982659   2983763   2984780   2985689   2986492  
  4760.000000   2987159   2987695   2988077   2988319   2988405  
  4750.000000   2988353   2988146   2987794   2987271   2986576  
  4740.000000   2985678   2984577   2983255   2981731   2980013  
  4730.000000   2978142   2976139   2974045   2971868   2969625  
  4720.000000   2967300   2964893   2962389   2959798   2957127  
  4710.000000   2954407   2951662   2948922   2946203   2943517  
  4700.000000   2940861   2938234   2935626   2933039   2930470  
  4690.000000   2927928   2925417   2922944   2920513   2918125  
  4680.000000   2915776   2913455   2911149   2908831   2906484  
  4670.000000   2904082   2901622   2899103   2896553   2893999  
  4660.000000   2891490   2889059   2886746   2884567   2882541  
  4650.000000   2880666   2878951   2877393   2876000   2874767  
  4640.000000   2873696   2872774   2871996   2871343   2870811  
  4630.000000   2870380   2870045   2869779   2869569   2869378  
  4620.000000   2869188   2868972   2868728   2868451   2868159  
  4610.000000   2867858   2867564   2867274   2866991   2866712  
  4600.000000   2866441   2866188   2865973   2865813   2865722  
  4590.000000   2865703   2865748   2865840   2865959   2866085  
  4580.000000   2866198   2866285   2866329   2866321   2866249  
  4570.000000   2866111   2865911   2865662   2865380   2865080  
  4560.000000   2864766   2864435   2864066   2863643   2863145  
  4550.000000   2862565   2861906   2861178   2860396   2859569  
  4540.000000   2858710   2857823   2856929   2856044   2855214  
  4530.000000   2854465   2853848   2853375   2853074   2852929  
  4520.000000   2852954   2853126   2853478   2854006   2854771  
  4510.000000   2855778   2857103   2858740   2860761   2863155  
  4500.000000   2865997   2869278   2873082   2877399   2882309  
  4490.000000   2887789   2893906   2900618   2907974   2915919  
  4480.000000   2924491   2933632   2943372   2953656   2964507  
  4470.000000   2975865   2987734   3000034   3012738   3025747  
  4460.000000   3039015   3052445   3065990   3079572   3093154  
  4450.000000   3106679   3120113   3133424   3146592   3159618  
  4440.000000   3172500   3185268   3197917   3210473   3222897  
  4430.000000   3235196   3247297   3259201   3270828   3282190  
  4420.000000   3293205   3303883   3314116   3323890   3333072  
  4410.000000   3341633   3349439   3356480   3362654   3367988  
  4400.000000   3372419   3376003   3378715   3380639   3381787  
  4390.000000   3382273   3382151   3381552   3380553   3379278  
  4380.000000   3377800   3376223   3374623   3373103   3371760  
  4370.000000   3370707   3370057   3369904   3370338   3371395  
  4360.000000   3373111   3375462   3378431   3381951   3385968  
  4350.000000   3390395   3395159   3400186   3405426   3410854  
  4340.000000   3416468   3422271   3428240   3434291   3440254  
  4330.000000   3445872   3450823   3454786   3457501   3458857  
  4320.000000   3458906   3457900   3456196   3454233   3452384  
  4310.000000   3450964   3450099   3449835   3450060   3450664  
  4300.000000   3451476   3452397   3453321   3454204   3455000  
  4290.000000   3455686   3456239   3456644   3456901   3457019  
  4280.000000   3457023   3456948   3456823   3456695   3456586  
  4270.000000   3456549   3456595   3456750   3456974   3457206  
  4260.000000   3457308   3457121   3456454   3455158   3453139  
  4250.000000   3450406   3447063   3443308   3439370   3435495  
  4240.000000   3431866   3428613   3425765   3423302   3421139  
  4230.000000   3419190   3417360   3415578   3413792   3411965  
  4220.000000   3410083   3408134   3406136   3404103   3402087  
  4210.000000   3400125   3398284   3396596   3395102   3393801  
  4200.000000   3392697   3391757   3390969   3390292   3389718  
  4190.000000   3389212   3388779   3388385   3388053   3387757  
  4180.000000   3387538   3387388   3387373   3387507   3387883  
  4170.000000   3388536   3389582   3391067   3393110   3395738  
  4160.000000   3399036   3402978   3407596   3412811   3418621  
  4150.000000   3424930   3431739   3438962   3446621   3454651  
  4140.000000   3463099   3471924   3481197   3490899   3501107  
  4130.000000   3511799   3523023   3534723   3546904   3559482  
  4120.000000   3572448   3585730   3599344   3613261   3627527  
  4110.000000   3642132   3657119   3672464   3688169   3704174  
  4100.000000   3720446   3736912   3753539   3770278   3787129  
  4090.000000   3804089   3821182   3838424   3855832   3873406  
  4080.000000   3891132   3908991   3926942   3944963   3963000  
  4070.000000   3981034   3999000   4016886   4034624   4052217  
  4060.000000   4069599   4086778   4103672   4120280   4136496  
  4050.000000   4152324   4167663   4182547   4196890   4210741  
  4040.000000   4223989   4236651   4248572   4259760   4270070  
  4030.000000   4279555   4288116   4295831   4302605   4308473  
  4020.000000   4313286   4317075   4319776   4321480   4322139  
  4010.000000   4321939   4320980   4319334   4316803   4313515  
  4000.000000   4309846  
##END= 
