##TITLE= Sample 009 By ssteindl date Montag, November 19 2018
##JCAMP-DX= 4.24
##DATA TYPE= INFRARED SPECTRUM
##ORIGIN= Exported PE Spectrum Data File
##OWNER= Sandra Steindl
##DATE= 18/11/19
##TIME= 17:30:14.00
##SPECTROMETER/DATA SYSTEM= PERKIN-ELMER Frontier FT-IR/NIR IR
##INSTRUMENT PARAMETERS=
  APODIZATION=stark
  DETECTOR=INGAAS
##RESOLUTION= 16.000000
##DELTAX= -2.000000
##XUNITS= 1/CM
##YUNITS= A
##XFACTOR= 1.00
##YFACTOR= 0.00000011920928955078
##FIRSTX= 10000.00
##LASTX= 4000.00
##NPOINTS= 3001
##FIRSTY= 0.199174
##MAXY= 0.601700
##MINY= 0.175536
##XYDATA= (X++(Y..Y))
 10000.000000   1670792   1678283   1685631   1692317   1697370  
  9990.000000   1699760   1698747   1694232   1686796   1677788  
  9980.000000   1668954   1662080   1658204   1657492   1659102  
  9970.000000   1661766   1664180   1665577   1665818   1665284  
  9960.000000   1664480   1663671   1662705   1661079   1658291  
  9950.000000   1654170   1649133   1644108   1640214   1638350  
  9940.000000   1638837   1641372   1645158   1649229   1652723  
  9930.000000   1655048   1655890   1655109   1652648   1648524  
  9920.000000   1642944   1636438   1629936   1624610   1621540  
  9910.000000   1621296   1623611   1627391   1631018   1632935  
  9900.000000   1632197   1628812   1623664   1618117   1613449  
  9890.000000   1610387   1608962   1608599   1608595   1608394  
  9880.000000   1607962   1607619   1607820   1608753   1610062  
  9870.000000   1610977   1610604   1608499   1605020   1601335  
  9860.000000   1599093   1599714   1603852   1610968   1619498  
  9850.000000   1627255   1632206   1633069   1629750   1623289  
  9840.000000   1615476   1608292   1603331   1601550   1603143  
  9830.000000   1607753   1614571   1622580   1630575   1637376  
  9820.000000   1641918   1643524   1642070   1638045   1632499  
  9810.000000   1626670   1621683   1618080   1615755   1614016  
  9800.000000   1612024   1609248   1605765   1602319   1599936  
  9790.000000   1599526   1601365   1605008   1609420   1613422  
  9780.000000   1616192   1617517   1617867   1618045   1618833  
  9770.000000   1620589   1623133   1625854   1628022   1629126  
  9760.000000   1629071   1628203   1627062   1626178   1625763  
  9750.000000   1625776   1625923   1625932   1625628   1625013  
  9740.000000   1624149   1623077   1621667   1619686   1616833  
  9730.000000   1612953   1608138   1602786   1597553   1593120  
  9720.000000   1590017   1588379   1587895   1587893   1587541  
  9710.000000   1586161   1583473   1579733   1575716   1572489  
  9700.000000   1571099   1572186   1575729   1580945   1586507  
  9690.000000   1590906   1592996   1592316   1589284   1584967  
  9680.000000   1580722   1577680   1576398   1576712   1577919  
  9670.000000   1579105   1579566   1579049   1577789   1576352  
  9660.000000   1575305   1574999   1575431   1576305   1577271  
  9650.000000   1578036   1578581   1579001   1579467   1580002  
  9640.000000   1580477   1580679   1580465   1579971   1579611  
  9630.000000   1580040   1581859   1585434   1590645   1596947  
  9620.000000   1603457   1609238   1613537   1615921   1616325  
  9610.000000   1614936   1612063   1608053   1603203   1597859  
  9600.000000   1592369   1587206   1582838   1579738   1578166  
  9590.000000   1578148   1579336   1581088   1582529   1582750  
  9580.000000   1581049   1577082   1571057   1563641   1555886  
  9570.000000   1548923   1543729   1540887   1540480   1542136  
  9560.000000   1545178   1548861   1552567   1555902   1558687  
  9550.000000   1560811   1562171   1562565   1561835   1559893  
  9540.000000   1556930   1553365   1549827   1546970   1545291  
  9530.000000   1545019   1546037   1548008   1550456   1552945  
  9520.000000   1555122   1556730   1557580   1557506   1556419  
  9510.000000   1554347   1551522   1548375   1545472   1543389  
  9500.000000   1542529   1543048   1544764   1547294   1550107  
  9490.000000   1552737   1554821   1556146   1556607   1556119  
  9480.000000   1554659   1552195   1548850   1544828   1540498  
  9470.000000   1536261   1532483   1529427   1527205   1525900  
  9460.000000   1525569   1526372   1528455   1531906   1536567  
  9450.000000   1541972   1547360   1551816   1554539   1555045  
  9440.000000   1553374   1550040   1545913   1541917   1538774  
  9430.000000   1536849   1536097   1536209   1536723   1537236  
  9420.000000   1537439   1537184   1536394   1535041   1533105  
  9410.000000   1530582   1527556   1524174   1520718   1517491  
  9400.000000   1514809   1512892   1511821   1511562   1511955  
  9390.000000   1512855   1514123   1515727   1517651   1519876  
  9380.000000   1522307   1524726   1526845   1528270   1528675  
  9370.000000   1527777   1525519   1522021   1517611   1512743  
  9360.000000   1507916   1503640   1500351   1498431   1498116  
  9350.000000   1499490   1502374   1506346   1510730   1514731  
  9340.000000   1517592   1518772   1518143   1516004   1513065  
  9330.000000   1510174   1508098   1507244   1507602   1508793  
  9320.000000   1510261   1511489   1512156   1512227   1511871  
  9310.000000   1511357   1510874   1510468   1510069   1509551  
  9300.000000   1508899   1508182   1507623   1507409   1507652  
  9290.000000   1508301   1509165   1510036   1510725   1511250  
  9280.000000   1511774   1512677   1514330   1517015   1520726  
  9270.000000   1525178   1529833   1533978   1536864   1537791  
  9260.000000   1536332   1532379   1526267   1518658   1510454  
  9250.000000   1502607   1495942   1491035   1488099   1487060  
  9240.000000   1487607   1489382   1492015   1495226   1498754  
  9230.000000   1502343   1505714   1508554   1510655   1511897  
  9220.000000   1512424   1512487   1512463   1512605   1513018  
  9210.000000   1513623   1514228   1514681   1514893   1514999  
  9200.000000   1515214   1515829   1516963   1518573   1520386  
  9190.000000   1522029   1523106   1523300   1522429   1520432  
  9180.000000   1517367   1513364   1508642   1503534   1498510  
  9170.000000   1494114   1490852   1489051   1488744   1489641  
  9160.000000   1491195   1492779   1493894   1494322   1494177  
  9150.000000   1493787   1493574   1493851   1494778   1496287  
  9140.000000   1498178   1500186   1502090   1503750   1505088  
  9130.000000   1506082   1506731   1507070   1507167   1507116  
  9120.000000   1507005   1506852   1506571   1505979   1504837  
  9110.000000   1502983   1500395   1497333   1494246   1491708  
  9100.000000   1490171   1489874   1490714   1492305   1494049  
  9090.000000   1495343   1495751   1495055   1493305   1490698  
  9080.000000   1487589   1484316   1481204   1478460   1476229  
  9070.000000   1474566   1473463   1472877   1472742   1473060  
  9060.000000   1473901   1475412   1477712   1480816   1484541  
  9050.000000   1488468   1492022   1494590   1495755   1495391  
  9040.000000   1493750   1491367   1488914   1486984   1485900  
  9030.000000   1485675   1486028   1486573   1486927   1486877  
  9020.000000   1486374   1485535   1484518   1483446   1482351  
  9010.000000   1481185   1479901   1478464   1476946   1475447  
  9000.000000   1474149   1473181   1472631   1472500   1472749  
  8990.000000   1473318   1474166   1475283   1476705   1478496  
  8980.000000   1480719   1483397   1486488   1489872   1493351  
  8970.000000   1496679   1499588   1501852   1503331   1504018  
  8960.000000   1504015   1503523   1502751   1501880   1500988  
  8950.000000   1500081   1499081   1497918   1496521   1494903  
  8940.000000   1493109   1491261   1489467   1487841   1486444  
  8930.000000   1485298   1484388   1483667   1483067   1482485  
  8920.000000   1481808   1480933   1479826   1478538   1477235  
  8910.000000   1476140   1475505   1475508   1476200   1477441  
  8900.000000   1478946   1480348   1481340   1481744   1481589  
  8890.000000   1481073   1480527   1480263   1480501   1481266  
  8880.000000   1482428   1483720   1484875   1485681   1486093  
  8870.000000   1486198   1486207   1486364   1486865   1487817  
  8860.000000   1489187   1490878   1492747   1494701   1496699  
  8850.000000   1498781   1501008   1503411   1505904   1508272  
  8840.000000   1510194   1511297   1511282   1510005   1507594  
  8830.000000   1504405   1500983   1497901   1495630   1494426  
  8820.000000   1494267   1494916   1496004   1497212   1498368  
  8810.000000   1499516   1500851   1502618   1504982   1507905  
  8800.000000   1511145   1514286   1516923   1518744   1519692  
  8790.000000   1519921   1519776   1519644   1519846   1520545  
  8780.000000   1521730   1523254   1524917   1526536   1527986  
  8770.000000   1529214   1530209   1531007   1531659   1532261  
  8760.000000   1532936   1533828   1535065   1536701   1538691  
  8750.000000   1540869   1543001   1544849   1546262   1547232  
  8740.000000   1547893   1548478   1549214   1550262   1551641  
  8730.000000   1553280   1555032   1556780   1558440   1559996  
  8720.000000   1561442   1562767   1563902   1564735   1565137  
  8710.000000   1565016   1564365   1563257   1561844   1560301  
  8700.000000   1558800   1557484   1556458   1555807   1555598  
  8690.000000   1555875   1556631   1557799   1559249   1560814  
  8680.000000   1562334   1563702   1564899   1565992   1567114  
  8670.000000   1568394   1569928   1571725   1573719   1575775  
  8660.000000   1577742   1579470   1580854   1581830   1582400  
  8650.000000   1582617   1582609   1582528   1582537   1582752  
  8640.000000   1583229   1583938   1584793   1585704   1586630  
  8630.000000   1587626   1588814   1590364   1592397   1594941  
  8620.000000   1597881   1600999   1604049   1606815   1609182  
  8610.000000   1611119   1612666   1613852   1614673   1615079  
  8600.000000   1615040   1614595   1613899   1613213   1612833  
  8590.000000   1613004   1613813   1615176   1616856   1618572  
  8580.000000   1620104   1621356   1622377   1623291   1624231  
  8570.000000   1625255   1626335   1627389   1628365   1629301  
  8560.000000   1630364   1631783   1633766   1636379   1639482  
  8550.000000   1642745   1645732   1648050   1649476   1650038  
  8540.000000   1650008   1649815   1649900   1650579   1651935  
  8530.000000   1653822   1655925   1657877   1659377   1660275  
  8520.000000   1660617   1660601   1660487   1660517   1660830  
  8510.000000   1661447   1662286   1663234   1664222   1665264  
  8500.000000   1666453   1667917   1669733   1671879   1674192  
  8490.000000   1676424   1678315   1679690   1680528   1680964  
  8480.000000   1681236   1681587   1682162   1682964   1683875  
  8470.000000   1684704   1685296   1685575   1685583   1685426  
  8460.000000   1685217   1685034   1684905   1684848   1684913  
  8450.000000   1685231   1686009   1687453   1689667   1692569  
  8440.000000   1695860   1699094   1701795   1703622   1704495  
  8430.000000   1704610   1704373   1704235   1704540   1705392  
  8420.000000   1706626   1707901   1708837   1709181   1708879  
  8410.000000   1708125   1707243   1706607   1706465   1706900  
  8400.000000   1707786   1708870   1709847   1710468   1710611  
  8390.000000   1710294   1709648   1708864   1708119   1707542  
  8380.000000   1707169   1706957   1706820   1706669   1706461  
  8370.000000   1706210   1705977   1705848   1705876   1706060  
  8360.000000   1706319   1706525   1706547   1706310   1705828  
  8350.000000   1705202   1704585   1704119   1703874   1703814  
  8340.000000   1703813   1703703   1703353   1702718   1701861  
  8330.000000   1700929   1700089   1699477   1699139   1699049  
  8320.000000   1699122   1699284   1699492   1699754   1700093  
  8310.000000   1700514   1700965   1701343   1701514   1701369  
  8300.000000   1700870   1700063   1699064   1698010   1697007  
  8290.000000   1696099   1695267   1694462   1693641   1692812  
  8280.000000   1692021   1691337   1690800   1690394   1690039  
  8270.000000   1689617   1689017   1688185   1687143   1685998  
  8260.000000   1684887   1683948   1683265   1682865   1682709  
  8250.000000   1682725   1682814   1682868   1682775   1682423  
  8240.000000   1681715   1680594   1679065   1677212   1675194  
  8230.000000   1673202   1671415   1669940   1668780   1667850  
  8220.000000   1667009   1666123   1665103   1663946   1662706  
  8210.000000   1661486   1660383   1659458   1658723   1658139  
  8200.000000   1657643   1657157   1656605   1655916   1655038  
  8190.000000   1653950   1652678   1651307   1649958   1648760  
  8180.000000   1647796   1647070   1646478   1645842   1644954  
  8170.000000   1643667   1641951   1639926   1637818   1635886  
  8160.000000   1634317   1633160   1632304   1631523   1630568  
  8150.000000   1629250   1627525   1625491   1623356   1621346  
  8140.000000   1619616   1618209   1617045   1615990   1614916  
  8130.000000   1613778   1612633   1611620   1610898   1610564  
  8120.000000   1610600   1610830   1610975   1610699   1609740  
  8110.000000   1607965   1605453   1602455   1599351   1596545  
  8100.000000   1594364   1592989   1592417   1592488   1592943  
  8090.000000   1593509   1593962   1594176   1594114   1593809  
  8080.000000   1593333   1592750   1592123   1591479   1590849  
  8070.000000   1590239   1589660   1589110   1588580   1588060  
  8060.000000   1587541   1587034   1586565   1586164   1585847  
  8050.000000   1585590   1585318   1584929   1584313   1583423  
  8040.000000   1582292   1581062   1579933   1579122   1578760  
  8030.000000   1578864   1579293   1579801   1580096   1579933  
  8020.000000   1579180   1577835   1576022   1573922   1571729  
  8010.000000   1569583   1567574   1565735   1564083   1562643  
  8000.000000   1561461   1560603   1560117   1560030   1560300  
  7990.000000   1560843   1561531   1562227   1562820   1563222  
  7980.000000   1563402   1563341   1563054   1562540   1561809  
  7970.000000   1560869   1559752   1558529   1557310   1556247  
  7960.000000   1555489   1555165   1555320   1555915   1556801  
  7950.000000   1557769   1558587   1559064   1559099   1558695  
  7940.000000   1557959   1557046   1556124   1555310   1554660  
  7930.000000   1554159   1553760   1553405   1553061   1552722  
  7920.000000   1552401   1552112   1551844   1551566   1551234  
  7910.000000   1550819   1550344   1549878   1549539   1549449  
  7900.000000   1549693   1550284   1551144   1552131   1553076  
  7890.000000   1553841   1554361   1554654   1554812   1554947  
  7880.000000   1555148   1555425   1555720   1555905   1555849  
  7870.000000   1555455   1554715   1553723   1552649   1551715  
  7860.000000   1551115   1550990   1551374   1552206   1553336  
  7850.000000   1554568   1555703   1556574   1557079   1557181  
  7840.000000   1556919   1556376   1555672   1554928   1554257  
  7830.000000   1553739   1553423   1553326   1553436   1553722  
  7820.000000   1554131   1554604   1555056   1555412   1555594  
  7810.000000   1555557   1555295   1554849   1554306   1553766  
  7800.000000   1553315   1552995   1552787   1552627   1552428  
  7790.000000   1552124   1551693   1551173   1550638   1550170  
  7780.000000   1549819   1549581   1549403   1549197   1548884  
  7770.000000   1548417   1547801   1547087   1546352   1545676  
  7760.000000   1545123   1544735   1544527   1544499   1544624  
  7750.000000   1544851   1545100   1545264   1545238   1544933  
  7740.000000   1544320   1543428   1542358   1541228   1540154  
  7730.000000   1539201   1538375   1537641   1536954   1536312  
  7720.000000   1535762   1535404   1535340   1535628   1536228  
  7710.000000   1537001   1537730   1538181   1538184   1537673  
  7700.000000   1536726   1535523   1534306   1533298   1532652  
  7690.000000   1532405   1532491   1532765   1533055   1533219  
  7680.000000   1533177   1532928   1532533   1532094   1531706  
  7670.000000   1531443   1531335   1531372   1531521   1531737  
  7660.000000   1531977   1532204   1532381   1532476   1532454  
  7650.000000   1532289   1531972   1531524   1530995   1530449  
  7640.000000   1529948   1529528   1529191   1528905   1528635  
  7630.000000   1528356   1528082   1527847   1527696   1527639  
  7620.000000   1527636   1527595   1527416   1527025   1526443  
  7610.000000   1525782   1525243   1525032   1525296   1526047  
  7600.000000   1527163   1528416   1529555   1530383   1530826  
  7590.000000   1530929   1530843   1530737   1530759   1530964  
  7580.000000   1531334   1531790   1532246   1532645   1532974  
  7570.000000   1533270   1533594   1534017   1534592   1535351  
  7560.000000   1536288   1537367   1538517   1539634   1540606  
  7550.000000   1541323   1541720   1541790   1541599   1541265  
  7540.000000   1540926   1540700   1540663   1540833   1541184  
  7530.000000   1541669   1542244   1542880   1543566   1544289  
  7520.000000   1545030   1545751   1546415   1546991   1547491  
  7510.000000   1547955   1548459   1549080   1549892   1550934  
  7500.000000   1552222   1553739   1555450   1557297   1559210  
  7490.000000   1561100   1562878   1564462   1565811   1566928  
  7480.000000   1567885   1568782   1569732   1570799   1572004  
  7470.000000   1573295   1574597   1575840   1577000   1578115  
  7460.000000   1579266   1580551   1582038   1583740   1585611  
  7450.000000   1587565   1589519   1591411   1593221   1594950  
  7440.000000   1596616   1598212   1599728   1601123   1602380  
  7430.000000   1603500   1604531   1605557   1606678   1607989  
  7420.000000   1609554   1611411   1613550   1615939   1618514  
  7410.000000   1621192   1623876   1626449   1628795   1630803  
  7400.000000   1632414   1633615   1634464   1635072   1635600  
  7390.000000   1636213   1637057   1638235   1639784   1641691  
  7380.000000   1643884   1646265   1648719   1651150   1653481  
  7370.000000   1655667   1657688   1659537   1661227   1662768  
  7360.000000   1664194   1665546   1666890   1668303   1669855  
  7350.000000   1671591   1673506   1675553   1677637   1679669  
  7340.000000   1681580   1683366   1685067   1686759   1688503  
  7330.000000   1690317   1692163   1693951   1695578   1696965  
  7320.000000   1698093   1699004   1699789   1700558   1701403  
  7310.000000   1702391   1703546   1704874   1706359   1707986  
  7300.000000   1709729   1711550   1713385   1715161   1716804  
  7290.000000   1718263   1719528   1720625   1721614   1722548  
  7280.000000   1723472   1724401   1725340   1726293   1727287  
  7270.000000   1728364   1729581   1730978   1732560   1734290  
  7260.000000   1736100   1737908   1739650   1741292   1742840  
  7250.000000   1744319   1745771   1747220   1748697   1750215  
  7240.000000   1751805   1753489   1755296   1757224   1759258  
  7230.000000   1761346   1763445   1765523   1767603   1769741  
  7220.000000   1772031   1774544   1777327   1780345   1783530  
  7210.000000   1786769   1789985   1793134   1796242   1799362  
  7200.000000   1802571   1805911   1809388   1812966   1816600  
  7190.000000   1820243   1823885   1827526   1831182   1834846  
  7180.000000   1838487   1842045   1845459   1848682   1851717  
  7170.000000   1854599   1857414   1860246   1863184   1866273  
  7160.000000   1869536   1872962   1876544   1880270   1884150  
  7150.000000   1888191   1892409   1896796   1901337   1905991  
  7140.000000   1910724   1915495   1920301   1925134   1930031  
  7130.000000   1935003   1940077   1945232   1950449   1955666  
  7120.000000   1960846   1965946   1970978   1975980   1981030  
  7110.000000   1986203   1991563   1997126   2002876   2008754  
  7100.000000   2014705   2020678   2026664   2032669   2038724  
  7090.000000   2044837   2051001   2057174   2063306   2069349  
  7080.000000   2075289   2081137   2086940   2092745   2098595  
  7070.000000   2104502   2110457   2116430   2122388   2128299  
  7060.000000   2134136   2139881   2145519   2151045   2156476  
  7050.000000   2161857   2167255   2172749   2178395   2184209  
  7040.000000   2190143   2196105   2201974   2207649   2213074  
  7030.000000   2218258   2223258   2228167   2233062   2238002  
  7020.000000   2243001   2248057   2253144   2258246   2263337  
  7010.000000   2268388   2273350   2278165   2282768   2287126  
  7000.000000   2291236   2295158   2298972   2302782   2306657  
  6990.000000   2310642   2314726   2318884   2323065   2327239  
  6980.000000   2331366   2335426   2339370   2343156   2346727  
  6970.000000   2350052   2353121   2355974   2358670   2361288  
  6960.000000   2363876   2366467   2369051   2371625   2374174  
  6950.000000   2376724   2379297   2381929   2384612   2387311  
  6940.000000   2389937   2392394   2394589   2396481   2398075  
  6930.000000   2399432   2400632   2401765   2402889   2404046  
  6920.000000   2405244   2406491   2407781   2409124   2410520  
  6910.000000   2411974   2413473   2414997   2416507   2417967  
  6900.000000   2419331   2420571   2421673   2422651   2423544  
  6890.000000   2424416   2425333   2426354   2427500   2428756  
  6880.000000   2430060   2431338   2432513   2433545   2434428  
  6870.000000   2435191   2435876   2436514   2437111   2437652  
  6860.000000   2438114   2438491   2438805   2439104   2439446  
  6850.000000   2439882   2440430   2441088   2441832   2442646  
  6840.000000   2443526   2444485   2445530   2446645   2447775  
  6830.000000   2448838   2449747   2450446   2450929   2451250  
  6820.000000   2451495   2451752   2452070   2452450   2452849  
  6810.000000   2453214   2453505   2453721   2453888   2454048  
  6800.000000   2454218   2454387   2454504   2454514   2454376  
  6790.000000   2454094   2453713   2453316   2452983   2452776  
  6780.000000   2452721   2452809   2453006   2453270   2453558  
  6770.000000   2453831   2454054   2454193   2454225   2454141  
  6760.000000   2453956   2453707   2453449   2453232   2453096  
  6750.000000   2453057   2453114   2453255   2453463   2453731  
  6740.000000   2454046   2454397   2454760   2455103   2455398  
  6730.000000   2455626   2455785   2455886   2455944   2455965  
  6720.000000   2455939   2455851   2455695   2455491   2455289  
  6710.000000   2455158   2455155   2455305   2455574   2455883  
  6700.000000   2456131   2456233   2456151   2455909   2455567  
  6690.000000   2455208   2454888   2454633   2454427   2454245  
  6680.000000   2454057   2453854   2453629   2453378   2453069  
  6670.000000   2452661   2452098   2451354   2450439   2449421  
  6660.000000   2448386   2447427   2446590   2445875   2445221  
  6650.000000   2444557   2443812   2442962   2442012   2440995  
  6640.000000   2439937   2438847   2437710   2436508   2435232  
  6630.000000   2433908   2432581   2431309   2430126   2429034  
  6620.000000   2427997   2426961   2425875   2424716   2423490  
  6610.000000   2422227   2420953   2419684   2418410   2417117  
  6600.000000   2415789   2414434   2413070   2411722   2410395  
  6590.000000   2409072   2407707   2406251   2404669   2402967  
  6580.000000   2401183   2399382   2397629   2395969   2394412  
  6570.000000   2392947   2391546   2390188   2388855   2387537  
  6560.000000   2386217   2384869   2383455   2381942   2380317  
  6550.000000   2378599   2376839   2375100   2373442   2371901  
  6540.000000   2370482   2369165   2367923   2366734   2365588  
  6530.000000   2364483   2363412   2362353   2361272   2360128  
  6520.000000   2358891   2357554   2356141   2354690   2353244  
  6510.000000   2351832   2350458   2349112   2347773   2346430  
  6500.000000   2345084   2343749   2342442   2341174   2339938  
  6490.000000   2338716   2337483   2336212   2334886   2333495  
  6480.000000   2332036   2330510   2328928   2327307   2325674  
  6470.000000   2324068   2322528   2321080   2319734   2318475  
  6460.000000   2317276   2316103   2314936   2313773   2312628  
  6450.000000   2311517   2310451   2309418   2308396   2307354  
  6440.000000   2306277   2305159   2304025   2302901   2301815  
  6430.000000   2300775   2299776   2298796   2297824   2296854  
  6420.000000   2295905   2294999   2294162   2293402   2292717  
  6410.000000   2292085   2291489   2290916   2290376   2289886  
  6400.000000   2289472   2289153   2288934   2288805   2288745  
  6390.000000   2288723   2288712   2288680   2288606   2288466  
  6380.000000   2288250   2287955   2287594   2287191   2286776  
  6370.000000   2286377   2286009   2285675   2285364   2285065  
  6360.000000   2284763   2284460   2284156   2283860   2283567  
  6350.000000   2283268   2282944   2282579   2282159   2281685  
  6340.000000   2281157   2280585   2279967   2279300   2278579  
  6330.000000   2277809   2276998   2276171   2275345   2274532  
  6320.000000   2273719   2272881   2271975   2270980   2269891  
  6310.000000   2268739   2267570   2266442   2265384   2264403  
  6300.000000   2263468   2262532   2261545   2260480   2259324  
  6290.000000   2258094   2256806   2255484   2254134   2252765  
  6280.000000   2251379   2249986   2248596   2247222   2245865  
  6270.000000   2244516   2243156   2241765   2240333   2238868  
  6260.000000   2237387   2235919   2234482   2233083   2231707  
  6250.000000   2230338   2228956   2227560   2226158   2224769  
  6240.000000   2223402   2222054   2220702   2219312   2217853  
  6230.000000   2216308   2214688   2213023   2211354   2209720  
  6220.000000   2208145   2206632   2205172   2203751   2202357  
  6210.000000   2200991   2199665   2198399   2197212   2196117  
  6200.000000   2195118   2194202   2193343   2192504   2191642  
  6190.000000   2190715   2189696   2188568   2187345   2186053  
  6180.000000   2184733   2183423   2182155   2180944   2179794  
  6170.000000   2178703   2177670   2176702   2175806   2174987  
  6160.000000   2174237   2173530   2172824   2172071   2171228  
  6150.000000   2170272   2169207   2168054   2166852   2165635  
  6140.000000   2164428   2163241   2162070   2160909   2159754  
  6130.000000   2158611   2157495   2156425   2155418   2154479  
  6120.000000   2153603   2152769   2151957   2151140   2150308  
  6110.000000   2149454   2148592   2147741   2146931   2146187  
  6100.000000   2145534   2144983   2144539   2144189   2143917  
  6090.000000   2143691   2143481   2143251   2142979   2142647  
  6080.000000   2142266   2141857   2141464   2141128   2140899  
  6070.000000   2140794   2140825   2140970   2141208   2141504  
  6060.000000   2141845   2142216   2142629   2143080   2143584  
  6050.000000   2144130   2144723   2145359   2146066   2146871  
  6040.000000   2147833   2148992   2150392   2152031   2153895  
  6030.000000   2155930   2158093   2160325   2162606   2164911  
  6020.000000   2167249   2169609   2171999   2174397   2176803  
  6010.000000   2179195   2181584   2183969   2186381   2188834  
  6000.000000   2191362   2193974   2196697   2199534   2202504  
  5990.000000   2205599   2208825   2212161   2215603   2219131  
  5980.000000   2222752   2226472   2230325   2234333   2238527  
  5970.000000   2242904   2247455   2252130   2256892   2261679  
  5960.000000   2266464   2271214   2275932   2280608   2285260  
  5950.000000   2289888   2294517   2299165   2303869   2308665  
  5940.000000   2313590   2318672   2323919   2329323   2334852  
  5930.000000   2340469   2346119   2351752   2357304   2362718  
  5920.000000   2367935   2372912   2377620   2382063   2386265  
  5910.000000   2390273   2394130   2397876   2401521   2405072  
  5900.000000   2408514   2411858   2415116   2418338   2421564  
  5890.000000   2424850   2428207   2431638   2435099   2438546  
  5880.000000   2441914   2445163   2448250   2451160   2453878  
  5870.000000   2456404   2458747   2460928   2462980   2464950  
  5860.000000   2466879   2468810   2470762   2472750   2474774  
  5850.000000   2476841   2478958   2481144   2483410   2485756  
  5840.000000   2488164   2490598   2493019   2495395   2497717  
  5830.000000   2499998   2502270   2504563   2506900   2509280  
  5820.000000   2511692   2514115   2516538   2518960   2521388  
  5810.000000   2523834   2526295   2528764   2531213   2533640  
  5800.000000   2536027   2538407   2540787   2543209   2545653  
  5790.000000   2548111   2550502   2552759   2554763   2556424  
  5780.000000   2557620   2558267   2558266   2557576   2556176  
  5770.000000   2554133   2551556   2548634   2545555   2542517  
  5760.000000   2539642   2537013   2534617   2532429   2530383  
  5750.000000   2528451   2526604   2524850   2523187   2521616  
  5740.000000   2520120   2518673   2517257   2515852   2514460  
  5730.000000   2513077   2511712   2510354   2508998   2507631  
  5720.000000   2506258   2504884   2503530   2502207   2500924  
  5710.000000   2499672   2498441   2497224   2496031   2494890  
  5700.000000   2493831   2492883   2492045   2491294   2490578  
  5690.000000   2489851   2489068   2488226   2487335   2486431  
  5680.000000   2485527   2484632   2483708   2482713   2481578  
  5670.000000   2480253   2478686   2476852   2474727   2472311  
  5660.000000   2469610   2466663   2463524   2460282   2457024  
  5650.000000   2453840   2450785   2447887   2445138   2442515  
  5640.000000   2439989   2437546   2435178   2432885   2430668  
  5630.000000   2428512   2426405   2424329   2422288   2420293  
  5620.000000   2418380   2416577   2414913   2413385   2411982  
  5610.000000   2410671   2409426   2408223   2407056   2405914  
  5600.000000   2404797   2403689   2402575   2401441   2400289  
  5590.000000   2399133   2398006   2396938   2395952   2395049  
  5580.000000   2394210   2393404   2392600   2391780   2390936  
  5570.000000   2390077   2389207   2388330   2387435   2386508  
  5560.000000   2385533   2384500   2383408   2382261   2381067  
  5550.000000   2379835   2378571   2377287   2375996   2374720  
  5540.000000   2373476   2372280   2371131   2370017   2368918  
  5530.000000   2367821   2366715   2365608   2364508   2363427  
  5520.000000   2362359   2361293   2360207   2359085   2357923  
  5510.000000   2356735   2355539   2354355   2353187   2352024  
  5500.000000   2350839   2349608   2348315   2346968   2345585  
  5490.000000   2344193   2342802   2341409   2339995   2338538  
  5480.000000   2337024   2335460   2333864   2332268   2330688  
  5470.000000   2329134   2327593   2326046   2324469   2322849  
  5460.000000   2321178   2319450   2317657   2315785   2313824  
  5450.000000   2311774   2309659   2307525   2305433   2303441  
  5440.000000   2301588   2299879   2298295   2296797   2295349  
  5430.000000   2293918   2292488   2291046   2289588   2288104  
  5420.000000   2286604   2285100   2283642   2282282   2281091  
  5410.000000   2280099   2279318   2278701   2278201   2277753  
  5400.000000   2277341   2276963   2276669   2276496   2276495  
  5390.000000   2276661   2276993   2277448   2278016   2278680  
  5380.000000   2279475   2280415   2281542   2282846   2284333  
  5370.000000   2285960   2287727   2289601   2291616   2293759  
  5360.000000   2296082   2298570   2301274   2304181   2307359  
  5350.000000   2310815   2314639   2318832   2323463   2328490  
  5340.000000   2333949   2339778   2346031   2352673   2359788  
  5330.000000   2367346   2375420   2383948   2392982   2402458  
  5320.000000   2412464   2422989   2434174   2446027   2458682  
  5310.000000   2472097   2486340   2501313   2517054   2533471  
  5300.000000   2550636   2568504   2587185   2606657   2627024  
  5290.000000   2648235   2670333   2693192   2716771   2740896  
  5280.000000   2765513   2790515   2815948   2841828   2868286  
  5270.000000   2895366   2923106   2951404   2980103   3008982  
  5260.000000   3037851   3066598   3095193   3123696   3152151  
  5250.000000   3180588   3208902   3236960   3264513   3291421  
  5240.000000   3317519   3342853   3367435   3391444   3414925  
  5230.000000   3438003   3460603   3482717   3504159   3524887  
  5220.000000   3544750   3563805   3582020   3599557   3616440  
  5210.000000   3632824   3648663   3664003   3678682   3692673  
  5200.000000   3705808   3718124   3729559   3740248   3750196  
  5190.000000   3759540   3768244   3776381   3783866   3790750  
  5180.000000   3796960   3802577   3807561   3811999   3815839  
  5170.000000   3819145   3821854   3824034   3825654   3826808  
  5160.000000   3827481   3827753   3827579   3826994   3825928  
  5150.000000   3824416   3822419   3820007   3817181   3814019  
  5140.000000   3810520   3806744   3802677   3798373   3793829  
  5130.000000   3789103   3784192   3779138   3773920   3768561  
  5120.000000   3763043   3757400   3751646   3745837   3739996  
  5110.000000   3734155   3728309   3722454   3716569   3710655  
  5100.000000   3704720   3698795   3692908   3687093   3681358  
  5090.000000   3675709   3670134   3664629   3659187   3653812  
  5080.000000   3648496   3643234   3637995   3632751   3627460  
  5070.000000   3622101   3616652   3611114   3605482   3599759  
  5060.000000   3593929   3587984   3581904   3575698   3569372  
  5050.000000   3562964   3556500   3550015   3543514   3537000  
  5040.000000   3530448   3523849   3517188   3510475   3503721  
  5030.000000   3496951   3490182   3483428   3476694   3469981  
  5020.000000   3463294   3456637   3450023   3443457   3436956  
  5010.000000   3430521   3424168   3417901   3411745   3405710  
  5000.000000   3399831   3394112   3388577   3383213   3378031  
  4990.000000   3373007   3368159   3363476   3358991   3354704  
  4980.000000   3350655   3346834   3343275   3339954   3336901  
  4970.000000   3334088   3331550   3329257   3327246   3325485  
  4960.000000   3324014   3322806   3321913   3321325   3321105  
  4950.000000   3321244   3321797   3322733   3324088   3325809  
  4940.000000   3327925   3330386   3333233   3336430   3340028  
  4930.000000   3343992   3348366   3353111   3358267   3363795  
  4920.000000   3369736   3376059   3382801   3389925   3397456  
  4910.000000   3405351   3413622   3422227   3431168   3440403  
  4900.000000   3449914   3459651   3469574   3479630   3489765  
  4890.000000   3499937   3510087   3520177   3530130   3539901  
  4880.000000   3549387   3558542   3567255   3575492   3583153  
  4870.000000   3590219   3596598   3602288   3607210   3611393  
  4860.000000   3614791   3617474   3619433   3620762   3621470  
  4850.000000   3621651   3621311   3620541   3619356   3617853  
  4840.000000   3616064   3614085   3611955   3609756   3607518  
  4830.000000   3605301   3603126   3601034   3599038   3597160  
  4820.000000   3595407   3593785   3592301   3590955   3589762  
  4810.000000   3588722   3587848   3587125   3586547   3586081  
  4800.000000   3585712   3585413   3585194   3585060   3585053  
  4790.000000   3585194   3585522   3586035   3586735   3587588  
  4780.000000   3588568   3589636   3590772   3591946   3593147  
  4770.000000   3594353   3595554   3596732   3597886   3599015  
  4760.000000   3600135   3601257   3602396   3603550   3604708  
  4750.000000   3605849   3606949   3607990   3608965   3609881  
  4740.000000   3610753   3611601   3612441   3613287   3614145  
  4730.000000   3615019   3615914   3616828   3617765   3618714  
  4720.000000   3619670   3620616   3621551   3622469   3623397  
  4710.000000   3624356   3625400   3626564   3627903   3629438  
  4700.000000   3631207   3633212   3635477   3637999   3640795  
  4690.000000   3643860   3647206   3650816   3654689   3658788  
  4680.000000   3663089   3667529   3672063   3676608   3681113  
  4670.000000   3685504   3689758   3693850   3697816   3701688  
  4660.000000   3705547   3709454   3713492   3717711   3722164  
  4650.000000   3726872   3731845   3737074   3742531   3748176  
  4640.000000   3753958   3759825   3765726   3771629   3777503  
  4630.000000   3783339   3789117   3794822   3800411   3805844  
  4620.000000   3811047   3815972   3820544   3824742   3828521  
  4610.000000   3831899   3834866   3837470   3839718   3841672  
  4600.000000   3843339   3844776   3845976   3846977   3847751  
  4590.000000   3848316   3848630   3848706   3848505   3848048  
  4580.000000   3847309   3846314   3845052   3843554   3841823  
  4570.000000   3839902   3837815   3835618   3833345   3831047  
  4560.000000   3828742   3826454   3824173   3821903   3819625  
  4550.000000   3817344   3815055   3812772   3810501   3808251  
  4540.000000   3806022   3803813   3801619   3799437   3797273  
  4530.000000   3795125   3793008   3790915   3788860   3786827  
  4520.000000   3784837   3782878   3780994   3779190   3777532  
  4510.000000   3776033   3774769   3773748   3773048   3772670  
  4500.000000   3772698   3773129   3774049   3775446   3777404  
  4490.000000   3779903   3783032   3786772   3791224   3796372  
  4480.000000   3802310   3809002   3816513   3824771   3833805  
  4470.000000   3843517   3853917   3864903   3876477   3888546  
  4460.000000   3901108   3914074   3927441   3941127   3955123  
  4450.000000   3969360   3983826   3998465   4013264   4028178  
  4440.000000   4043186   4058255   4073351   4088443   4103481  
  4430.000000   4118436   4133239   4147864   4162232   4176320  
  4420.000000   4190048   4203403   4216309   4228762   4240690  
  4410.000000   4252093   4262901   4273117   4282681   4291616  
  4400.000000   4299900   4307602   4314753   4321473   4327832  
  4390.000000   4333972   4339971   4345950   4351956   4358063  
  4380.000000   4364264   4370581   4376973   4383436   4389932  
  4370.000000   4396464   4403011   4409580   4416145   4422690  
  4360.000000   4429167   4435552   4441793   4447903   4453844  
  4350.000000   4459670   4465332   4470890   4476264   4481507  
  4340.000000   4486534   4491384   4495933   4500097   4503566  
  4330.000000   4505993   4506845   4505641   4501945   4495608  
  4320.000000   4486761   4475916   4463813   4451352   4439348  
  4310.000000   4428464   4419057   4411245   4404903   4399818  
  4300.000000   4395740   4392463   4389864   4387848   4386397  
  4290.000000   4385448   4385008   4385015   4385500   4386437  
  4280.000000   4387872   4389787   4392174   4394969   4398083  
  4270.000000   4401413   4404832   4408220   4411401   4414178  
  4260.000000   4416272   4417384   4417203   4415510   4412203  
  4250.000000   4407389   4401330   4394458   4387227   4380106  
  4240.000000   4373416   4367380   4362023   4357301   4353054  
  4230.000000   4349143   4345417   4341776   4338159   4334527  
  4220.000000   4330889   4327246   4323662   4320174   4316890  
  4210.000000   4313873   4311235   4309014   4307265   4305959  
  4200.000000   4305077   4304535   4304284   4304231   4304345  
  4190.000000   4304559   4304878   4305261   4305739   4306287  
  4180.000000   4306949   4307707   4308614   4309663   4310916  
  4170.000000   4312382   4314134   4316189   4318622   4321446  
  4160.000000   4324723   4328437   4332626   4337244   4342305  
  4150.000000   4347747   4353580   4359741   4366255   4373072  
  4140.000000   4380233   4387702   4395531   4403682   4412203  
  4130.000000   4421048   4430260   4439796   4449703   4459959  
  4120.000000   4470627   4481706   4493267   4505316   4517917  
  4110.000000   4531065   4544793   4559059   4573841   4589043  
  4100.000000   4604584   4620337   4636212   4652114   4668002  
  4090.000000   4683858   4699692   4715526   4731368   4747234  
  4080.000000   4763096   4778951   4794746   4810474   4826053  
  4070.000000   4841457   4856560   4871305   4885547   4899247  
  4060.000000   4912295   4924713   4936443   4947549   4957984  
  4050.000000   4967817   4976999   4985608   4993598   5001050  
  4040.000000   5007910   5014234   5019942   5025079   5029575  
  4030.000000   5033506   5036846   5039695   5042045   5043973  
  4020.000000   5045433   5046487   5047129   5047425   5047343  
  4010.000000   5046970   5046342   5045432   5044030   5042141  
  4000.000000   5040001  
##END= 
