##TITLE= Sample 027 By ssteindl date Montag, November 19 2018
##JCAMP-DX= 4.24
##DATA TYPE= INFRARED SPECTRUM
##ORIGIN= Exported PE Spectrum Data File
##OWNER= Sandra Steindl
##DATE= 18/11/19
##TIME= 17:55:37.00
##SPECTROMETER/DATA SYSTEM= PERKIN-ELMER Frontier FT-IR/NIR IR
##INSTRUMENT PARAMETERS=
  APODIZATION=stark
  DETECTOR=INGAAS
##RESOLUTION= 16.000000
##DELTAX= -2.000000
##XUNITS= 1/CM
##YUNITS= A
##XFACTOR= 1.00
##YFACTOR= 0.00000011920928955078
##FIRSTX= 10000.00
##LASTX= 4000.00
##NPOINTS= 3001
##FIRSTY= 0.211715
##MAXY= 0.637066
##MINY= 0.183304
##XYDATA= (X++(Y..Y))
 10000.000000   1775997   1768056   1762028   1760264   1762709  
  9990.000000   1767337   1772291   1776509   1779338   1780504  
  9980.000000   1780443   1779908   1779471   1779320   1779590  
  9970.000000   1780300   1781498   1783069   1784799   1786138  
  9960.000000   1786393   1784907   1781354   1776068   1769968  
  9950.000000   1764483   1761005   1760575   1763479   1769316  
  9940.000000   1777050   1785396   1792976   1798615   1801420  
  9930.000000   1800910   1797129   1790620   1782444   1773887  
  9920.000000   1766203   1760191   1755980   1753020   1750345  
  9910.000000   1747087   1742860   1738072   1733695   1730921  
  9900.000000   1730519   1732493   1736006   1739693   1742267  
  9890.000000   1742953   1741828   1739613   1737334   1735801  
  9880.000000   1735315   1735617   1736151   1736378   1736093  
  9870.000000   1735401   1734605   1733885   1733143   1732021  
  9860.000000   1730073   1727089   1723253   1719191   1715771  
  9850.000000   1713792   1713684   1715372   1718307   1721698  
  9840.000000   1724744   1726852   1727743   1727404   1726059  
  9830.000000   1724030   1721710   1719443   1717515   1716044  
  9820.000000   1715022   1714300   1713711   1713161   1712659  
  9810.000000   1712380   1712480   1713098   1714169   1715514  
  9800.000000   1716894   1718141   1719269   1720387   1721601  
  9790.000000   1722779   1723510   1723132   1721066   1717073  
  9780.000000   1711562   1705522   1700272   1696991   1696272  
  9770.000000   1697948   1701147   1704762   1707857   1710089  
  9760.000000   1711707   1713356   1715632   1718733   1722324  
  9750.000000   1725673   1728011   1728830   1728099   1726166  
  9740.000000   1723565   1720768   1718031   1715450   1713029  
  9730.000000   1710880   1709152   1708029   1707477   1707225  
  9720.000000   1706762   1705584   1703427   1700450   1697199  
  9710.000000   1694344   1692355   1691210   1690429   1689271  
  9700.000000   1687191   1684117   1680584   1677480   1675662  
  9690.000000   1675521   1676820   1678802   1680596   1681598  
  9680.000000   1681765   1681536   1681569   1682364   1683986  
  9670.000000   1686085   1688069   1689471   1690165   1690429  
  9660.000000   1690780   1691645   1693116   1694823   1696061  
  9650.000000   1696068   1694319   1690751   1685760   1680072  
  9640.000000   1674514   1669823   1666528   1664912   1664996  
  9630.000000   1666521   1668967   1671592   1673588   1674284  
  9620.000000   1673376   1671066   1668040   1665287   1663783  
  9610.000000   1664167   1666561   1670545   1675341   1680068  
  9600.000000   1683963   1686531   1687549   1687024   1685154  
  9590.000000   1682266   1678835   1675380   1672388   1670163  
  9580.000000   1668695   1667698   1666672   1665223   1663210  
  9570.000000   1660971   1659165   1658569   1659666   1662358  
  9560.000000   1665907   1669100   1670717   1669915   1666599  
  9550.000000   1661396   1655474   1650086   1646200   1644250  
  9540.000000   1644116   1645321   1647247   1649359   1651287  
  9530.000000   1652827   1653882   1654414   1654429   1653988  
  9520.000000   1653232   1652339   1651491   1650783   1650231  
  9510.000000   1649797   1649451   1649266   1649376   1649951  
  9500.000000   1651044   1652520   1654032   1655098   1655273  
  9490.000000   1654289   1652172   1649199   1645812   1642443  
  9480.000000   1639439   1636999   1635233   1634220   1634020  
  9470.000000   1634668   1636047   1637889   1639738   1641153  
  9460.000000   1641847   1641864   1641564   1641487   1642093  
  9450.000000   1643534   1645525   1647418   1648427   1647935  
  9440.000000   1645758   1642215   1638012   1633941   1630567  
  9430.000000   1628053   1626141   1624352   1622202   1619435  
  9420.000000   1616125   1612654   1609565   1607369   1606345  
  9410.000000   1606479   1607465   1608839   1610114   1610922  
  9400.000000   1611099   1610703   1609979   1609252   1608823  
  9390.000000   1608823   1609201   1609671   1609887   1609492  
  9380.000000   1608292   1606257   1603500   1600251   1596769  
  9370.000000   1593394   1590507   1588546   1587916   1588886  
  9360.000000   1591442   1595200   1599375   1602923   1604833  
  9350.000000   1604456   1601822   1597614   1593016   1589238  
  9340.000000   1587158   1586998   1588335   1590299   1591966  
  9330.000000   1592752   1592613   1592011   1591616   1592008  
  9320.000000   1593420   1595680   1598295   1600666   1602323  
  9310.000000   1603056   1602955   1602293   1601405   1600586  
  9300.000000   1600050   1599925   1600248   1600923   1601731  
  9290.000000   1602316   1602295   1601376   1599475   1596844  
  9280.000000   1593990   1591623   1590358   1590589   1592286  
  9270.000000   1595103   1598466   1601796   1604617   1606624  
  9260.000000   1607657   1607614   1606414   1603976   1600330  
  9250.000000   1595664   1590400   1585118   1580420   1576773  
  9240.000000   1574360   1573111   1572729   1572882   1573258  
  9230.000000   1573687   1574090   1574419   1574600   1574487  
  9220.000000   1573964   1572968   1571612   1570095   1568698  
  9210.000000   1567611   1566928   1566579   1566437   1566374  
  9200.000000   1566351   1566416   1566670   1567169   1567871  
  9190.000000   1568625   1569257   1569656   1569865   1570067  
  9180.000000   1570506   1571376   1572716   1574404   1576202  
  9170.000000   1577876   1579292   1580456   1581471   1582423  
  9160.000000   1583277   1583857   1583883   1583129   1581528  
  9150.000000   1579267   1576749   1574487   1572925   1572282  
  9140.000000   1572468   1573147   1573850   1574140   1573726  
  9130.000000   1572552   1570803   1568825   1567022   1565768  
  9120.000000   1565345   1565859   1567224   1569152   1571268  
  9110.000000   1573144   1574444   1574981   1574789   1574097  
  9100.000000   1573226   1572504   1572162   1572320   1572983  
  9090.000000   1574099   1575585   1577373   1579364   1581402  
  9080.000000   1583203   1584424   1584725   1583890   1581898  
  9070.000000   1578985   1575603   1572284   1569471   1567410  
  9060.000000   1566099   1565339   1564801   1564185   1563303  
  9050.000000   1562124   1560736   1559277   1557906   1556729  
  9040.000000   1555818   1555167   1554749   1554497   1554338  
  9030.000000   1554201   1554058   1553962   1554066   1554586  
  9020.000000   1555722   1557561   1560000   1562681   1565063  
  9010.000000   1566565   1566790   1565644   1563403   1560648  
  9000.000000   1558101   1556389   1555815   1556321   1557511  
  8990.000000   1558860   1559853   1560212   1559917   1559190  
  8980.000000   1558316   1557522   1556901   1556349   1555685  
  8970.000000   1554666   1553182   1551194   1548810   1546180  
  8960.000000   1543515   1541052   1539050   1537822   1537665  
  8950.000000   1538836   1541416   1545281   1550072   1555260  
  8940.000000   1560270   1564594   1567935   1570180   1571398  
  8930.000000   1571706   1571246   1570104   1568368   1566197  
  8920.000000   1563868   1561794   1560367   1559913   1560482  
  8910.000000   1561878   1563620   1565150   1565983   1565852  
  8900.000000   1564761   1562889   1560529   1557918   1555227  
  8890.000000   1552548   1550002   1547792   1546226   1545651  
  8880.000000   1546321   1548300   1551375   1555104   1558925  
  8870.000000   1562307   1564904   1566572   1567399   1567566  
  8860.000000   1567336   1566926   1566533   1566296   1566344  
  8850.000000   1566770   1567611   1568830   1570299   1571861  
  8840.000000   1573352   1574695   1575869   1576933   1577940  
  8830.000000   1578905   1579781   1580477   1580931   1581149  
  8820.000000   1581230   1581319   1581526   1581861   1582198  
  8810.000000   1582356   1582178   1581658   1580955   1580377  
  8800.000000   1580234   1580718   1581802   1583216   1584566  
  8790.000000   1585445   1585628   1585083   1583999   1582645  
  8780.000000   1581295   1580149   1579337   1578965   1579153  
  8770.000000   1580055   1581805   1584442   1587823   1591627  
  8760.000000   1595409   1598727   1601280   1602953   1603849  
  8750.000000   1604172   1604170   1604001   1603759   1603472  
  8740.000000   1603190   1603016   1603086   1603538   1604404  
  8730.000000   1605631   1607051   1608507   1609888   1611210  
  8720.000000   1612568   1614070   1615739   1617439   1618924  
  8710.000000   1619898   1620180   1619769   1618895   1617917  
  8700.000000   1617225   1617084   1617571   1618583   1619918  
  8690.000000   1621389   1622883   1624394   1625961   1627637  
  8680.000000   1629419   1631257   1633077   1634817   1636470  
  8670.000000   1638044   1639553   1640938   1642076   1642794  
  8660.000000   1642947   1642504   1641593   1640498   1639586  
  8650.000000   1639205   1639582   1640763   1642603   1644819  
  8640.000000   1647065   1649033   1650524   1651472   1651968  
  8630.000000   1652205   1652463   1653005   1654041   1655622  
  8620.000000   1657653   1659884   1662005   1663745   1664970  
  8610.000000   1665754   1666359   1667165   1668530   1670671  
  8600.000000   1673577   1676994   1680511   1683664   1686086  
  8590.000000   1687583   1688178   1688090   1687659   1687269  
  8580.000000   1687242   1687807   1689043   1690903   1693188  
  8570.000000   1695646   1697996   1700027   1701607   1702731  
  8560.000000   1703489   1704014   1704430   1704783   1705065  
  8550.000000   1705190   1705073   1704662   1704000   1703229  
  8540.000000   1702548   1702203   1702408   1703324   1704998  
  8530.000000   1707371   1710269   1713414   1716459   1719045  
  8520.000000   1720900   1721880   1722052   1721654   1721082  
  8510.000000   1720733   1720917   1721740   1723100   1724737  
  8500.000000   1726340   1727683   1728703   1729531   1730405  
  8490.000000   1731583   1733219   1735299   1737657   1740013  
  8480.000000   1742102   1743739   1744903   1745698   1746311  
  8470.000000   1746944   1747744   1748792   1750072   1751548  
  8460.000000   1753171   1754925   1756799   1758780   1760827  
  8450.000000   1762840   1764663   1766104   1766998   1767258  
  8440.000000   1766918   1766148   1765227   1764506   1764302  
  8430.000000   1764853   1766217   1768315   1770904   1773690  
  8420.000000   1776350   1778638   1780403   1781607   1782290  
  8410.000000   1782528   1782402   1781964   1781238   1780224  
  8400.000000   1778935   1777429   1775818   1774276   1772996  
  8390.000000   1772165   1771884   1772155   1772825   1773652  
  8380.000000   1774338   1774648   1774468   1773867   1773088  
  8370.000000   1772455   1772263   1772649   1773535   1774630  
  8360.000000   1775535   1775868   1775425   1774248   1772624  
  8350.000000   1770981   1769725   1769124   1769225   1769860  
  8340.000000   1770732   1771530   1772046   1772218   1772104  
  8330.000000   1771833   1771521   1771247   1771031   1770871  
  8320.000000   1770782   1770811   1771038   1771505   1772176  
  8310.000000   1772904   1773462   1773611   1773185   1772165  
  8300.000000   1770700   1769081   1767646   1766684   1766335  
  8290.000000   1766584   1767257   1768133   1768971   1769623  
  8280.000000   1770006   1770134   1770032   1769717   1769166  
  8270.000000   1768321   1767135   1765569   1763647   1761416  
  8260.000000   1758968   1756389   1753767   1751191   1748750  
  8250.000000   1746575   1744811   1743631   1743156   1743443  
  8240.000000   1744416   1745893   1747598   1749233   1750545  
  8230.000000   1751362   1751632   1751378   1750688   1749649  
  8220.000000   1748343   1746829   1745167   1743436   1741730  
  8210.000000   1740159   1738785   1737640   1736661   1735759  
  8200.000000   1734804   1733717   1732461   1731080   1729652  
  8190.000000   1728264   1726955   1725706   1724440   1723074  
  8180.000000   1721546   1719857   1718070   1716287   1714612  
  8170.000000   1713106   1711760   1710494   1709179   1707677  
  8160.000000   1705890   1703789   1701433   1698957   1696549  
  8150.000000   1694408   1692704   1691527   1690864   1690589  
  8140.000000   1690495   1690338   1689916   1689111   1687936  
  8130.000000   1686509   1685025   1683672   1682582   1681779  
  8120.000000   1681189   1680671   1680076   1679309   1678352  
  8110.000000   1677274   1676187   1675201   1674380   1673710  
  8100.000000   1673111   1672452   1671598   1670448   1668968  
  8090.000000   1667206   1665288   1663391   1661697   1660361  
  8080.000000   1659450   1658945   1658722   1658604   1658397  
  8070.000000   1657954   1657208   1656187   1654992   1653748  
  8060.000000   1652564   1651478   1650467   1649447   1648336  
  8050.000000   1647072   1645663   1644180   1642733   1641449  
  8040.000000   1640420   1639704   1639299   1639169   1639243  
  8030.000000   1639437   1639662   1639828   1639853   1639671  
  8020.000000   1639246   1638578   1637707   1636703   1635656  
  8010.000000   1634650   1633750   1632988   1632358   1631829  
  8000.000000   1631340   1630826   1630216   1629455   1628517  
  7990.000000   1627410   1626184   1624917   1623699   1622608  
  7980.000000   1621687   1620943   1620346   1619861   1619472  
  7970.000000   1619190   1619055   1619103   1619339   1619704  
  7960.000000   1620081   1620306   1620235   1619774   1618938  
  7950.000000   1617831   1616643   1615575   1614802   1614413  
  7940.000000   1614409   1614715   1615203   1615753   1616263  
  7930.000000   1616688   1617025   1617319   1617628   1618008  
  7920.000000   1618482   1619025   1619559   1619956   1620082  
  7910.000000   1619825   1619156   1618136   1616920   1615710  
  7900.000000   1614692   1613986   1613597   1613448   1613404  
  7890.000000   1613357   1613266   1613192   1613255   1613585  
  7880.000000   1614241   1615174   1616218   1617141   1617723  
  7870.000000   1617825   1617441   1616685   1615754   1614856  
  7860.000000   1614146   1613696   1613486   1613439   1613458  
  7850.000000   1613455   1613370   1613171   1612850   1612415  
  7840.000000   1611894   1611332   1610793   1610343   1610032  
  7830.000000   1609879   1609855   1609913   1610000   1610105  
  7820.000000   1610260   1610544   1611030   1611736   1612586  
  7810.000000   1613386   1613881   1613808   1613004   1611457  
  7800.000000   1609342   1606976   1604739   1602970   1601874  
  7790.000000   1601492   1601695   1602262   1602940   1603526  
  7780.000000   1603901   1604036   1603960   1603723   1603368  
  7770.000000   1602906   1602339   1601667   1600924   1600171  
  7760.000000   1599500   1599008   1598763   1598791   1599045  
  7750.000000   1599439   1599844   1600139   1600228   1600062  
  7740.000000   1599642   1599008   1598224   1597355   1596462  
  7730.000000   1595591   1594775   1594038   1593393   1592853  
  7720.000000   1592413   1592068   1591796   1591582   1591404  
  7710.000000   1591252   1591113   1590975   1590821   1590617  
  7700.000000   1590332   1589929   1589394   1588731   1587971  
  7690.000000   1587159   1586343   1585559   1584827   1584159  
  7680.000000   1583567   1583077   1582726   1582554   1582577  
  7670.000000   1582766   1583043   1583286   1583367   1583187  
  7660.000000   1582717   1582002   1581160   1580335   1579662  
  7650.000000   1579223   1579040   1579076   1579263   1579529  
  7640.000000   1579816   1580082   1580300   1580436   1580461  
  7630.000000   1580341   1580067   1579656   1579177   1578718  
  7620.000000   1578387   1578271   1578418   1578831   1579459  
  7610.000000   1580230   1581053   1581856   1582579   1583190  
  7600.000000   1583678   1584037   1584272   1584374   1584338  
  7590.000000   1584140   1583765   1583208   1582494   1581688  
  7580.000000   1580893   1580240   1579855   1579834   1580209  
  7570.000000   1580942   1581927   1583017   1584071   1584976  
  7560.000000   1585686   1586201   1586571   1586857   1587127  
  7550.000000   1587428   1587806   1588282   1588879   1589604  
  7540.000000   1590455   1591407   1592421   1593446   1594436  
  7530.000000   1595358   1596210   1597006   1597782   1598567  
  7520.000000   1599389   1600258   1601178   1602143   1603149  
  7510.000000   1604184   1605236   1606279   1607289   1608239  
  7500.000000   1609121   1609945   1610748   1611575   1612479  
  7490.000000   1613491   1614630   1615884   1617235   1618656  
  7480.000000   1620130   1621639   1623178   1624735   1626308  
  7470.000000   1627896   1629515   1631188   1632949   1634821  
  7460.000000   1636808   1638878   1640971   1643012   1644943  
  7450.000000   1646731   1648393   1649975   1651539   1653127  
  7440.000000   1654758   1656414   1658061   1659673   1661253  
  7430.000000   1662839   1664496   1666292   1668267   1670418  
  7420.000000   1672695   1675008   1677258   1679359   1681265  
  7410.000000   1682974   1684536   1686026   1687542   1689169  
  7400.000000   1690967   1692950   1695087   1697316   1699555  
  7390.000000   1701741   1703849   1705902   1707966   1710118  
  7380.000000   1712418   1714875   1717435   1719994   1722436  
  7370.000000   1724669   1726656   1728425   1730057   1731655  
  7360.000000   1733307   1735061   1736913   1738832   1740763  
  7350.000000   1742670   1744538   1746382   1748233   1750122  
  7340.000000   1752059   1754031   1755992   1757886   1759650  
  7330.000000   1761243   1762650   1763899   1765051   1766192  
  7320.000000   1767403   1768742   1770225   1771819   1773456  
  7310.000000   1775059   1776569   1777977   1779322   1780681  
  7300.000000   1782135   1783743   1785510   1787396   1789321  
  7290.000000   1791202   1792976   1794618   1796135   1797554  
  7280.000000   1798897   1800173   1801373   1802484   1803502  
  7270.000000   1804438   1805324   1806201   1807110   1808078  
  7260.000000   1809115   1810216   1811374   1812576   1813820  
  7250.000000   1815098   1816414   1817759   1819142   1820573  
  7240.000000   1822088   1823723   1825528   1827526   1829728  
  7230.000000   1832094   1834581   1837115   1839653   1842161  
  7220.000000   1844647   1847126   1849640   1852214   1854886  
  7210.000000   1857670   1860594   1863667   1866908   1870304  
  7200.000000   1873836   1877447   1881076   1884653   1888138  
  7190.000000   1891519   1894836   1898151   1901556   1905115  
  7180.000000   1908879   1912838   1916950   1921130   1925293  
  7170.000000   1929346   1933243   1936958   1940529   1944011  
  7160.000000   1947501   1951079   1954826   1958782   1962973  
  7150.000000   1967388   1972020   1976842   1981844   1986999  
  7140.000000   1992293   1997678   2003117   2008546   2013933  
  7130.000000   2019240   2024484   2029681   2034894   2040167  
  7120.000000   2045563   2051108   2056837   2062754   2068877  
  7110.000000   2075200   2081722   2088411   2095232   2102122  
  7100.000000   2109037   2115927   2122789   2129627   2136478  
  7090.000000   2143357   2150282   2157229   2164173   2171071  
  7080.000000   2177907   2184680   2191423   2198182   2205006  
  7070.000000   2211933   2218979   2226141   2233398   2240717  
  7060.000000   2248055   2255362   2262585   2269667   2276568  
  7050.000000   2283264   2289766   2296107   2302340   2308529  
  7040.000000   2314724   2320973   2327301   2333730   2340266  
  7030.000000   2346910   2353635   2360404   2367149   2373805  
  7020.000000   2380306   2386622   2392745   2398709   2404549  
  7010.000000   2410306   2416000   2421642   2427231   2432778  
  7000.000000   2438290   2443789   2449261   2454682   2459978  
  6990.000000   2465082   2469927   2474516   2478893   2483175  
  6980.000000   2487471   2491874   2496385   2500944   2505416  
  6970.000000   2509677   2513622   2517234   2520548   2523659  
  6960.000000   2526642   2529568   2532444   2535273   2538038  
  6950.000000   2540756   2543453   2546178   2548951   2551770  
  6940.000000   2554574   2557295   2559848   2562196   2564330  
  6930.000000   2566305   2568187   2570055   2571955   2573905  
  6920.000000   2575879   2577832   2579691   2581393   2582880  
  6910.000000   2584132   2585157   2586015   2586790   2587595  
  6900.000000   2588523   2589641   2590955   2592430   2593985  
  6890.000000   2595540   2597026   2598417   2599714   2600941  
  6880.000000   2602120   2603262   2604363   2605413   2606408  
  6870.000000   2607360   2608286   2609209   2610137   2611067  
  6860.000000   2611978   2612853   2613679   2614465   2615221  
  6850.000000   2615961   2616682   2617366   2617987   2618528  
  6840.000000   2618994   2619421   2619858   2620366   2620974  
  6830.000000   2621691   2622483   2623308   2624114   2624871  
  6820.000000   2625556   2626162   2626677   2627089   2627376  
  6810.000000   2627531   2627557   2627484   2627352   2627207  
  6800.000000   2627077   2626968   2626863   2626739   2626577  
  6790.000000   2626381   2626169   2625977   2625830   2625747  
  6780.000000   2625723   2625744   2625789   2625839   2625875  
  6770.000000   2625877   2625823   2625684   2625440   2625082  
  6760.000000   2624626   2624110   2623585   2623098   2622681  
  6750.000000   2622335   2622041   2621768   2621485   2621181  
  6740.000000   2620859   2620535   2620232   2619970   2619764  
  6730.000000   2619621   2619544   2619523   2619540   2619557  
  6720.000000   2619530   2619413   2619182   2618849   2618459  
  6710.000000   2618090   2617817   2617688   2617700   2617797  
  6700.000000   2617883   2617859   2617645   2617212   2616573  
  6690.000000   2615783   2614900   2613983   2613064   2612164  
  6680.000000   2611283   2610425   2609583   2608758   2607934  
  6670.000000   2607099   2606231   2605321   2604362   2603365  
  6660.000000   2602339   2601295   2600232   2599147   2598030  
  6650.000000   2596886   2595724   2594566   2593418   2592276  
  6640.000000   2591109   2589878   2588541   2587092   2585553  
  6630.000000   2583984   2582449   2581003   2579653   2578367  
  6620.000000   2577080   2575724   2574251   2572655   2570965  
  6610.000000   2569232   2567500   2565801   2564136   2562499  
  6600.000000   2560877   2559268   2557676   2556103   2554541  
  6590.000000   2552963   2551333   2549617   2547799   2545889  
  6580.000000   2543924   2541949   2540009   2538132   2536329  
  6570.000000   2534598   2532933   2531331   2529789   2528305  
  6560.000000   2526867   2525453   2524039   2522604   2521146  
  6550.000000   2519675   2518215   2516785   2515396   2514035  
  6540.000000   2512683   2511316   2509923   2508506   2507083  
  6530.000000   2505675   2504295   2502947   2501625   2500323  
  6520.000000   2499039   2497778   2496545   2495336   2494133  
  6510.000000   2492906   2491622   2490259   2488822   2487341  
  6500.000000   2485862   2484432   2483081   2481819   2480633  
  6490.000000   2479502   2478408   2477339   2476287   2475238  
  6480.000000   2474166   2473029   2471790   2470426   2468949  
  6470.000000   2467406   2465867   2464402   2463060   2461851  
  6460.000000   2460750   2459712   2458695   2457674   2456646  
  6450.000000   2455624   2454624   2453647   2452682   2451706  
  6440.000000   2450706   2449677   2448640   2447620   2446648  
  6430.000000   2445739   2444895   2444098   2443322   2442542  
  6420.000000   2441740   2440905   2440042   2439160   2438280  
  6410.000000   2437428   2436640   2435945   2435366   2434904  
  6400.000000   2434541   2434243   2433972   2433701   2433428  
  6390.000000   2433167   2432941   2432762   2432624   2432490  
  6380.000000   2432311   2432044   2431672   2431217   2430733  
  6370.000000   2430290   2429942   2429708   2429563   2429445  
  6360.000000   2429277   2428993   2428555   2427964   2427253  
  6350.000000   2426473   2425674   2424900   2424174   2423503  
  6340.000000   2422874   2422265   2421645   2420988   2420267  
  6330.000000   2419478   2418620   2417713   2416775   2415831  
  6320.000000   2414893   2413973   2413064   2412165   2411262  
  6310.000000   2410345   2409394   2408391   2407308   2406131  
  6300.000000   2404849   2403480   2402051   2400607   2399181  
  6290.000000   2397800   2396457   2395136   2393807   2392449  
  6280.000000   2391052   2389623   2388166   2386684   2385157  
  6270.000000   2383559   2381856   2380036   2378110   2376123  
  6260.000000   2374132   2372196   2370341   2368566   2366831  
  6250.000000   2365089   2363295   2361432   2359509   2357563  
  6240.000000   2355633   2353752   2351931   2350162   2348422  
  6230.000000   2346681   2344918   2343117   2341276   2339402  
  6220.000000   2337511   2335625   2333768   2331963   2330225  
  6210.000000   2328558   2326954   2325391   2323847   2322299  
  6200.000000   2320735   2319154   2317560   2315960   2314359  
  6190.000000   2312761   2311168   2309587   2308033   2306522  
  6180.000000   2305066   2303664   2302304   2300960   2299605  
  6170.000000   2298223   2296815   2295401   2294013   2292677  
  6160.000000   2291408   2290197   2289018   2287834   2286611  
  6150.000000   2285326   2283975   2282566   2281121   2279660  
  6140.000000   2278206   2276773   2275373   2274011   2272688  
  6130.000000   2271398   2270134   2268889   2267664   2266464  
  6120.000000   2265303   2264196   2263152   2262168   2261232  
  6110.000000   2260319   2259412   2258495   2257576   2256666  
  6100.000000   2255791   2254965   2254203   2253500   2252856  
  6090.000000   2252259   2251709   2251199   2250736   2250314  
  6080.000000   2249933   2249588   2249283   2249024   2248830  
  6070.000000   2248711   2248680   2248722   2248822   2248945  
  6060.000000   2249073   2249192   2249322   2249485   2249731  
  6050.000000   2250082   2250568   2251183   2251932   2252796  
  6040.000000   2253784   2254889   2256126   2257485   2258967  
  6030.000000   2260546   2262216   2263957   2265779   2267681  
  6020.000000   2269684   2271775   2273950   2276169   2278411  
  6010.000000   2280644   2282877   2285120   2287422   2289814  
  6000.000000   2292338   2294998   2297802   2300727   2303765  
  5990.000000   2306893   2310109   2313395   2316751   2320155  
  5980.000000   2323610   2327107   2330666   2334303   2338050  
  5970.000000   2341918   2345915   2350014   2354192   2358407  
  5960.000000   2362645   2366890   2371162   2375468   2379833  
  5950.000000   2384252   2388724   2393226   2397745   2402269  
  5940.000000   2406804   2411364   2415973   2420652   2425419  
  5930.000000   2430282   2435235   2440260   2445319   2450364  
  5920.000000   2455335   2460170   2464812   2469228   2473404  
  5910.000000   2477352   2481096   2484672   2488109   2491441  
  5900.000000   2494690   2497896   2501090   2504321   2507613  
  5890.000000   2510988   2514427   2517899   2521345   2524724  
  5880.000000   2527997   2531157   2534208   2537165   2540034  
  5870.000000   2542812   2545485   2548040   2550476   2552812  
  5860.000000   2555082   2557331   2559594   2561895   2564241  
  5850.000000   2566630   2569057   2571525   2574042   2576616  
  5840.000000   2579250   2581937   2584657   2587390   2590117  
  5830.000000   2592828   2595519   2598188   2600830   2603432  
  5820.000000   2605982   2608473   2610912   2613319   2615723  
  5810.000000   2618152   2620611   2623098   2625578   2628034  
  5800.000000   2630428   2632778   2635076   2637365   2639634  
  5790.000000   2641889   2644065   2646109   2647901   2649347  
  5780.000000   2650315   2650716   2650453   2649496   2647844  
  5770.000000   2645583   2642835   2639788   2636618   2633501  
  5760.000000   2630541   2627802   2625276   2622951   2620790  
  5750.000000   2618796   2616969   2615334   2613894   2612635  
  5740.000000   2611521   2610497   2609517   2608542   2607562  
  5730.000000   2606568   2605572   2604568   2603561   2602540  
  5720.000000   2601518   2600504   2599525   2598597   2597734  
  5710.000000   2596926   2596158   2595412   2594680   2593972  
  5700.000000   2593309   2592718   2592207   2591770   2591377  
  5690.000000   2591000   2590606   2590191   2589756   2589321  
  5680.000000   2588881   2588423   2587893   2587231   2586356  
  5670.000000   2585211   2583747   2581954   2579835   2577429  
  5660.000000   2574782   2571967   2569061   2566150   2563302  
  5650.000000   2560571   2557969   2555489   2553095   2550759  
  5640.000000   2548462   2546211   2544029   2541945   2539980  
  5630.000000   2538131   2536384   2534707   2533080   2531482  
  5620.000000   2529917   2528386   2526902   2525462   2524070  
  5610.000000   2522723   2521431   2520206   2519067   2518016  
  5600.000000   2517047   2516129   2515222   2514289   2513310  
  5590.000000   2512285   2511237   2510190   2509164   2508156  
  5580.000000   2507146   2506107   2505018   2503874   2502690  
  5570.000000   2501490   2500291   2499101   2497909   2496697  
  5560.000000   2495445   2494147   2492810   2491455   2490103  
  5550.000000   2488773   2487469   2486193   2484940   2483711  
  5540.000000   2482508   2481333   2480187   2479059   2477937  
  5530.000000   2476809   2475668   2474518   2473369   2472235  
  5520.000000   2471119   2470024   2468941   2467866   2466797  
  5510.000000   2465740   2464696   2463664   2462621   2461539  
  5500.000000   2460379   2459117   2457746   2456294   2454796  
  5490.000000   2453296   2451814   2450349   2448871   2447349  
  5480.000000   2445751   2444072   2442322   2440532   2438723  
  5470.000000   2436912   2435092   2433257   2431393   2429501  
  5460.000000   2427584   2425657   2423721   2421774   2419803  
  5450.000000   2417793   2415741   2413654   2411553   2409462  
  5440.000000   2407399   2405369   2403374   2401409   2399483  
  5430.000000   2397606   2395802   2394076   2392430   2390839  
  5420.000000   2389289   2387763   2386281   2384870   2383586  
  5410.000000   2382459   2381510   2380709   2380026   2379410  
  5400.000000   2378851   2378346   2377940   2377662   2377556  
  5390.000000   2377616   2377842   2378193   2378668   2379256  
  5380.000000   2379995   2380899   2382008   2383305   2384791  
  5370.000000   2386414   2388169   2390020   2391998   2394094  
  5360.000000   2396360   2398790   2401440   2404305   2407463  
  5350.000000   2410931   2414807   2419099   2423878   2429098  
  5340.000000   2434784   2440861   2447366   2454250   2461591  
  5330.000000   2469356   2477626   2486347   2495579   2505260  
  5320.000000   2515477   2526205   2537579   2549598   2562401  
  5310.000000   2575956   2590356   2605523   2621521   2638270  
  5300.000000   2655855   2674228   2693508   2713672   2734834  
  5290.000000   2756946   2780055   2804025   2828803   2854195  
  5280.000000   2880137   2906509   2933367   2960738   2988772  
  5270.000000   3017517   3047011   3077128   3107680   3138409  
  5260.000000   3169096   3199612   3229927   3260109   3290204  
  5250.000000   3320249   3350125   3379697   3408698   3436989  
  5240.000000   3464405   3491005   3516800   3541979   3566569  
  5230.000000   3590692   3614244   3637207   3659377   3680709  
  5220.000000   3701047   3720459   3738910   3756582   3773503  
  5210.000000   3789858   3805612   3820839   3835386   3849240  
  5200.000000   3862225   3874378   3885615   3896066   3905711  
  5190.000000   3914680   3922918   3930495   3937314   3943434  
  5180.000000   3948788   3953478   3957477   3960895   3963693  
  5170.000000   3965947   3967601   3968731   3969303   3969416  
  5160.000000   3969052   3968288   3967069   3965427   3963289  
  5150.000000   3960693   3957610   3954128   3950259   3946094  
  5140.000000   3941631   3936923   3931944   3926734   3921283  
  5130.000000   3915650   3909841   3903907   3897835   3891646  
  5120.000000   3885315   3878862   3872286   3865629   3858908  
  5110.000000   3852155   3845369   3838555   3831699   3824815  
  5100.000000   3817918   3811055   3804261   3797575   3791004  
  5090.000000   3784542   3778161   3771839   3765553   3759303  
  5080.000000   3753088   3746914   3740769   3734641   3728499  
  5070.000000   3722322   3716090   3709802   3703454   3697055  
  5060.000000   3690596   3684075   3677471   3670782   3664000  
  5050.000000   3657142   3650219   3643255   3636256   3629230  
  5040.000000   3622171   3615083   3607968   3600841   3593720  
  5030.000000   3586619   3579543   3572485   3565432   3558366  
  5020.000000   3551287   3544198   3537132   3530115   3523192  
  5010.000000   3516385   3509728   3503227   3496908   3490772  
  5000.000000   3484852   3479150   3473696   3468477   3463509  
  4990.000000   3458761   3454245   3449931   3445844   3441966  
  4980.000000   3438333   3434929   3431792   3428898   3426283  
  4970.000000   3423923   3421861   3420075   3418610   3417442  
  4960.000000   3416612   3416092   3415928   3416097   3416656  
  4950.000000   3417590   3418958   3420732   3422954   3425575  
  4940.000000   3428620   3432029   3435827   3439961   3444466  
  4930.000000   3449296   3454496   3460031   3465951   3472234  
  4920.000000   3478933   3486026   3493554   3501481   3509821  
  4910.000000   3518523   3527582   3536944   3546600   3556501  
  4900.000000   3566629   3576939   3587404   3597986   3608654  
  4890.000000   3619380   3630124   3640856   3651511   3662041  
  4880.000000   3672353   3682390   3692056   3701315   3710081  
  4870.000000   3718345   3726034   3733152   3739641   3745529  
  4860.000000   3750784   3755469   3759581   3763199   3766330  
  4850.000000   3769050   3771359   3773331   3774974   3776362  
  4840.000000   3777514   3778497   3779317   3780022   3780607  
  4830.000000   3781108   3781534   3781936   3782345   3782816  
  4820.000000   3783375   3784046   3784824   3785698   3786644  
  4810.000000   3787644   3788681   3789745   3790830   3791924  
  4800.000000   3793024   3794121   3795221   3796331   3797478  
  4790.000000   3798682   3799968   3801341   3802798   3804315  
  4780.000000   3805865   3807419   3808958   3810475   3811973  
  4770.000000   3813462   3814947   3816435   3817922   3819404  
  4760.000000   3820868   3822304   3823692   3825023   3826274  
  4750.000000   3827435   3828491   3829440   3830277   3831010  
  4740.000000   3831637   3832166   3832592   3832920   3833152  
  4730.000000   3833301   3833383   3833422   3833435   3833438  
  4720.000000   3833431   3833407   3833354   3833261   3833137  
  4710.000000   3832993   3832866   3832789   3832807   3832947  
  4700.000000   3833239   3833693   3834330   3835158   3836199  
  4690.000000   3837466   3838977   3840727   3842707   3844875  
  4680.000000   3847187   3849570   3851970   3854315   3856570  
  4670.000000   3858693   3860689   3862556   3864339   3866073  
  4660.000000   3867827   3869658   3871635   3873806   3876210  
  4650.000000   3878858   3881743   3884831   3888080   3891442  
  4640.000000   3894876   3898353   3901859   3905394   3908958  
  4630.000000   3912555   3916168   3919771   3923316   3926755  
  4620.000000   3930020   3933065   3935833   3938303   3940444  
  4610.000000   3942265   3943763   3944981   3945940   3946705  
  4600.000000   3947304   3947802   3948211   3948567   3948848  
  4590.000000   3949055   3949132   3949057   3948767   3948244  
  4580.000000   3947447   3946385   3945054   3943496   3941737  
  4570.000000   3939831   3937806   3935705   3933538   3931329  
  4560.000000   3929075   3926795   3924490   3922183   3919878  
  4550.000000   3917587   3915304   3913018   3910710   3908362  
  4540.000000   3905968   3903531   3901078   3898639   3896259  
  4530.000000   3893966   3891793   3889740   3887821   3886008  
  4520.000000   3884314   3882711   3881229   3879856   3878651  
  4510.000000   3877619   3876845   3876348   3876230   3876505  
  4500.000000   3877275   3878530   3880355   3882717   3885697  
  4490.000000   3889264   3893517   3898446   3904166   3910667  
  4480.000000   3918047   3926260   3935357   3945250   3955949  
  4470.000000   3967340   3979414   3992053   4005247   4018888  
  4460.000000   4032973   4047417   4062223   4077321   4092710  
  4450.000000   4108323   4124142   4140104   4156185   4172343  
  4440.000000   4188561   4204822   4221103   4237392   4253639  
  4430.000000   4269817   4285846   4301696   4317273   4332559  
  4420.000000   4347460   4361964   4375973   4389473   4402355  
  4410.000000   4414601   4426097   4436832   4446715   4455768  
  4400.000000   4463954   4471354   4478001   4484033   4489530  
  4390.000000   4494651   4499482   4504160   4508743   4513331  
  4380.000000   4517951   4522673   4527515   4532532   4537745  
  4370.000000   4543200   4548904   4554871   4561073   4567479  
  4360.000000   4574023   4580651   4587287   4593900   4600418  
  4350.000000   4606842   4613097   4619204   4625088   4630798  
  4340.000000   4636281   4641591   4646638   4651352   4655452  
  4330.000000   4658611   4660330   4660162   4657705   4652831  
  4320.000000   4645672   4636711   4626633   4616268   4606350  
  4310.000000   4597476   4589946   4583848   4579041   4575314  
  4300.000000   4572424   4570183   4568475   4567223   4566407  
  4290.000000   4565973   4565912   4566162   4566735   4567603  
  4280.000000   4568805   4570344   4572231   4574442   4576921  
  4270.000000   4579606   4582392   4585175   4587787   4590037  
  4260.000000   4591652   4592350   4591835   4589905   4586469  
  4250.000000   4581624   4575612   4568832   4561702   4554662  
  4240.000000   4548023   4542015   4536692   4532036   4527921  
  4230.000000   4524218   4520772   4517462   4514188   4510878  
  4220.000000   4507509   4504067   4500609   4497178   4493889  
  4210.000000   4490811   4488054   4485654   4483661   4482045  
  4200.000000   4480792   4479830   4479124   4478603   4478253  
  4190.000000   4478027   4477942   4477975   4478168   4478502  
  4180.000000   4479027   4479724   4480639   4481751   4483109  
  4170.000000   4484704   4486601   4488808   4491406   4494406  
  4160.000000   4497880   4501818   4506268   4511189   4516605  
  4150.000000   4522458   4528767   4535472   4542607   4550122  
  4140.000000   4558069   4566412   4575211   4584427   4594110  
  4130.000000   4604202   4614733   4625639   4636950   4648627  
  4120.000000   4660725   4673240   4686250   4699763   4713844  
  4110.000000   4728483   4743704   4759452   4775702   4792353  
  4100.000000   4809341   4826553   4843922   4861373   4878883  
  4090.000000   4896433   4914037   4931704   4949436   4967236  
  4080.000000   4985070   5002931   5020766   5038568   5056261  
  4070.000000   5073817   5091119   5108114   5124666   5140741  
  4060.000000   5156234   5171163   5185460   5199175   5212246  
  4050.000000   5224735   5236587   5247893   5258616   5268853  
  4040.000000   5278535   5287711   5296252   5304165   5311321  
  4030.000000   5317770   5323444   5328441   5332727   5336374  
  4020.000000   5339296   5341539   5343061   5343929   5344100  
  4010.000000   5343714   5342852   5341543   5339587   5337035  
  4000.000000   5334177  
##END= 
