##TITLE= Sample 008 By ssteindl date Montag, November 19 2018
##JCAMP-DX= 4.24
##DATA TYPE= INFRARED SPECTRUM
##ORIGIN= Exported PE Spectrum Data File
##OWNER= Sandra Steindl
##DATE= 18/11/19
##TIME= 17:28:14.00
##SPECTROMETER/DATA SYSTEM= PERKIN-ELMER Frontier FT-IR/NIR IR
##INSTRUMENT PARAMETERS=
  APODIZATION=stark
  DETECTOR=INGAAS
##RESOLUTION= 16.000000
##DELTAX= -2.000000
##XUNITS= 1/CM
##YUNITS= A
##XFACTOR= 1.00
##YFACTOR= 0.00000011920928955078
##FIRSTX= 10000.00
##LASTX= 4000.00
##NPOINTS= 3001
##FIRSTY= 0.203056
##MAXY= 0.682014
##MINY= 0.169094
##XYDATA= (X++(Y..Y))
 10000.000000   1703358   1707361   1710840   1712883   1712888  
  9990.000000   1710791   1706900   1701743   1696006   1690291  
  9980.000000   1684960   1680066   1675489   1671114   1666925  
  9970.000000   1663160   1660164   1658378   1658112   1659550  
  9960.000000   1662660   1667272   1673056   1679537   1686047  
  9950.000000   1691745   1695730   1697254   1696025   1692359  
  9940.000000   1687230   1681958   1677796   1675431   1674695  
  9930.000000   1674611   1673767   1670929   1665579   1658200  
  9920.000000   1650081   1642848   1637766   1635320   1635067  
  9910.000000   1635980   1636956   1637318   1637050   1636657  
  9900.000000   1636828   1637988   1640095   1642616   1644830  
  9890.000000   1646098   1646168   1645151   1643433   1641409  
  9880.000000   1639345   1637376   1635594   1634230   1633619  
  9870.000000   1634115   1635808   1638361   1640974   1642615  
  9860.000000   1642400   1639961   1635653   1630418   1625463  
  9850.000000   1621737   1619646   1618930   1618927   1618917  
  9840.000000   1618495   1617706   1616950   1616734   1617362  
  9830.000000   1618829   1620829   1622995   1625079   1627077  
  9820.000000   1629144   1631451   1633956   1636371   1638196  
  9810.000000   1638946   1638379   1636610   1634096   1631366  
  9800.000000   1628789   1626333   1623585   1619967   1615040  
  9790.000000   1608830   1601912   1595334   1590280   1587738  
  9780.000000   1588127   1591201   1596064   1601452   1606095  
  9770.000000   1609037   1609925   1608957   1606832   1604386  
  9760.000000   1602389   1601245   1600981   1601259   1601630  
  9750.000000   1601721   1601445   1601013   1600815   1601222  
  9740.000000   1602361   1604054   1605865   1607275   1607906  
  9730.000000   1607656   1606741   1605621   1604803   1604715  
  9720.000000   1605536   1607245   1609635   1612444   1615373  
  9710.000000   1618119   1620315   1621554   1621440   1619726  
  9700.000000   1616443   1611978   1607010   1602340   1598629  
  9690.000000   1596225   1595027   1594650   1594518   1594197  
  9680.000000   1593429   1592279   1590954   1589715   1588703  
  9670.000000   1587857   1586978   1585738   1583878   1581173  
  9660.000000   1577573   1573112   1567980   1562485   1557079  
  9650.000000   1552335   1548857   1547183   1547591   1550035  
  9640.000000   1554065   1558959   1563848   1567954   1570755  
  9630.000000   1572060   1572040   1571052   1569575   1567956  
  9620.000000   1566416   1564924   1563329   1561376   1558892  
  9610.000000   1555845   1552429   1549055   1546214   1544406  
  9600.000000   1543889   1544695   1546508   1548883   1551329  
  9590.000000   1553559   1555510   1557345   1559257   1561297  
  9580.000000   1563249   1564607   1564777   1563218   1559729  
  9570.000000   1554452   1547906   1540770   1533720   1527271  
  9560.000000   1521730   1517267   1513994   1512049   1511555  
  9550.000000   1512529   1514762   1517790   1520973   1523682  
  9540.000000   1525505   1526386   1526637   1526789   1527404  
  9530.000000   1528846   1531194   1534227   1537540   1540636  
  9520.000000   1543061   1544413   1544425   1542919   1539903  
  9510.000000   1535557   1530288   1524679   1519380   1515009  
  9500.000000   1511972   1510472   1510469   1511863   1514492  
  9490.000000   1518246   1522913   1528133   1533302   1537632  
  9480.000000   1540382   1541032   1539579   1536487   1532641  
  9470.000000   1528985   1526224   1524600   1523855   1523494  
  9460.000000   1523048   1522399   1521780   1521673   1522459  
  9450.000000   1524187   1526425   1528379   1529194   1528273  
  9440.000000   1525582   1521663   1517487   1514089   1512205  
  9430.000000   1512094   1513484   1515809   1518383   1520660  
  9420.000000   1522305   1523222   1523453   1523100   1522223  
  9410.000000   1520852   1518993   1516676   1513990   1511051  
  9400.000000   1508037   1505132   1502531   1500389   1498730  
  9390.000000   1497459   1496299   1494950   1493144   1490831  
  9380.000000   1488208   1485735   1484007   1483520   1484464  
  9370.000000   1486523   1488965   1490790   1491148   1489533  
  9360.000000   1486022   1481164   1475884   1471148   1467762  
  9350.000000   1466142   1466319   1467998   1470718   1473999  
  9340.000000   1477397   1480602   1483397   1485758   1487786  
  9330.000000   1489740   1491889   1494436   1497374   1500452  
  9320.000000   1503209   1505075   1505561   1504404   1501664  
  9310.000000   1497669   1492892   1487776   1482629   1477591  
  9300.000000   1472683   1467936   1463460   1459532   1456484  
  9290.000000   1454663   1454224   1455143   1457174   1459967  
  9280.000000   1463150   1466354   1469297   1471686   1473322  
  9270.000000   1474002   1473673   1472365   1470310   1467858  
  9260.000000   1465454   1463521   1462344   1462062   1462621  
  9250.000000   1463900   1465683   1467776   1469937   1471935  
  9240.000000   1473489   1474329   1474243   1473135   1471119  
  9230.000000   1468460   1465563   1462796   1460444   1458603  
  9220.000000   1457223   1456143   1455174   1454225   1453320  
  9210.000000   1452647   1452407   1452809   1453931   1455759  
  9200.000000   1458145   1460838   1463541   1465910   1467679  
  9190.000000   1468586   1468491   1467276   1464958   1461645  
  9180.000000   1457592   1453167   1448837   1445157   1442679  
  9170.000000   1441885   1442998   1445984   1450457   1455799  
  9160.000000   1461198   1465877   1469244   1471018   1471277  
  9150.000000   1470340   1468706   1466832   1465092   1463632  
  9140.000000   1462423   1461310   1460115   1458746   1457183  
  9130.000000   1455578   1454125   1453109   1452717   1453083  
  9120.000000   1454171   1455814   1457703   1459457   1460729  
  9110.000000   1461245   1460879   1459620   1457590   1454960  
  9100.000000   1451948   1448749   1445567   1442610   1440095  
  9090.000000   1438226   1437123   1436822   1437220   1438130  
  9080.000000   1439293   1440480   1441541   1442402   1443062  
  9070.000000   1443501   1443703   1443588   1443116   1442269  
  9060.000000   1441144   1439930   1438869   1438169   1437923  
  9050.000000   1438112   1438641   1439404   1440335   1441423  
  9040.000000   1442675   1444033   1445299   1446170   1446318  
  9030.000000   1445546   1443910   1441770   1439740   1438462  
  9020.000000   1438389   1439586   1441704   1444080   1445946  
  9010.000000   1446727   1446183   1444535   1442287   1440139  
  9000.000000   1438714   1438446   1439472   1441614   1444470  
  8990.000000   1447426   1449804   1450895   1450162   1447322  
  8980.000000   1442519   1436331   1429736   1423899   1419904  
  8970.000000   1418467   1419734   1423287   1428264   1433659  
  8960.000000   1438580   1442487   1445255   1447084   1448329  
  8950.000000   1449294   1450159   1450917   1451503   1451825  
  8940.000000   1451909   1451862   1451836   1451971   1452281  
  8930.000000   1452707   1453064   1453204   1453019   1452531  
  8920.000000   1451833   1451059   1450303   1449584   1448843  
  8910.000000   1447984   1446954   1445768   1444544   1443445  
  8900.000000   1442642   1442219   1442143   1442276   1442442  
  8890.000000   1442511   1442468   1442434   1442630   1443289  
  8880.000000   1444541   1446359   1448529   1450722   1452587  
  8870.000000   1453866   1454486   1454525   1454185   1453660  
  8860.000000   1453093   1452483   1451732   1450693   1449281  
  8850.000000   1447530   1445622   1443842   1442524   1441943  
  8840.000000   1442251   1443426   1445309   1447601   1449972  
  8830.000000   1452088   1453745   1454872   1455604   1456221  
  8820.000000   1457114   1458655   1461088   1464439   1468492  
  8810.000000   1472852   1477050   1480702   1483593   1485735  
  8800.000000   1487285   1488464   1489415   1490157   1490585  
  8790.000000   1490550   1489972   1488906   1487551   1486181  
  8780.000000   1485031   1484223   1483714   1483361   1482991  
  8770.000000   1482524   1482030   1481712   1481831   1482590  
  8760.000000   1484059   1486140   1488616   1491222   1493751  
  8750.000000   1496075   1498169   1500047   1501741   1503248  
  8740.000000   1504555   1505639   1506524   1507270   1507976  
  8730.000000   1508734   1509585   1510520   1511468   1512372  
  8720.000000   1513195   1513980   1514811   1515788   1516964  
  8710.000000   1518296   1519655   1520827   1521604   1521826  
  8700.000000   1521464   1520628   1519569   1518620   1518137  
  8690.000000   1518408   1519582   1521638   1524386   1527504  
  8680.000000   1530638   1533464   1535810   1537641   1539087  
  8670.000000   1540321   1541517   1542754   1544022   1545258  
  8660.000000   1546424   1547582   1548907   1550670   1553111  
  8650.000000   1556344   1560230   1564397   1568304   1571394  
  8640.000000   1573260   1573765   1573104   1571723   1570198  
  8630.000000   1569058   1568671   1569171   1570483   1572374  
  8620.000000   1574551   1576734   1578720   1580407   1581793  
  8610.000000   1582955   1584028   1585180   1586594   1588415  
  8600.000000   1590742   1593574   1596839   1600387   1604036  
  8590.000000   1607614   1610979   1614046   1616762   1619106  
  8580.000000   1621082   1622705   1624011   1625056   1625921  
  8570.000000   1626695   1627440   1628182   1628887   1629505  
  8560.000000   1629982   1630331   1630631   1631033   1631706  
  8550.000000   1632772   1634239   1635992   1637800   1639417  
  8540.000000   1640652   1641479   1642044   1642637   1643579  
  8530.000000   1645112   1647312   1650028   1652924   1655562  
  8520.000000   1657544   1658600   1658662   1657865   1656518  
  8510.000000   1655012   1653735   1653002   1653008   1653807  
  8500.000000   1655308   1657312   1659544   1661729   1663624  
  8490.000000   1665102   1666173   1666982   1667768   1668750  
  8480.000000   1670081   1671740   1673573   1675299   1676641  
  8470.000000   1677425   1677667   1677590   1677549   1677942  
  8460.000000   1679069   1681035   1683701   1686730   1689688  
  8450.000000   1692170   1693903   1694822   1695069   1694946  
  8440.000000   1694806   1694973   1695659   1696933   1698709  
  8430.000000   1700792   1702938   1704919   1706551   1707750  
  8420.000000   1708510   1708918   1709101   1709202   1709342  
  8410.000000   1709592   1709965   1710418   1710866   1711225  
  8400.000000   1711432   1711491   1711460   1711464   1711629  
  8390.000000   1712071   1712816   1713809   1714894   1715884  
  8380.000000   1716598   1716932   1716886   1716561   1716117  
  8370.000000   1715701   1715392   1715163   1714909   1714486  
  8360.000000   1713789   1712806   1711639   1710489   1709581  
  8350.000000   1709108   1709158   1709716   1710668   1711857  
  8340.000000   1713120   1714330   1715402   1716286   1716947  
  8330.000000   1717357   1717505   1717403   1717101   1716674  
  8320.000000   1716204   1715750   1715317   1714866   1714315  
  8310.000000   1713613   1712747   1711787   1710849   1710069  
  8300.000000   1709530   1709236   1709080   1708885   1708464  
  8290.000000   1707682   1706514   1705044   1703454   1701957  
  8280.000000   1700743   1699918   1699484   1699352   1699380  
  8270.000000   1699426   1699387   1699231   1698997   1698778  
  8260.000000   1698674   1698748   1698996   1699337   1699627  
  8250.000000   1699697   1699400   1698663   1697512   1696078  
  8240.000000   1694551   1693135   1691981   1691154   1690610  
  8230.000000   1690214   1689777   1689115   1688095   1686686  
  8220.000000   1684952   1683046   1681157   1679478   1678141  
  8210.000000   1677199   1676595   1676199   1675842   1675370  
  8200.000000   1674690   1673790   1672725   1671590   1670470  
  8190.000000   1669402   1668360   1667273   1666071   1664723  
  8180.000000   1663261   1661774   1660358   1659092   1657974  
  8170.000000   1656945   1655895   1654728   1653400   1651943  
  8160.000000   1650439   1648979   1647606   1646291   1644944  
  8150.000000   1643452   1641750   1639856   1637885   1636003  
  8140.000000   1634366   1633053   1632044   1631235   1630493  
  8130.000000   1629717   1628882   1628033   1627243   1626563  
  8120.000000   1625972   1625383   1624671   1623742   1622589  
  8110.000000   1621297   1620020   1618900   1618007   1617291  
  8100.000000   1616593   1615700   1614431   1612702   1610575  
  8090.000000   1608225   1605896   1603806   1602100   1600813  
  8080.000000   1599890   1599229   1598728   1598321   1597984  
  8070.000000   1597730   1597581   1597547   1597609   1597718  
  8060.000000   1597806   1597786   1597583   1597128   1596393  
  8050.000000   1595381   1594143   1592764   1591351   1590006  
  8040.000000   1588802   1587770   1586890   1586111   1585372  
  8030.000000   1584627   1583859   1583080   1582319   1581607  
  8020.000000   1580960   1580379   1579860   1579401   1579017  
  8010.000000   1578728   1578554   1578488   1578494   1578498  
  8000.000000   1578411   1578152   1577679   1576998   1576174  
  7990.000000   1575302   1574489   1573816   1573316   1572967  
  7980.000000   1572697   1572412   1572024   1571483   1570798  
  7970.000000   1570035   1569299   1568699   1568304   1568114  
  7960.000000   1568047   1567963   1567706   1567158   1566296  
  7950.000000   1565197   1564030   1562996   1562262   1561897  
  7940.000000   1561856   1561980   1562067   1561924   1561447  
  7930.000000   1560640   1559624   1558582   1557716   1557182  
  7920.000000   1557062   1557349   1557966   1558786   1559674  
  7910.000000   1560507   1561203   1561727   1562091   1562340  
  7900.000000   1562538   1562736   1562961   1563190   1563368  
  7890.000000   1563414   1563259   1562868   1562264   1561530  
  7880.000000   1560780   1560137   1559688   1559473   1559471  
  7870.000000   1559622   1559845   1560070   1560245   1560355  
  7860.000000   1560404   1560418   1560425   1560457   1560535  
  7850.000000   1560678   1560890   1561163   1561472   1561769  
  7840.000000   1561998   1562086   1561968   1561587   1560918  
  7830.000000   1559974   1558817   1557564   1556362   1555393  
  7820.000000   1554801   1554692   1555066   1555836   1556820  
  7810.000000   1557797   1558551   1558922   1558844   1558323  
  7800.000000   1557435   1556266   1554903   1553407   1551836  
  7790.000000   1550263   1548795   1547573   1546729   1546366  
  7780.000000   1546489   1547018   1547777   1548559   1549173  
  7770.000000   1549496   1549495   1549210   1548731   1548142  
  7760.000000   1547509   1546854   1546179   1545473   1544736  
  7750.000000   1543982   1543227   1542489   1541769   1541057  
  7740.000000   1540332   1539584   1538808   1538013   1537215  
  7730.000000   1536427   1535667   1534943   1534273   1533671  
  7720.000000   1533151   1532713   1532340   1531994   1531636  
  7710.000000   1531245   1530836   1530462   1530207   1530138  
  7700.000000   1530286   1530602   1530973   1531233   1531229  
  7690.000000   1530863   1530139   1529164   1528126   1527238  
  7680.000000   1526674   1526521   1526755   1527257   1527845  
  7670.000000   1528331   1528572   1528497   1528128   1527558  
  7660.000000   1526926   1526369   1525985   1525801   1525787  
  7650.000000   1525858   1525929   1525942   1525889   1525818  
  7640.000000   1525801   1525907   1526162   1526544   1526986  
  7630.000000   1527404   1527739   1527965   1528108   1528204  
  7620.000000   1528290   1528358   1528372   1528268   1528004  
  7610.000000   1527584   1527074   1526594   1526283   1526252  
  7600.000000   1526551   1527161   1528000   1528954   1529914  
  7590.000000   1530788   1531529   1532109   1532535   1532810  
  7580.000000   1532961   1533014   1533019   1533040   1533161  
  7570.000000   1533469   1534051   1534974   1536268   1537918  
  7560.000000   1539856   1541962   1544081   1546036   1547673  
  7550.000000   1548875   1549617   1549944   1549991   1549923  
  7540.000000   1549917   1550113   1550604   1551420   1552542  
  7530.000000   1553912   1555448   1557059   1558657   1560164  
  7520.000000   1561537   1562762   1563885   1564980   1566151  
  7510.000000   1567477   1569005   1570718   1572562   1574457  
  7500.000000   1576344   1578192   1580022   1581870   1583775  
  7490.000000   1585741   1587745   1589738   1591684   1593570  
  7480.000000   1595425   1597296   1599227   1601230   1603280  
  7470.000000   1605324   1607320   1609257   1611177   1613150  
  7460.000000   1615250   1617497   1619849   1622193   1624402  
  7450.000000   1626374   1628091   1629622   1631121   1632766  
  7440.000000   1634716   1637057   1639791   1642846   1646113  
  7430.000000   1649474   1652826   1656085   1659197   1662123  
  7420.000000   1664850   1667378   1669741   1671982   1674162  
  7410.000000   1676325   1678503   1680698   1682899   1685100  
  7400.000000   1687308   1689559   1691893   1694351   1696944  
  7390.000000   1699651   1702420   1705190   1707910   1710554  
  7380.000000   1713127   1715648   1718141   1720612   1723058  
  7370.000000   1725459   1727806   1730099   1732358   1734609  
  7360.000000   1736880   1739188   1741534   1743915   1746323  
  7350.000000   1748756   1751212   1753686   1756159   1758605  
  7340.000000   1760987   1763287   1765505   1767675   1769849  
  7330.000000   1772086   1774422   1776860   1779360   1781854  
  7320.000000   1784268   1786547   1788663   1790631   1792484  
  7310.000000   1794280   1796061   1797871   1799724   1801631  
  7300.000000   1803585   1805580   1807593   1809594   1811533  
  7290.000000   1813350   1814969   1816324   1817365   1818082  
  7280.000000   1818516   1818762   1818969   1819308   1819942  
  7270.000000   1820982   1822460   1824316   1826408   1828552  
  7260.000000   1830582   1832387   1833958   1835363   1836744  
  7250.000000   1838232   1839931   1841850   1843933   1846051  
  7240.000000   1848094   1849983   1851739   1853447   1855256  
  7230.000000   1857293   1859643   1862295   1865174   1868143  
  7220.000000   1871088   1873921   1876652   1879340   1882108  
  7210.000000   1885066   1888302   1891825   1895603   1899545  
  7200.000000   1903578   1907636   1911720   1915850   1920081  
  7190.000000   1924432   1928911   1933463   1938035   1942552  
  7180.000000   1946993   1951357   1955702   1960080   1964553  
  7170.000000   1969134   1973822   1978580   1983390   1988233  
  7160.000000   1993132   1998105   2003185   2008368   2013655  
  7150.000000   2019019   2024470   2030015   2035714   2041605  
  7140.000000   2047732   2054071   2060576   2067145   2073704  
  7130.000000   2080193   2086635   2093085   2099655   2106434  
  7120.000000   2113495   2120830   2128401   2136101   2143831  
  7110.000000   2151482   2158991   2166314   2173466   2180486  
  7100.000000   2187474   2194545   2201833   2209432   2217390  
  7090.000000   2225665   2234147   2242680   2251115   2259351  
  7080.000000   2267368   2275214   2282985   2290771   2298631  
  7070.000000   2306563   2314531   2322480   2330379   2338224  
  7060.000000   2346040   2353854   2361680   2369506   2377300  
  7050.000000   2385030   2392683   2400274   2407836   2415402  
  7040.000000   2422986   2430576   2438141   2445656   2453105  
  7030.000000   2460508   2467887   2475272   2482663   2490048  
  7020.000000   2497392   2504677   2511894   2519059   2526175  
  7010.000000   2533228   2540156   2546877   2553299   2559382  
  7000.000000   2565147   2570701   2576176   2581720   2587398  
  6990.000000   2593223   2599115   2604986   2610737   2616337  
  6980.000000   2621775   2627082   2632253   2637271   2642071  
  6970.000000   2646605   2650841   2654820   2658614   2662332  
  6960.000000   2666042   2669777   2673495   2677149   2680679  
  6950.000000   2684097   2687444   2690811   2694255   2697802  
  6940.000000   2701384   2704899   2708209   2711224   2713899  
  6930.000000   2716272   2718418   2720440   2722418   2724415  
  6920.000000   2726454   2728550   2730698   2732896   2735116  
  6910.000000   2737335   2739503   2741588   2743564   2745448  
  6900.000000   2747274   2749102   2750973   2752899   2754847  
  6890.000000   2756756   2758552   2760183   2761630   2762915  
  6880.000000   2764090   2765212   2766327   2767464   2768630  
  6870.000000   2769827   2771051   2772308   2773603   2774946  
  6860.000000   2776340   2777785   2779277   2780814   2782384  
  6850.000000   2783974   2785556   2787101   2788575   2789956  
  6840.000000   2791241   2792454   2793632   2794817   2796033  
  6830.000000   2797278   2798515   2799692   2800746   2801640  
  6820.000000   2802351   2802903   2803335   2803717   2804110  
  6810.000000   2804578   2805153   2805849   2806631   2807444  
  6800.000000   2808195   2808801   2809189   2809339   2809278  
  6790.000000   2809086   2808861   2808702   2808666   2808767  
  6780.000000   2808969   2809214   2809434   2809583   2809637  
  6770.000000   2809600   2809487   2809323   2809128   2808926  
  6760.000000   2808738   2808589   2808494   2808459   2808470  
  6750.000000   2808497   2808501   2808444   2808306   2808083  
  6740.000000   2807791   2807456   2807102   2806755   2806433  
  6730.000000   2806165   2805975   2805896   2805941   2806107  
  6720.000000   2806353   2806616   2806815   2806877   2806751  
  6710.000000   2806422   2805900   2805214   2804397   2803479  
  6700.000000   2802483   2801441   2800380   2799340   2798345  
  6690.000000   2797410   2796516   2795630   2794701   2793700  
  6680.000000   2792615   2791476   2790327   2789231   2788229  
  6670.000000   2787339   2786550   2785829   2785126   2784396  
  6660.000000   2783591   2782675   2781616   2780400   2779035  
  6650.000000   2777559   2776029   2774523   2773101   2771799  
  6640.000000   2770606   2769479   2768351   2767167   2765891  
  6630.000000   2764527   2763093   2761620   2760118   2758582  
  6620.000000   2756992   2755333   2753605   2751835   2750065  
  6610.000000   2748340   2746681   2745083   2743515   2741937  
  6600.000000   2740314   2738637   2736912   2735166   2733421  
  6590.000000   2731695   2729997   2728327   2726684   2725065  
  6580.000000   2723463   2721864   2720246   2718586   2716876  
  6570.000000   2715126   2713377   2711683   2710090   2708615  
  6560.000000   2707232   2705872   2704455   2702914   2701235  
  6550.000000   2699457   2697668   2695968   2694439   2693111  
  6540.000000   2691964   2690943   2689980   2689026   2688061  
  6530.000000   2687088   2686121   2685165   2684211   2683230  
  6520.000000   2682193   2681077   2679879   2678612   2677303  
  6510.000000   2675979   2674664   2673375   2672124   2670921  
  6500.000000   2669771   2668675   2667625   2666608   2665608  
  6490.000000   2664610   2663611   2662614   2661630   2660663  
  6480.000000   2659713   2658766   2657810   2656840   2655867  
  6470.000000   2654916   2654018   2653194   2652442   2651736  
  6460.000000   2651031   2650279   2649447   2648525   2647533  
  6450.000000   2646504   2645474   2644469   2643504   2642582  
  6440.000000   2641705   2640875   2640099   2639380   2638718  
  6430.000000   2638100   2637512   2636938   2636370   2635813  
  6420.000000   2635280   2634781   2634321   2633890   2633471  
  6410.000000   2633042   2632594   2632127   2631657   2631201  
  6400.000000   2630779   2630403   2630080   2629816   2629619  
  6390.000000   2629497   2629456   2629486   2629561   2629637  
  6380.000000   2629667   2629614   2629462   2629225   2628942  
  6370.000000   2628660   2628420   2628243   2628125   2628051  
  6360.000000   2627994   2627937   2627866   2627774   2627649  
  6350.000000   2627474   2627222   2626870   2626402   2625821  
  6340.000000   2625143   2624402   2623630   2622859   2622106  
  6330.000000   2621383   2620691   2620036   2619417   2618835  
  6320.000000   2618282   2617748   2617209   2616647   2616039  
  6310.000000   2615378   2614658   2613886   2613066   2612209  
  6300.000000   2611314   2610385   2609412   2608384   2607279  
  6290.000000   2606077   2604751   2603293   2601702   2600008  
  6280.000000   2598252   2596496   2594786   2593165   2591636  
  6270.000000   2590188   2588784   2587388   2585959   2584474  
  6260.000000   2582915   2581275   2579546   2577734   2575847  
  6250.000000   2573911   2571958   2570026   2568138   2566304  
  6240.000000   2564503   2562697   2560845   2558918   2556912  
  6230.000000   2554853   2552785   2550755   2548796   2546919  
  6220.000000   2545106   2543330   2541557   2539761   2537931  
  6210.000000   2536068   2534181   2532284   2530389   2528508  
  6200.000000   2526655   2524839   2523071   2521351   2519676  
  6190.000000   2518034   2516411   2514794   2513177   2511557  
  6180.000000   2509935   2508311   2506686   2505057   2503424  
  6170.000000   2501789   2500158   2498533   2496914   2495296  
  6160.000000   2493668   2492021   2490359   2488696   2487063  
  6150.000000   2485490   2484004   2482608   2481285   2479993  
  6140.000000   2478688   2477329   2475894   2474384   2472819  
  6130.000000   2471231   2469660   2468137   2466697   2465360  
  6120.000000   2464145   2463048   2462058   2461135   2460234  
  6110.000000   2459303   2458306   2457227   2456084   2454914  
  6100.000000   2453775   2452712   2451767   2450954   2450275  
  6090.000000   2449711   2449244   2448842   2448479   2448121  
  6080.000000   2447741   2447315   2446841   2446329   2445819  
  6070.000000   2445346   2444960   2444681   2444525   2444476  
  6060.000000   2444523   2444643   2444833   2445085   2445414  
  6050.000000   2445822   2446324   2446918   2447621   2448433  
  6040.000000   2449375   2450445   2451648   2452956   2454346  
  6030.000000   2455773   2457219   2458668   2460143   2461666  
  6020.000000   2463277   2464991   2466815   2468722   2470687  
  6010.000000   2472674   2474669   2476662   2478665   2480680  
  6000.000000   2482723   2484784   2486869   2488967   2491092  
  5990.000000   2493246   2495451   2497712   2500044   2502441  
  5980.000000   2504917   2507477   2510151   2512960   2515939  
  5970.000000   2519093   2522423   2525893   2529470   2533100  
  5960.000000   2536755   2540402   2544042   2547672   2551311  
  5950.000000   2554964   2558651   2562377   2566153   2569978  
  5940.000000   2573851   2577760   2581695   2585650   2589630  
  5930.000000   2593650   2597730   2601882   2606094   2610329  
  5920.000000   2614517   2618582   2622455   2626095   2629504  
  5910.000000   2632717   2635787   2638768   2641690   2644569  
  5900.000000   2647400   2650188   2652942   2655699   2658497  
  5890.000000   2661376   2664348   2667404   2670507   2673612  
  5880.000000   2676675   2679668   2682578   2685401   2688142  
  5870.000000   2690798   2693375   2695876   2698322   2700741  
  5860.000000   2703170   2705640   2708171   2710768   2713427  
  5850.000000   2716138   2718904   2721734   2724647   2727659  
  5840.000000   2730777   2733992   2737283   2740621   2743981  
  5830.000000   2747338   2750677   2753980   2757225   2760392  
  5820.000000   2763457   2766415   2769268   2772041   2774754  
  5810.000000   2777434   2780075   2782674   2785189   2787606  
  5800.000000   2789889   2792051   2794078   2795994   2797778  
  5790.000000   2799432   2800910   2802194   2803233   2804010  
  5780.000000   2804478   2804615   2804373   2803733   2802675  
  5770.000000   2801236   2799475   2797507   2795441   2793399  
  5760.000000   2791451   2789647   2787983   2786456   2785048  
  5750.000000   2783764   2782610   2781597   2780722   2779963  
  5740.000000   2779289   2778660   2778057   2777467   2776903  
  5730.000000   2776371   2775884   2775432   2775008   2774595  
  5720.000000   2774198   2773823   2773496   2773229   2773031  
  5710.000000   2772885   2772768   2772655   2772539   2772429  
  5700.000000   2772352   2772333   2772386   2772507   2772670  
  5690.000000   2772848   2773013   2773160   2773287   2773405  
  5680.000000   2773505   2773572   2773567   2773459   2773212  
  5670.000000   2772813   2772257   2771553   2770699   2769696  
  5660.000000   2768534   2767220   2765765   2764212   2762609  
  5650.000000   2761010   2759451   2757952   2756505   2755101  
  5640.000000   2753725   2752377   2751063   2749794   2748575  
  5630.000000   2747401   2746263   2745149   2744060   2743005  
  5620.000000   2742006   2741075   2740214   2739405   2738623  
  5610.000000   2737838   2737039   2736232   2735439   2734684  
  5600.000000   2733984   2733336   2732720   2732112   2731491  
  5590.000000   2730848   2730187   2729515   2728832   2728126  
  5580.000000   2727378   2726570   2725695   2724767   2723809  
  5570.000000   2722848   2721894   2720943   2719968   2718940  
  5560.000000   2717834   2716649   2715400   2714116   2712824  
  5550.000000   2711544   2710279   2709024   2707772   2706526  
  5540.000000   2705289   2704076   2702891   2701735   2700599  
  5530.000000   2699475   2698354   2697236   2696126   2695027  
  5520.000000   2693936   2692848   2691754   2690651   2689545  
  5510.000000   2688451   2687377   2686326   2685275   2684196  
  5500.000000   2683050   2681820   2680508   2679150   2677789  
  5490.000000   2676468   2675193   2673945   2672672   2671324  
  5480.000000   2669861   2668279   2666598   2664863   2663108  
  5470.000000   2661362   2659623   2657884   2656127   2654346  
  5460.000000   2652535   2650695   2648819   2646898   2644916  
  5450.000000   2642873   2640782   2638676   2636599   2634586  
  5440.000000   2632654   2630792   2628978   2627185   2625409  
  5430.000000   2623658   2621964   2620341   2618802   2617320  
  5420.000000   2615875   2614441   2613033   2611680   2610450  
  5410.000000   2609385   2608521   2607830   2607278   2606800  
  5400.000000   2606377   2605999   2605712   2605554   2605581  
  5390.000000   2605795   2606204   2606766   2607479   2608324  
  5380.000000   2609341   2610538   2611957   2613575   2615391  
  5370.000000   2617350   2619449   2621653   2624007   2626505  
  5360.000000   2629212   2632113   2635263   2638638   2642309  
  5350.000000   2646282   2650665   2655478   2660817   2666657  
  5340.000000   2673046   2679915   2687307   2695164   2703558  
  5330.000000   2712438   2721873   2731790   2742238   2753141  
  5320.000000   2764582   2776534   2789143   2802413   2816500  
  5310.000000   2831376   2847146   2863728   2881191   2899451  
  5300.000000   2918596   2938576   2959509   2981363   3004246  
  5290.000000   3028096   3052954   3078682   3105236   3132436  
  5280.000000   3160237   3188535   3217396   3246851   3277042  
  5270.000000   3308010   3339779   3372213   3405111   3438209  
  5260.000000   3471270   3504156   3536812   3569292   3601620  
  5250.000000   3633821   3665764   3697311   3728190   3758269  
  5240.000000   3787372   3815566   3842852   3869427   3895313  
  5230.000000   3920649   3945331   3969363   3992542   4014846  
  5220.000000   4036119   4056448   4075800   4094365   4112155  
  5210.000000   4129336   4145833   4161686   4176704   4190865  
  5200.000000   4204003   4216196   4227407   4237822   4247453  
  5190.000000   4256453   4264755   4272414   4279300   4285458  
  5180.000000   4290802   4295434   4299321   4302573   4305136  
  5170.000000   4307078   4308328   4308965   4308973   4308482  
  5160.000000   4307512   4306181   4304459   4302393   4299900  
  5150.000000   4297006   4293660   4289933   4285829   4281438  
  5140.000000   4276760   4271850   4266679   4261276   4255614  
  5130.000000   4249734   4243629   4237344   4230873   4224252  
  5120.000000   4217476   4210586   4203596   4196554   4189472  
  5110.000000   4182377   4175255   4168110   4160924   4153714  
  5100.000000   4146497   4139313   4132185   4125132   4118138  
  5090.000000   4111177   4104211   4097219   4090197   4083169  
  5080.000000   4076165   4069224   4062355   4055559   4048805  
  5070.000000   4042062   4035292   4028476   4021595   4014651  
  5060.000000   4007641   4000574   3993445   3986264   3979025  
  5050.000000   3971733   3964379   3956958   3949450   3941851  
  5040.000000   3934149   3926358   3918494   3910592   3902679  
  5030.000000   3894783   3886915   3879081   3871278   3863508  
  5020.000000   3855776   3848091   3840469   3832913   3825431  
  5010.000000   3818012   3810663   3803375   3796176   3789078  
  5000.000000   3782126   3775336   3768746   3762351   3756175  
  4990.000000   3750199   3744453   3738932   3733684   3728710  
  4980.000000   3724058   3719712   3715703   3711993   3708606  
  4970.000000   3705503   3702717   3700216   3698041   3696160  
  4960.000000   3694617   3693377   3692490   3691933   3691767  
  4950.000000   3691976   3692625   3693686   3695203   3697127  
  4940.000000   3699481   3702200   3705302   3708725   3712496  
  4930.000000   3716566   3720975   3725693   3730772   3736192  
  4920.000000   3742005   3748182   3754753   3761669   3768938  
  4910.000000   3776504   3784372   3792500   3800899   3809536  
  4900.000000   3818415   3827494   3836760   3846172   3855715  
  4890.000000   3865364   3875106   3884926   3894796   3904682  
  4880.000000   3914529   3924286   3933881   3943271   3952386  
  4870.000000   3961196   3969638   3977694   3985313   3992501  
  4860.000000   3999237   4005564   4011493   4017090   4022370  
  4850.000000   4027390   4032150   4036698   4041027   4045186  
  4840.000000   4049175   4053044   4056790   4060450   4064013  
  4830.000000   4067500   4070899   4074227   4077474   4080654  
  4820.000000   4083754   4086782   4089725   4092595   4095392  
  4810.000000   4098138   4100841   4103517   4106161   4108767  
  4800.000000   4111315   4113793   4116195   4118532   4120823  
  4790.000000   4123101   4125391   4127721   4130096   4132523  
  4780.000000   4134988   4137481   4139978   4142461   4144895  
  4770.000000   4147262   4149529   4151692   4153738   4155688  
  4760.000000   4157546   4159336   4161049   4162682   4164201  
  4750.000000   4165586   4166796   4167825   4168656   4169306  
  4740.000000   4169771   4170076   4170212   4170197   4170021  
  4730.000000   4169701   4169237   4168654   4167955   4167161  
  4720.000000   4166270   4165292   4164224   4163077   4161862  
  4710.000000   4160603   4159328   4158073   4156869   4155748  
  4700.000000   4154734   4153846   4153098   4152493   4152034  
  4690.000000   4151711   4151518   4151437   4151455   4151547  
  4680.000000   4151693   4151856   4152007   4152101   4152117  
  4670.000000   4152026   4151837   4151563   4151252   4150946  
  4660.000000   4150708   4150577   4150596   4150778   4151139  
  4650.000000   4151672   4152381   4153258   4154302   4155506  
  4640.000000   4156867   4158369   4160000   4161734   4163549  
  4630.000000   4165414   4167296   4169163   4170984   4172733  
  4620.000000   4174388   4175934   4177355   4178642   4179778  
  4610.000000   4180754   4181554   4182181   4182635   4182947  
  4600.000000   4183146   4183288   4183411   4183565   4183770  
  4590.000000   4184043   4184364   4184713   4185040   4185306  
  4580.000000   4185457   4185466   4185305   4184981   4184506  
  4570.000000   4183913   4183230   4182490   4181706   4180891  
  4560.000000   4180036   4179144   4178209   4177241   4176243  
  4550.000000   4175228   4174193   4173132   4172029   4170870  
  4540.000000   4169650   4168376   4167077   4165783   4164543  
  4530.000000   4163382   4162334   4161401   4160605   4159935  
  4520.000000   4159424   4159064   4158903   4158934   4159207  
  4510.000000   4159706   4160489   4161545   4162956   4164728  
  4500.000000   4166966   4169679   4172969   4176825   4181330  
  4490.000000   4186453   4192268   4198741   4205941   4213832  
  4480.000000   4222469   4231804   4241874   4252617   4264049  
  4470.000000   4276088   4288721   4301838   4315385   4329230  
  4460.000000   4343296   4357456   4371647   4385775   4399802  
  4450.000000   4413674   4427377   4440894   4454232   4467412  
  4440.000000   4480456   4493406   4506268   4519071   4531784  
  4430.000000   4544411   4556888   4569219   4581337   4593256  
  4420.000000   4604914   4616327   4627421   4638193   4648550  
  4410.000000   4658471   4667848   4676654   4684789   4692240  
  4400.000000   4698944   4704938   4710223   4714899   4719029  
  4390.000000   4722745   4726126   4729287   4732279   4735178  
  4380.000000   4738011   4740835   4743686   4746637   4749747  
  4370.000000   4753101   4756764   4760799   4765238   4770095  
  4360.000000   4775348   4780955   4786843   4792936   4799130  
  4350.000000   4805351   4811499   4817536   4823398   4829094  
  4340.000000   4834591   4839898   4844949   4849672   4853891  
  4330.000000   4857421   4860010   4861469   4861648   4860559  
  4320.000000   4858324   4855247   4851684   4848060   4844711  
  4310.000000   4841912   4839764   4838281   4837347   4836830  
  4300.000000   4836573   4836467   4836434   4836441   4836483  
  4290.000000   4836560   4836690   4836875   4837133   4837477  
  4280.000000   4837923   4838494   4839195   4840040   4841009  
  4270.000000   4842091   4843223   4844340   4845311   4845994  
  4260.000000   4846201   4845762   4844526   4842430   4839486  
  4250.000000   4835828   4831651   4827220   4822769   4818522  
  4240.000000   4814596   4811059   4807870   4804968   4802238  
  4230.000000   4799588   4796919   4794166   4791279   4788225  
  4220.000000   4785004   4781619   4778118   4774544   4770984  
  4210.000000   4767503   4764189   4761092   4758270   4755737  
  4200.000000   4753519   4751602   4749993   4748661   4747608  
  4190.000000   4746785   4746196   4745788   4745581   4745538  
  4180.000000   4745707   4746073   4746702   4747589   4748807  
  4170.000000   4750356   4752322   4754715   4757627   4761062  
  4160.000000   4765091   4769678   4774846   4780509   4786664  
  4150.000000   4793215   4800176   4807485   4815199   4823292  
  4140.000000   4831849   4840856   4850393   4860429   4871023  
  4130.000000   4882122   4893762   4905884   4918522   4931628  
  4120.000000   4945245   4959341   4973958   4989065   5004690  
  4110.000000   5020788   5037368   5054370   5071778   5089511  
  4100.000000   5107527   5125730   5144068   5162464   5180892  
  4090.000000   5199330   5217795   5236313   5254915   5273642  
  4080.000000   5292506   5311530   5330689   5349976   5369315  
  4070.000000   5388662   5407890   5426937   5445670   5464056  
  4060.000000   5482001   5499526   5516562   5533146   5549195  
  4050.000000   5564742   5579691   5594095   5607868   5621076  
  4040.000000   5633618   5645534   5656680   5667078   5676584  
  4030.000000   5685253   5692983   5699853   5705774   5710800  
  4020.000000   5714799   5717830   5719850   5720966   5721150  
  4010.000000   5720587   5719374   5717570   5714969   5711670  
  4000.000000   5708014  
##END= 
