##TITLE= Sample 033 By ssteindl date Montag, November 19 2018
##JCAMP-DX= 4.24
##DATA TYPE= INFRARED SPECTRUM
##ORIGIN= Exported PE Spectrum Data File
##OWNER= Sandra Steindl
##DATE= 18/11/19
##TIME= 18:02:28.00
##SPECTROMETER/DATA SYSTEM= PERKIN-ELMER Frontier FT-IR/NIR IR
##INSTRUMENT PARAMETERS=
  APODIZATION=stark
  DETECTOR=INGAAS
##RESOLUTION= 16.000000
##DELTAX= -2.000000
##XUNITS= 1/CM
##YUNITS= A
##XFACTOR= 1.00
##YFACTOR= 0.00000011920928955078
##FIRSTX= 10000.00
##LASTX= 4000.00
##NPOINTS= 3001
##FIRSTY= 0.196117
##MAXY= 0.656384
##MINY= 0.171170
##XYDATA= (X++(Y..Y))
 10000.000000   1645149   1638485   1632765   1629422   1628934  
  9990.000000   1630804   1634304   1638799   1643744   1648667  
  9980.000000   1653367   1657573   1660885   1662614   1662206  
  9970.000000   1659332   1654224   1647622   1640709   1634719  
  9960.000000   1630671   1629114   1630085   1633237   1637926  
  9950.000000   1643437   1648957   1653751   1657139   1658733  
  9940.000000   1658538   1657062   1655259   1654212   1654817  
  9930.000000   1657321   1661226   1665344   1668207   1668596  
  9920.000000   1665930   1660558   1653549   1646456   1640733  
  9910.000000   1637414   1636794   1638478   1641548   1644852  
  9900.000000   1647327   1648185   1647047   1643960   1639317  
  9890.000000   1633807   1628227   1623384   1619918   1618200  
  9880.000000   1618314   1620023   1622909   1626356   1629717  
  9870.000000   1632257   1633330   1632371   1629143   1623780  
  9860.000000   1616937   1609717   1603459   1599498   1598736  
  9850.000000   1601552   1607597   1616071   1625817   1635652  
  9840.000000   1644479   1651365   1655606   1656637   1654232  
  9830.000000   1648426   1639773   1629202   1618015   1607592  
  9820.000000   1599120   1593421   1590771   1591094   1593933  
  9810.000000   1598753   1604843   1611464   1617742   1622786  
  9800.000000   1625827   1626376   1624506   1620787   1616288  
  9790.000000   1612151   1609300   1608102   1608289   1609179  
  9780.000000   1609949   1610072   1609443   1608400   1607451  
  9770.000000   1606958   1606907   1606840   1606045   1603850  
  9760.000000   1599939   1594540   1588404   1582636   1578360  
  9750.000000   1576465   1577328   1580775   1586070   1592093  
  9740.000000   1597554   1601246   1602337   1600528   1596172  
  9730.000000   1590144   1583667   1577925   1573824   1571704  
  9720.000000   1571387   1572254   1573546   1574603   1575041  
  9710.000000   1574818   1574120   1573273   1572572   1572268  
  9700.000000   1572528   1573478   1575203   1577718   1580923  
  9690.000000   1584565   1588249   1591509   1593897   1595093  
  9680.000000   1594959   1593536   1591025   1587690   1583852  
  9670.000000   1579807   1575852   1572231   1569136   1566671  
  9660.000000   1564833   1563574   1562781   1562430   1562507  
  9650.000000   1563126   1564356   1566262   1568779   1571747  
  9640.000000   1574940   1578085   1580934   1583175   1584466  
  9630.000000   1584352   1582419   1578369   1572295   1564720  
  9620.000000   1556618   1549173   1543446   1540090   1539127  
  9610.000000   1540054   1542029   1544265   1546251   1547919  
  9600.000000   1549496   1551297   1553436   1555709   1557685  
  9590.000000   1558898   1559169   1558653   1557840   1557239  
  9580.000000   1557150   1557484   1557798   1557532   1556257  
  9570.000000   1553916   1550830   1547587   1544776   1542766  
  9560.000000   1541584   1540966   1540510   1539891   1538985  
  9550.000000   1537889   1536825   1536020   1535575   1535501  
  9540.000000   1535716   1536166   1536822   1537662   1538642  
  9530.000000   1539628   1540471   1540977   1541003   1540402  
  9520.000000   1539063   1536858   1533734   1529753   1525229  
  9510.000000   1520733   1517036   1514926   1514925   1517105  
  9500.000000   1520946   1525514   1529716   1532722   1534221  
  9490.000000   1534502   1534247   1534178   1534722   1535821  
  9480.000000   1537029   1537730   1537484   1536181   1534095  
  9470.000000   1531690   1529382   1527358   1525502   1523575  
  9460.000000   1521356   1518881   1516400   1514329   1513006  
  9450.000000   1512589   1512969   1513882   1515036   1516214  
  9440.000000   1517304   1518158   1518567   1518144   1516542  
  9430.000000   1513550   1509370   1504593   1500122   1496865  
  9420.000000   1495436   1495953   1498006   1500908   1503951  
  9410.000000   1506740   1509198   1511538   1513978   1516572  
  9400.000000   1519119   1521217   1522483   1522680   1521856  
  9390.000000   1520229   1518093   1515626   1512875   1509817  
  9380.000000   1506492   1503146   1500168   1498025   1496984  
  9370.000000   1497048   1497870   1498982   1499967   1500686  
  9360.000000   1501270   1502023   1503164   1504630   1506033  
  9350.000000   1506762   1506330   1504537   1501671   1498311  
  9340.000000   1495145   1492613   1490756   1489236   1487539  
  9330.000000   1485362   1482800   1480421   1478992   1479197  
  9320.000000   1481300   1485039   1489662   1494162   1497599  
  9310.000000   1499327   1499190   1497396   1494453   1490918  
  9300.000000   1487338   1484123   1481551   1479757   1478743  
  9290.000000   1478418   1478594   1479088   1479714   1480416  
  9280.000000   1481199   1482148   1483296   1484557   1485725  
  9270.000000   1486491   1486609   1485931   1484517   1482555  
  9260.000000   1480332   1478105   1476052   1474253   1472745  
  9250.000000   1471587   1470879   1470747   1471249   1472329  
  9240.000000   1473763   1475233   1476384   1476987   1476994  
  9230.000000   1476596   1476133   1475951   1476280   1477142  
  9220.000000   1478382   1479678   1480641   1480876   1480113  
  9210.000000   1478255   1475436   1471994   1468414   1465245  
  9200.000000   1462945   1461796   1461775   1462633   1463954  
  9190.000000   1465360   1466607   1467667   1468669   1469763  
  9180.000000   1470978   1472125   1472852   1472749   1471577  
  9170.000000   1469378   1466542   1463656   1461313   1459922  
  9160.000000   1459579   1460085   1461022   1461958   1462577  
  9150.000000   1462745   1462462   1461817   1460909   1459849  
  9140.000000   1458726   1457662   1456810   1456327   1456330  
  9130.000000   1456788   1457549   1458331   1458838   1458803  
  9120.000000   1458053   1456561   1454447   1451950   1449379  
  9110.000000   1447106   1445540   1445058   1445872   1447933  
  9100.000000   1450881   1454072   1456724   1458137   1457935  
  9090.000000   1456185   1453391   1450299   1447673   1446025  
  9080.000000   1445521   1445958   1446941   1448054   1449017  
  9070.000000   1449729   1450196   1450475   1450570   1450454  
  9060.000000   1450097   1449567   1449076   1448914   1449346  
  9050.000000   1450458   1452104   1453907   1455380   1456108  
  9040.000000   1455887   1454803   1453165   1451398   1449896  
  9030.000000   1448910   1448504   1448589   1448991   1449513  
  9020.000000   1449964   1450187   1450065   1449542   1448643  
  9010.000000   1447489   1446286   1445268   1444624   1444415  
  9000.000000   1444570   1444894   1445162   1445214   1445006  
  8990.000000   1444636   1444258   1444041   1444081   1444390  
  8980.000000   1444922   1445591   1446343   1447097   1447778  
  8970.000000   1448226   1448257   1447659   1446309   1444242  
  8960.000000   1441700   1439121   1437016   1435878   1436035  
  8950.000000   1437601   1440444   1444257   1448595   1452957  
  8940.000000   1456813   1459680   1461201   1461213   1459836  
  8930.000000   1457469   1454759   1452397   1450933   1450572  
  8920.000000   1451136   1452126   1452908   1452974   1452114  
  8910.000000   1450527   1448682   1447167   1446399   1446528  
  8900.000000   1447384   1448624   1449903   1451020   1452002  
  8890.000000   1453008   1454215   1455646   1457104   1458202  
  8880.000000   1458512   1457744   1455907   1453334   1450627  
  8870.000000   1448453   1447352   1447573   1448996   1451207  
  8860.000000   1453613   1455630   1456850   1457126   1456605  
  8850.000000   1455616   1454569   1453801   1453511   1453717  
  8840.000000   1454316   1455147   1456104   1457171   1458426  
  8830.000000   1459983   1461904   1464138   1466502   1468707  
  8820.000000   1470479   1471606   1472047   1471899   1471390  
  8810.000000   1470779   1470306   1470157   1470445   1471256  
  8800.000000   1472635   1474608   1477126   1480047   1483104  
  8790.000000   1485954   1488246   1489718   1490281   1490035  
  8780.000000   1489268   1488337   1487599   1487280   1487474  
  8770.000000   1488122   1489085   1490188   1491264   1492199  
  8760.000000   1492925   1493458   1493875   1494337   1495049  
  8750.000000   1496226   1498015   1500431   1503319   1506357  
  8740.000000   1509147   1511298   1512574   1512943   1512593  
  8730.000000   1511840   1511014   1510348   1509940   1509772  
  8720.000000   1509782   1509946   1510323   1511041   1512218  
  8710.000000   1513879   1515881   1517944   1519729   1520967  
  8700.000000   1521586   1521726   1521737   1522007   1522859  
  8690.000000   1524387   1526444   1528683   1530703   1532205  
  8680.000000   1533103   1533552   1533887   1534498   1535695  
  8670.000000   1537595   1540094   1542895   1545630   1547946  
  8660.000000   1549643   1550675   1551178   1551386   1551567  
  8650.000000   1551964   1552730   1553947   1555614   1557692  
  8640.000000   1560132   1562885   1565910   1569131   1572426  
  8630.000000   1575599   1578421   1580640   1582076   1582666  
  8620.000000   1582540   1582003   1581489   1581466   1582300  
  8610.000000   1584196   1587108   1590796   1594862   1598883  
  8600.000000   1602480   1605394   1607492   1608759   1609262  
  8590.000000   1609120   1608504   1607626   1606765   1606209  
  8580.000000   1606216   1606934   1608350   1610290   1612435  
  8570.000000   1614442   1616014   1617023   1617512   1617691  
  8560.000000   1617848   1618261   1619129   1620517   1622391  
  8550.000000   1624609   1626987   1629303   1631332   1632873  
  8540.000000   1633792   1634076   1633859   1633428   1633166  
  8530.000000   1633456   1634560   1636518   1639120   1641964  
  8520.000000   1644588   1646616   1647871   1648413   1648487  
  8510.000000   1648406   1648421   1648663   1649124   1649733  
  8500.000000   1650428   1651224   1652206   1653487   1655102  
  8490.000000   1656971   1658874   1660526   1661668   1662160  
  8480.000000   1662051   1661539   1660921   1660463   1660341  
  8470.000000   1660584   1661110   1661781   1662483   1663164  
  8460.000000   1663849   1664612   1665526   1666639   1667946  
  8450.000000   1669414   1670988   1672620   1674275   1675924  
  8440.000000   1677545   1679103   1680563   1681880   1683014  
  8430.000000   1683931   1684614   1685062   1685298   1685374  
  8420.000000   1685373   1685404   1685575   1685976   1686634  
  8410.000000   1687515   1688505   1689472   1690292   1690915  
  8400.000000   1691368   1691749   1692181   1692754   1693480  
  8390.000000   1694281   1695015   1695528   1695714   1695563  
  8380.000000   1695169   1694702   1694352   1694273   1694539  
  8370.000000   1695116   1695875   1696632   1697202   1697449  
  8360.000000   1697315   1696853   1696205   1695588   1695229  
  8350.000000   1695306   1695906   1696986   1698393   1699873  
  8340.000000   1701152   1701993   1702269   1701977   1701230  
  8330.000000   1700227   1699199   1698368   1697890   1697853  
  8320.000000   1698252   1699031   1700063   1701204   1702277  
  8310.000000   1703134   1703652   1703772   1703487   1702834  
  8300.000000   1701883   1700685   1699273   1697640   1695782  
  8290.000000   1693722   1691542   1689406   1687518   1686107  
  8280.000000   1685328   1685246   1685770   1686704   1687776  
  8270.000000   1688726   1689358   1689582   1689413   1688928  
  8260.000000   1688229   1687383   1686418   1685322   1684073  
  8250.000000   1682672   1681161   1679627   1678182   1676925  
  8240.000000   1675909   1675123   1674488   1673888   1673197  
  8230.000000   1672318   1671221   1669952   1668633   1667434  
  8220.000000   1666523   1666029   1665999   1666381   1667018  
  8210.000000   1667695   1668172   1668269   1667895   1667082  
  8200.000000   1665952   1664681   1663434   1662308   1661307  
  8190.000000   1660342   1659277   1657984   1656393   1654524  
  8180.000000   1652469   1650376   1648373   1646564   1644974  
  8170.000000   1643591   1642365   1641260   1640261   1639387  
  8160.000000   1638659   1638081   1637606   1637142   1636560  
  8150.000000   1635733   1634580   1633090   1631344   1629479  
  8140.000000   1627660   1626005   1624568   1623302   1622091  
  8130.000000   1620787   1619269   1617493   1615510   1613469  
  8120.000000   1611564   1609991   1608877   1608254   1608040  
  8110.000000   1608071   1608148   1608078   1607734   1607047  
  8100.000000   1606036   1604750   1603277   1601688   1600055  
  8090.000000   1598436   1596895   1595503   1594336   1593462  
  8080.000000   1592914   1592682   1592700   1592871   1593077  
  8070.000000   1593217   1593229   1593087   1592805   1592410  
  8060.000000   1591926   1591373   1590759   1590099   1589423  
  8050.000000   1588780   1588217   1587765   1587407   1587069  
  8040.000000   1586630   1585953   1584932   1583528   1581798  
  8030.000000   1579878   1577953   1576202   1574746   1573632  
  8020.000000   1572831   1572270   1571866   1571555   1571304  
  8010.000000   1571097   1570914   1570718   1570457   1570075  
  8000.000000   1569550   1568894   1568176   1567474   1566858  
  7990.000000   1566343   1565890   1565414   1564831   1564096  
  7980.000000   1563237   1562349   1561556   1560970   1560630  
  7970.000000   1560507   1560509   1560532   1560509   1560423  
  7960.000000   1560313   1560216   1560140   1560020   1559743  
  7950.000000   1559182   1558273   1557052   1555683   1554414  
  7940.000000   1553506   1553154   1553412   1554186   1555258  
  7930.000000   1556358   1557245   1557762   1557871   1557631  
  7920.000000   1557172   1556642   1556170   1555843   1555700  
  7910.000000   1555733   1555906   1556163   1556444   1556698  
  7900.000000   1556894   1557021   1557089   1557115   1557113  
  7890.000000   1557081   1557007   1556870   1556659   1556390  
  7880.000000   1556104   1555867   1555742   1555776   1555975  
  7870.000000   1556308   1556709   1557098   1557396   1557540  
  7860.000000   1557490   1557227   1556753   1556093   1555299  
  7850.000000   1554445   1553627   1552933   1552431   1552145  
  7840.000000   1552050   1552080   1552151   1552196   1552172  
  7830.000000   1552085   1551964   1551863   1551821   1551869  
  7820.000000   1552006   1552218   1552469   1552709   1552877  
  7810.000000   1552902   1552716   1552267   1551548   1550596  
  7800.000000   1549496   1548354   1547269   1546298   1545443  
  7790.000000   1544671   1543927   1543192   1542486   1541881  
  7780.000000   1541465   1541303   1541396   1541667   1541976  
  7770.000000   1542158   1542082   1541684   1540990   1540096  
  7760.000000   1539141   1538265   1537572   1537123   1536919  
  7750.000000   1536923   1537064   1537254   1537396   1537402  
  7740.000000   1537205   1536774   1536122   1535300   1534385  
  7730.000000   1533453   1532563   1531744   1531002   1530329  
  7720.000000   1529726   1529208   1528795   1528509   1528341  
  7710.000000   1528260   1528206   1528117   1527953   1527708  
  7700.000000   1527418   1527134   1526911   1526772   1526706  
  7690.000000   1526668   1526604   1526466   1526239   1525935  
  7680.000000   1525586   1525231   1524899   1524597   1524320  
  7670.000000   1524054   1523791   1523527   1523269   1523028  
  7660.000000   1522813   1522628   1522475   1522351   1522258  
  7650.000000   1522195   1522165   1522166   1522199   1522253  
  7640.000000   1522324   1522395   1522459   1522502   1522526  
  7630.000000   1522537   1522562   1522636   1522802   1523092  
  7620.000000   1523518   1524055   1524654   1525238   1525739  
  7610.000000   1526107   1526333   1526439   1526479   1526500  
  7600.000000   1526543   1526616   1526716   1526830   1526961  
  7590.000000   1527122   1527343   1527653   1528069   1528589  
  7580.000000   1529193   1529856   1530561   1531298   1532069  
  7570.000000   1532859   1533638   1534342   1534906   1535264  
  7560.000000   1535406   1535365   1535237   1535138   1535185  
  7550.000000   1535456   1535984   1536751   1537717   1538839  
  7540.000000   1540093   1541466   1542950   1544511   1546093  
  7530.000000   1547607   1548972   1550121   1551058   1551830  
  7520.000000   1552550   1553329   1554276   1555437   1556806  
  7510.000000   1558322   1559903   1561477   1563005   1564489  
  7500.000000   1565970   1567506   1569150   1570925   1572822  
  7490.000000   1574797   1576796   1578757   1580644   1582435  
  7480.000000   1584143   1585788   1587399   1588987   1590561  
  7470.000000   1592112   1593641   1595158   1596697   1598303  
  7460.000000   1600030   1601914   1603964   1606155   1608437  
  7450.000000   1610751   1613051   1615320   1617570   1619832  
  7440.000000   1622140   1624508   1626925   1629349   1631732  
  7430.000000   1634029   1636221   1638312   1640334   1642323  
  7420.000000   1644313   1646324   1648363   1650435   1652549  
  7410.000000   1654728   1656998   1659383   1661883   1664468  
  7400.000000   1667078   1669635   1672072   1674347   1676464  
  7390.000000   1678466   1680428   1682422   1684501   1686678  
  7380.000000   1688934   1691223   1693498   1695730   1697914  
  7370.000000   1700075   1702246   1704460   1706736   1709075  
  7360.000000   1711460   1713871   1716286   1718684   1721052  
  7350.000000   1723368   1725608   1727749   1729774   1731691  
  7340.000000   1733526   1735330   1737160   1739068   1741076  
  7330.000000   1743180   1745346   1747531   1749692   1751805  
  7320.000000   1753867   1755890   1757886   1759856   1761780  
  7310.000000   1763625   1765351   1766934   1768374   1769705  
  7300.000000   1770984   1772287   1773678   1775204   1776866  
  7290.000000   1778635   1780442   1782211   1783869   1785374  
  7280.000000   1786723   1787955   1789132   1790318   1791552  
  7270.000000   1792831   1794110   1795316   1796385   1797288  
  7260.000000   1798057   1798778   1799577   1800569   1801836  
  7250.000000   1803380   1805148   1807022   1808887   1810640  
  7240.000000   1812249   1813727   1815160   1816649   1818318  
  7230.000000   1820258   1822547   1825208   1828246   1831605  
  7220.000000   1835208   1838937   1842681   1846331   1849832  
  7210.000000   1853159   1856360   1859497   1862658   1865893  
  7200.000000   1869241   1872688   1876222   1879819   1883484  
  7190.000000   1887223   1891059   1894986   1898989   1903011  
  7180.000000   1907001   1910910   1914741   1918525   1922351  
  7170.000000   1926300   1930466   1934886   1939573   1944477  
  7160.000000   1949539   1954670   1959809   1964897   1969925  
  7150.000000   1974892   1979853   1984865   1990021   1995381  
  7140.000000   2001002   2006866   2012936   2019121   2025349  
  7130.000000   2031552   2037734   2043922   2050198   2056627  
  7120.000000   2063266   2070109   2077121   2084216   2091323  
  7110.000000   2098373   2105354   2112273   2119182   2126127  
  7100.000000   2133167   2140329   2147631   2155059   2162588  
  7090.000000   2170174   2177780   2185364   2192912   2200422  
  7080.000000   2207911   2215402   2222917   2230458   2238014  
  7070.000000   2245556   2253062   2260517   2267924   2275294  
  7060.000000   2282639   2289958   2297235   2304452   2311598  
  7050.000000   2318691   2325776   2332915   2340158   2347521  
  7040.000000   2354963   2362406   2369750   2376919   2383882  
  7030.000000   2390671   2397351   2404010   2410703   2417453  
  7020.000000   2424228   2430981   2437654   2444218   2450654  
  7010.000000   2456965   2463138   2469163   2475004   2480649  
  7000.000000   2486099   2491407   2496636   2501880   2507190  
  6990.000000   2512593   2518047   2523491   2528831   2534009  
  6980.000000   2538978   2543745   2548325   2552756   2557051  
  6970.000000   2561221   2565248   2569127   2572840   2576402  
  6960.000000   2579827   2583162   2586441   2589716   2593002  
  6950.000000   2596313   2599617   2602884   2606059   2609116  
  6940.000000   2612044   2614874   2617647   2620417   2623202  
  6930.000000   2625988   2628710   2631295   2633668   2635809  
  6920.000000   2637740   2639544   2641310   2643124   2645014  
  6910.000000   2646971   2648938   2650862   2652698   2654445  
  6900.000000   2656121   2657761   2659382   2660983   2662534  
  6890.000000   2663999   2665350   2666578   2667698   2668742  
  6880.000000   2669746   2670747   2671775   2672864   2674043  
  6870.000000   2675340   2676759   2678282   2679856   2681411  
  6860.000000   2682872   2684192   2685361   2686413   2687413  
  6850.000000   2688428   2689505   2690660   2691874   2693110  
  6840.000000   2694328   2695502   2696616   2697668   2698654  
  6830.000000   2699569   2700406   2701164   2701848   2702476  
  6820.000000   2703068   2703642   2704210   2704782   2705362  
  6810.000000   2705968   2706617   2707333   2708114   2708948  
  6800.000000   2709785   2710572   2711256   2711817   2712259  
  6790.000000   2712618   2712925   2713195   2713405   2713514  
  6780.000000   2713471   2713259   2712898   2712462   2712035  
  6770.000000   2711697   2711475   2711348   2711248   2711098  
  6760.000000   2710836   2710442   2709935   2709367   2708794  
  6750.000000   2708271   2707833   2707507   2707308   2707241  
  6740.000000   2707294   2707432   2707591   2707691   2707657  
  6730.000000   2707442   2707045   2706515   2705931   2705378  
  6720.000000   2704919   2704585   2704368   2704250   2704206  
  6710.000000   2704223   2704288   2704382   2704464   2704472  
  6700.000000   2704335   2703993   2703419   2702627   2701671  
  6690.000000   2700621   2699541   2698480   2697452   2696465  
  6680.000000   2695507   2694585   2693699   2692866   2692088  
  6670.000000   2691368   2690692   2690049   2689413   2688761  
  6660.000000   2688058   2687261   2686323   2685209   2683908  
  6650.000000   2682452   2680908   2679373   2677928   2676628  
  6640.000000   2675465   2674391   2673321   2672185   2670933  
  6630.000000   2669567   2668107   2666597   2665056   2663493  
  6620.000000   2661893   2660248   2658560   2656859   2655185  
  6610.000000   2653578   2652049   2650584   2649136   2647652  
  6600.000000   2646086   2644419   2642654   2640811   2638916  
  6590.000000   2636995   2635072   2633174   2631330   2629571  
  6580.000000   2627913   2626350   2624850   2623359   2621826  
  6570.000000   2620222   2618557   2616875   2615245   2613724  
  6560.000000   2612342   2611082   2609896   2608718   2607491  
  6550.000000   2606178   2604774   2603288   2601743   2600161  
  6540.000000   2598571   2597007   2595516   2594147   2592940  
  6530.000000   2591906   2591023   2590229   2589448   2588609  
  6520.000000   2587671   2586633   2585525   2584395   2583285  
  6510.000000   2582219   2581204   2580231   2579291   2578377  
  6500.000000   2577486   2576605   2575711   2574774   2573762  
  6490.000000   2572663   2571491   2570290   2569119   2568030  
  6480.000000   2567047   2566163   2565337   2564518   2563661  
  6470.000000   2562744   2561767   2560749   2559712   2558675  
  6460.000000   2557651   2556646   2555666   2554714   2553793  
  6450.000000   2552894   2551997   2551075   2550105   2549079  
  6440.000000   2548011   2546930   2545876   2544876   2543942  
  6430.000000   2543062   2542220   2541401   2540610   2539864  
  6420.000000   2539188   2538591   2538068   2537583   2537102  
  6410.000000   2536592   2536055   2535513   2535010   2534581  
  6400.000000   2534246   2533993   2533795   2533617   2533440  
  6390.000000   2533263   2533101   2532969   2532872   2532792  
  6380.000000   2532698   2532554   2532337   2532038   2531668  
  6370.000000   2531247   2530794   2530326   2529857   2529407  
  6360.000000   2528998   2528656   2528389   2528184   2527994  
  6350.000000   2527759   2527420   2526951   2526367   2525732  
  6340.000000   2525123   2524614   2524230   2523955   2523726  
  6330.000000   2523473   2523137   2522696   2522159   2521563  
  6320.000000   2520931   2520277   2519579   2518813   2517950  
  6310.000000   2516991   2515951   2514868   2513774   2512696  
  6300.000000   2511634   2510580   2509516   2508434   2507324  
  6290.000000   2506184   2505004   2503774   2502475   2501104  
  6280.000000   2499662   2498177   2496675   2495189   2493724  
  6270.000000   2492271   2490796   2489264   2487644   2485928  
  6260.000000   2484124   2482254   2480337   2478389   2476411  
  6250.000000   2474404   2472368   2470314   2468256   2466214  
  6240.000000   2464195   2462202   2460228   2458269   2456323  
  6230.000000   2454397   2452502   2450646   2448828   2447035  
  6220.000000   2445249   2443455   2441647   2439829   2438017  
  6210.000000   2436222   2434453   2432707   2430979   2429260  
  6200.000000   2427547   2425836   2424124   2422399   2420642  
  6190.000000   2418836   2416976   2415082   2413200   2411392  
  6180.000000   2409719   2408217   2406882   2405673   2404526  
  6170.000000   2403380   2402192   2400949   2399665   2398360  
  6160.000000   2397047   2395721   2394359   2392932   2391421  
  6150.000000   2389825   2388163   2386467   2384765   2383080  
  6140.000000   2381422   2379797   2378208   2376659   2375155  
  6130.000000   2373695   2372267   2370848   2369419   2367964  
  6120.000000   2366488   2365012   2363572   2362199   2360920  
  6110.000000   2359741   2358662   2357672   2356769   2355951  
  6100.000000   2355222   2354574   2353993   2353448   2352912  
  6090.000000   2352363   2351803   2351246   2350730   2350277  
  6080.000000   2349906   2349604   2349356   2349129   2348910  
  6070.000000   2348691   2348486   2348304   2348160   2348050  
  6060.000000   2347976   2347925   2347914   2347949   2348067  
  6050.000000   2348285   2348630   2349098   2349697   2350417  
  6040.000000   2351271   2352267   2353432   2354771   2356292  
  6030.000000   2357964   2359758   2361623   2363528   2365440  
  6020.000000   2367352   2369251   2371140   2373005   2374848  
  6010.000000   2376659   2378455   2380246   2382065   2383926  
  6000.000000   2385848   2387820   2389840   2391889   2393973  
  5990.000000   2396092   2398272   2400522   2402866   2405303  
  5980.000000   2407847   2410499   2413284   2416216   2419324  
  5970.000000   2422600   2426034   2429572   2433168   2436766  
  5960.000000   2440352   2443921   2447513   2451157   2454888  
  5950.000000   2458703   2462589   2466507   2470429   2474338  
  5940.000000   2478243   2482167   2486141   2490190   2494324  
  5930.000000   2498538   2502810   2507112   2511408   2515659  
  5920.000000   2519822   2523856   2527726   2531414   2534919  
  5910.000000   2538263   2541477   2544595   2547638   2550621  
  5900.000000   2553548   2556430   2559281   2562137   2565029  
  5890.000000   2567994   2571035   2574146   2577294   2580447  
  5880.000000   2583574   2586661   2589697   2592673   2595572  
  5870.000000   2598359   2601003   2603484   2605815   2608042  
  5860.000000   2610244   2612499   2614869   2617377   2620007  
  5850.000000   2622719   2625472   2628246   2631047   2633905  
  5840.000000   2636855   2639919   2643091   2646342   2649629  
  5830.000000   2652907   2656142   2659313   2662411   2665433  
  5820.000000   2668374   2671232   2674004   2676702   2679329  
  5810.000000   2681904   2684420   2686877   2689242   2691509  
  5800.000000   2693646   2695675   2697591   2699430   2701181  
  5790.000000   2702846   2704369   2705708   2706782   2707545  
  5780.000000   2707936   2707940   2707526   2706708   2705492  
  5770.000000   2703931   2702084   2700055   2697943   2695860  
  5760.000000   2693875   2692042   2690361   2688826   2687410  
  5750.000000   2686104   2684902   2683812   2682840   2681982  
  5740.000000   2681229   2680556   2679949   2679389   2678874  
  5730.000000   2678394   2677949   2677518   2677092   2676655  
  5720.000000   2676217   2675792   2675418   2675125   2674935  
  5710.000000   2674847   2674841   2674884   2674946   2675008  
  5700.000000   2675067   2675132   2675210   2675306   2675411  
  5690.000000   2675519   2675618   2675710   2675791   2675867  
  5680.000000   2675923   2675938   2675865   2675663   2675282  
  5670.000000   2674699   2673895   2672880   2671663   2670275  
  5660.000000   2668744   2667121   2665451   2663796   2662196  
  5650.000000   2660680   2659236   2657838   2656434   2654992  
  5640.000000   2653494   2651959   2650426   2648942   2647541  
  5630.000000   2646230   2644996   2643809   2642649   2641507  
  5620.000000   2640398   2639341   2638356   2637444   2636595  
  5610.000000   2635783   2634990   2634201   2633425   2632670  
  5600.000000   2631948   2631259   2630593   2629935   2629271  
  5590.000000   2628599   2627921   2627246   2626572   2625888  
  5580.000000   2625168   2624390   2623536   2622609   2621624  
  5570.000000   2620610   2619585   2618562   2617535   2616495  
  5560.000000   2615430   2614340   2613229   2612107   2610976  
  5550.000000   2609832   2608662   2607459   2606225   2604979  
  5540.000000   2603755   2602589   2601501   2600494   2599544  
  5530.000000   2598619   2597685   2596723   2595729   2594717  
  5520.000000   2593700   2592687   2591677   2590662   2589626  
  5510.000000   2588559   2587451   2586300   2585095   2583832  
  5500.000000   2582504   2581118   2579688   2578248   2576824  
  5490.000000   2575443   2574101   2572777   2571428   2570019  
  5480.000000   2568519   2566924   2565246   2563507   2561723  
  5470.000000   2559899   2558029   2556106   2554131   2552122  
  5460.000000   2550101   2548096   2546117   2544160   2542209  
  5450.000000   2540249   2538273   2536295   2534343   2532442  
  5440.000000   2530610   2528841   2527119   2525420   2523733  
  5430.000000   2522055   2520403   2518778   2517188   2515615  
  5420.000000   2514058   2512514   2511030   2509660   2508488  
  5410.000000   2507558   2506894   2506444   2506147   2505912  
  5400.000000   2505701   2505491   2505329   2505258   2505350  
  5390.000000   2505623   2506094   2506724   2507506   2508412  
  5380.000000   2509467   2510678   2512085   2513674   2515454  
  5370.000000   2517377   2519440   2521604   2523899   2526312  
  5360.000000   2528902   2531663   2534659   2537884   2541419  
  5350.000000   2545274   2549546   2554237   2559423   2565063  
  5340.000000   2571196   2577756   2584796   2592271   2600260  
  5330.000000   2608720   2617718   2627178   2637145   2647542  
  5320.000000   2658454   2669857   2681901   2694593   2708090  
  5310.000000   2722362   2737509   2753446   2770239   2787808  
  5300.000000   2806242   2825502   2845714   2866857   2889043  
  5290.000000   2912208   2936381   2961410   2987230   3013641  
  5280.000000   3040587   3067958   3095823   3124219   3153299  
  5270.000000   3183111   3213686   3244889   3276521   3308318  
  5260.000000   3340052   3371596   3402915   3434084   3465151  
  5250.000000   3496156   3526978   3557475   3587363   3616489  
  5240.000000   3644663   3671939   3698319   3724007   3749041  
  5230.000000   3773567   3797491   3820809   3843303   3864926  
  5220.000000   3885499   3905086   3923645   3941363   3958269  
  5210.000000   3974554   3990179   4005221   4019523   4033081  
  5200.000000   4045732   4057535   4068423   4078542   4087870  
  5190.000000   4096533   4104459   4111710   4118180   4123939  
  5180.000000   4128928   4133263   4136922   4140007   4142458  
  5170.000000   4144326   4145530   4146130   4146094   4145537  
  5160.000000   4144466   4142993   4141094   4138826   4136131  
  5150.000000   4133050   4129552   4125708   4121517   4117051  
  5140.000000   4112294   4107286   4102001   4096482   4090730  
  5130.000000   4084814   4078754   4072606   4066361   4060033  
  5120.000000   4053588   4047033   4040358   4033598   4026769  
  5110.000000   4019910   4013027   4006134   3999222   3992298  
  5100.000000   3985364   3978444   3971553   3964712   3957923  
  5090.000000   3951187   3944498   3937858   3931272   3924757  
  5080.000000   3918319   3911963   3905664   3899394   3893107  
  5070.000000   3886772   3880358   3873866   3867294   3860661  
  5060.000000   3853969   3847227   3840423   3833556   3826610  
  5050.000000   3819585   3812471   3805272   3797977   3790594  
  5040.000000   3783118   3775568   3767958   3760318   3752671  
  5030.000000   3745044   3737446   3729881   3722345   3714830  
  5020.000000   3707334   3699857   3692414   3685016   3677693  
  5010.000000   3670460   3663350   3656377   3649569   3642928  
  5000.000000   3636472   3630186   3624081   3618138   3612374  
  4990.000000   3606776   3601379   3596173   3591196   3586435  
  4980.000000   3581922   3577642   3573635   3569894   3566480  
  4970.000000   3563392   3560688   3558348   3556405   3554807  
  4960.000000   3553565   3552622   3552000   3551663   3551658  
  4950.000000   3551969   3552652   3553687   3555125   3556936  
  4940.000000   3559164   3561770   3564792   3568178   3571949  
  4930.000000   3576039   3580457   3585145   3590130   3595378  
  4920.000000   3600943   3606811   3613034   3619587   3626499  
  4910.000000   3633732   3641300   3649167   3657346   3665809  
  4900.000000   3674560   3683561   3692791   3702199   3711748  
  4890.000000   3721388   3731077   3740776   3750444   3760047  
  4880.000000   3769540   3778894   3788060   3797014   3805698  
  4870.000000   3814088   3822114   3829755   3836947   3843695  
  4860.000000   3849969   3855809   3861217   3866248   3870906  
  4850.000000   3875244   3879258   3883006   3886497   3889801  
  4840.000000   3892938   3895974   3898913   3901794   3904601  
  4830.000000   3907356   3910048   3912700   3915310   3917896  
  4820.000000   3920443   3922947   3925379   3927731   3929993  
  4810.000000   3932181   3934316   3936428   3938536   3940650  
  4800.000000   3942764   3944871   3946960   3949038   3951116  
  4790.000000   3953214   3955344   3957509   3959688   3961860  
  4780.000000   3963991   3966066   3968077   3970039   3971968  
  4770.000000   3973886   3975794   3977693   3979553   3981353  
  4760.000000   3983058   3984650   3986108   3987433   3988616  
  4750.000000   3989674   3990601   3991416   3992112   3992701  
  4740.000000   3993166   3993510   3993711   3993771   3993680  
  4730.000000   3993452   3993095   3992637   3992091   3991479  
  4720.000000   3990805   3990076   3989291   3988454   3987574  
  4710.000000   3986664   3985745   3984836   3983959   3983132  
  4700.000000   3982378   3981717   3981178   3980781   3980550  
  4690.000000   3980493   3980611   3980882   3981280   3981761  
  4680.000000   3982294   3982833   3983359   3983840   3984273  
  4670.000000   3984641   3984957   3985224   3985474   3985728  
  4660.000000   3986033   3986419   3986933   3987597   3988442  
  4650.000000   3989476   3990711   3992140   3993760   3995550  
  4640.000000   3997493   3999562   4001733   4003977   4006272  
  4630.000000   4008596   4010931   4013257   4015553   4017798  
  4620.000000   4019964   4022028   4023964   4025754   4027374  
  4610.000000   4028814   4030057   4031105   4031952   4032623  
  4600.000000   4033131   4033521   4033817   4034066   4034280  
  4590.000000   4034484   4034664   4034818   4034916   4034947  
  4580.000000   4034883   4034722   4034450   4034077   4033602  
  4570.000000   4033040   4032396   4031692   4030933   4030135  
  4560.000000   4029301   4028438   4027541   4026606   4025623  
  4550.000000   4024590   4023502   4022362   4021178   4019963  
  4540.000000   4018736   4017517   4016333   4015201   4014149  
  4530.000000   4013179   4012310   4011527   4010842   4010230  
  4520.000000   4009714   4009279   4008968   4008785   4008796  
  4510.000000   4009010   4009508   4010298   4011467   4013015  
  4500.000000   4015032   4017512   4020544   4024112   4028302  
  4490.000000   4033092   4038564   4044693   4051552   4059107  
  4480.000000   4067414   4076419   4086155   4096554   4107626  
  4470.000000   4119289   4131529   4144244   4157395   4170864  
  4460.000000   4184592   4198466   4212430   4226394   4240319  
  4450.000000   4254142   4267842   4281387   4294770   4307991  
  4440.000000   4321057   4333994   4346812   4359549   4372198  
  4430.000000   4384791   4397294   4409722   4422011   4434160  
  4420.000000   4446082   4457766   4469118   4480126   4490696  
  4410.000000   4500814   4510384   4519388   4527733   4535411  
  4400.000000   4542361   4548616   4554175   4559128   4563526  
  4390.000000   4567492   4571097   4574462   4577652   4580766  
  4380.000000   4583852   4586984   4590194   4593538   4597039  
  4370.000000   4600741   4604666   4608852   4613318   4618081  
  4360.000000   4623138   4628473   4634040   4639796   4645658  
  4350.000000   4651575   4657458   4663277   4668964   4674517  
  4340.000000   4679887   4685071   4689988   4694557   4698596  
  4330.000000   4701913   4704245   4705391   4705188   4703638  
  4320.000000   4700867   4697188   4692980   4688697   4684700  
  4310.000000   4681289   4678580   4676601   4675242   4674382  
  4300.000000   4673865   4673584   4673452   4673417   4673450  
  4290.000000   4673521   4673629   4673765   4673960   4674246  
  4280.000000   4674674   4675290   4676117   4677164   4678388  
  4270.000000   4679745   4681134   4682461   4683580   4684350  
  4260.000000   4684597   4684174   4682946   4680858   4677916  
  4250.000000   4674238   4669993   4665422   4660746   4656192  
  4240.000000   4651892   4647947   4644349   4641070   4638015  
  4230.000000   4635103   4632233   4629334   4626346   4623232  
  4220.000000   4619985   4616602   4613123   4609581   4606054  
  4210.000000   4602598   4599307   4596235   4593455   4590990  
  4200.000000   4588869   4587064   4585565   4584311   4583284  
  4190.000000   4582426   4581743   4581202   4580845   4580656  
  4180.000000   4580692   4580939   4581455   4582223   4583309  
  4170.000000   4584710   4586512   4588724   4591432   4594629  
  4160.000000   4598370   4602608   4607360   4612551   4618195  
  4150.000000   4624223   4630668   4637481   4644718   4652342  
  4140.000000   4660419   4668920   4677913   4687367   4697342  
  4130.000000   4707792   4718755   4730171   4742064   4754377  
  4120.000000   4767149   4780346   4794026   4808173   4822839  
  4110.000000   4838000   4853679   4869822   4886415   4903378  
  4100.000000   4920671   4938209   4955953   4973839   4991848  
  4090.000000   5009950   5028138   5046397   5064711   5083072  
  4080.000000   5101455   5119863   5138274   5156703   5175106  
  4070.000000   5193480   5211731   5229820   5247625   5265111  
  4060.000000   5282171   5298806   5314930   5330564   5345618  
  4050.000000   5360123   5373996   5387299   5399970   5412090  
  4040.000000   5423579   5434485   5444682   5454198   5462908  
  4030.000000   5470877   5478023   5484438   5490049   5494908  
  4020.000000   5498882   5502007   5504230   5505629   5506152  
  4010.000000   5505965   5505168   5503795   5501606   5498673  
  4000.000000   5495363  
##END= 
