##TITLE= Sample 011 By ssteindl date Dienstag, November 20 2018
##JCAMP-DX= 4.24
##DATA TYPE= INFRARED SPECTRUM
##ORIGIN= Exported PE Spectrum Data File
##OWNER= Sandra Steindl
##DATE= 18/11/20
##TIME= 14:06:30.00
##SPECTROMETER/DATA SYSTEM= PERKIN-ELMER Frontier FT-IR/NIR IR
##INSTRUMENT PARAMETERS=
  APODIZATION=stark
  DETECTOR=INGAAS
##RESOLUTION= 16.000000
##DELTAX= -2.000000
##XUNITS= 1/CM
##YUNITS= A
##XFACTOR= 1.00
##YFACTOR= 0.00000011920928955078
##FIRSTX= 10000.00
##LASTX= 4000.00
##NPOINTS= 3001
##FIRSTY= 0.224047
##MAXY= 0.592331
##MINY= 0.194215
##XYDATA= (X++(Y..Y))
 10000.000000   1879443   1875851   1872046   1867637   1862480  
  9990.000000   1856890   1851647   1847832   1846517   1848288  
  9980.000000   1852940   1859369   1865953   1870955   1873150  
  9970.000000   1872034   1868021   1862109   1855670   1849956  
  9960.000000   1845951   1844155   1844653   1847156   1851109  
  9950.000000   1855814   1860505   1864564   1867591   1869614  
  9940.000000   1870981   1872293   1874083   1876572   1879564  
  9930.000000   1882439   1884493   1885153   1884287   1882181  
  9920.000000   1879359   1876346   1873344   1870313   1867024  
  9910.000000   1863459   1859944   1857234   1856176   1857371  
  9900.000000   1860693   1865249   1869494   1871833   1871171  
  9890.000000   1867365   1861304   1854517   1848620   1844653  
  9880.000000   1842781   1842297   1842025   1840820   1838033  
  9870.000000   1833681   1828403   1823127   1818761   1815885  
  9860.000000   1814657   1814806   1815802   1816986   1817815  
  9850.000000   1817949   1817409   1816545   1815998   1816496  
  9840.000000   1818615   1822530   1827854   1833683   1838845  
  9830.000000   1842276   1843424   1842427   1840078   1837468  
  9820.000000   1835586   1834903   1835258   1835941   1836052  
  9810.000000   1834880   1832190   1828353   1824142   1820531  
  9800.000000   1818300   1817921   1819422   1822520   1826685  
  9790.000000   1831290   1835655   1839135   1841173   1841438  
  9780.000000   1839910   1836946   1833233   1829573   1826711  
  9770.000000   1825025   1824458   1824490   1824305   1823111  
  9760.000000   1820360   1816059   1810724   1805330   1800976  
  9750.000000   1798605   1798707   1801154   1805225   1809725  
  9740.000000   1813357   1815006   1814115   1810781   1805753  
  9730.000000   1800187   1795312   1792120   1791094   1792177  
  9720.000000   1794837   1798316   1801854   1804870   1807039  
  9710.000000   1808221   1808389   1807516   1805575   1802562  
  9700.000000   1798595   1793952   1789092   1784598   1781080  
  9690.000000   1779078   1778913   1780650   1783974   1788264  
  9680.000000   1792620   1796061   1797748   1797181   1794412  
  9670.000000   1789987   1784894   1780191   1776771   1775041  
  9660.000000   1774891   1775792   1777069   1778202   1779000  
  9650.000000   1779619   1780399   1781638   1783420   1785546  
  9640.000000   1787642   1789310   1790290   1790562   1790312  
  9630.000000   1789877   1789607   1789827   1790787   1792654  
  9620.000000   1795455   1798979   1802686   1805709   1806997  
  9610.000000   1805660   1801298   1794326   1785928   1777865  
  9600.000000   1771909   1769331   1770451   1774547   1780090  
  9590.000000   1785252   1788458   1788810   1786215   1781289  
  9580.000000   1775050   1768611   1762960   1758815   1756655  
  9570.000000   1756633   1758622   1762100   1766214   1769904  
  9560.000000   1772136   1772255   1770149   1766376   1761973  
  9550.000000   1758147   1755917   1755768   1757599   1760734  
  9540.000000   1764227   1767086   1768548   1768204   1766010  
  9530.000000   1762277   1757552   1752581   1748175   1745111  
  9520.000000   1743963   1744917   1747714   1751631   1755689  
  9510.000000   1758890   1760479   1760134   1757989   1754578  
  9500.000000   1750650   1747001   1744313   1743074   1743526  
  9490.000000   1745632   1749053   1753154   1757118   1760068  
  9480.000000   1761328   1760545   1757836   1753692   1748845  
  9470.000000   1744027   1739788   1736455   1734184   1733147  
  9460.000000   1733583   1735804   1739954   1745839   1752733  
  9450.000000   1759483   1764744   1767371   1766808   1763251  
  9440.000000   1757671   1751451   1746016   1742356   1740824  
  9430.000000   1741145   1742605   1744387   1745751   1746269  
  9420.000000   1745783   1744464   1742627   1740692   1739022  
  9410.000000   1737861   1737306   1737230   1737401   1737440  
  9400.000000   1737051   1736036   1734426   1732418   1730277  
  9390.000000   1728251   1726475   1725041   1724026   1723616  
  9380.000000   1724071   1725697   1728658   1732836   1737709  
  9370.000000   1742402   1745911   1747390   1746448   1743224  
  9360.000000   1738354   1732719   1727235   1722590   1719146  
  9350.000000   1716947   1715786   1715375   1715374   1715509  
  9340.000000   1715512   1715232   1714608   1713769   1712967  
  9330.000000   1712510   1712615   1713256   1714181   1714917  
  9320.000000   1715020   1714182   1712414   1710003   1707406  
  9310.000000   1705044   1703138   1701663   1700445   1699304  
  9300.000000   1698212   1697310   1696836   1696947   1697585  
  9290.000000   1698455   1699146   1699336   1698960   1698278  
  9280.000000   1697761   1697891   1698919   1700751   1702986  
  9270.000000   1705093   1706660   1707516   1707784   1707677  
  9260.000000   1707372   1706829   1705844   1704159   1701655  
  9250.000000   1698513   1695224   1692516   1691093   1691454  
  9240.000000   1693678   1697486   1702262   1707268   1711728  
  9230.000000   1715017   1716746   1716806   1715402   1712958  
  9220.000000   1710097   1707423   1705393   1704087   1703226  
  9210.000000   1702278   1700732   1698353   1695290   1692147  
  9200.000000   1689723   1688793   1689700   1692310   1696017  
  9190.000000   1700036   1703650   1706428   1708281   1709328  
  9180.000000   1709739   1709544   1708650   1706870   1704134  
  9170.000000   1700563   1696521   1692475   1688847   1685901  
  9160.000000   1683707   1682229   1681405   1681257   1681839  
  9150.000000   1683171   1685074   1687163   1688919   1689909  
  9140.000000   1689994   1689431   1688819   1688847   1690007  
  9130.000000   1692293   1695166   1697720   1699068   1698650  
  9120.000000   1696448   1692981   1689086   1685599   1683029  
  9110.000000   1681488   1680754   1680473   1680340   1680222  
  9100.000000   1680143   1680186   1680336   1680448   1680273  
  9090.000000   1679612   1678457   1677021   1675743   1675056  
  9080.000000   1675263   1676349   1677971   1679584   1680616  
  9070.000000   1680738   1679969   1678694   1677536   1677125  
  9060.000000   1677893   1679861   1682605   1685360   1687263  
  9050.000000   1687598   1686027   1682746   1678449   1674138  
  9040.000000   1670781   1669089   1669300   1671149   1673940  
  9030.000000   1676797   1678954   1679926   1679580   1678105  
  9020.000000   1675898   1673410   1671014   1668943   1667340  
  9010.000000   1666255   1665707   1665665   1666067   1666789  
  9000.000000   1667642   1668423   1668941   1669094   1668865  
  8990.000000   1668343   1667695   1667116   1666793   1666847  
  8980.000000   1667322   1668164   1669224   1670282   1671093  
  8970.000000   1671445   1671221   1670441   1669261   1667941  
  8960.000000   1666739   1665855   1665345   1665176   1665257  
  8950.000000   1665524   1665946   1666530   1667263   1668043  
  8940.000000   1668659   1668817   1668270   1666889   1664767  
  8930.000000   1662181   1659540   1657230   1655502   1654434  
  8920.000000   1653965   1653985   1654408   1655217   1656430  
  8910.000000   1657999   1659740   1661314   1662343   1662522  
  8900.000000   1661794   1660361   1658686   1657299   1656654  
  8890.000000   1656945   1658090   1659800   1661710   1663535  
  8880.000000   1665100   1666385   1667431   1668300   1669019  
  8870.000000   1669589   1670046   1670435   1670831   1671241  
  8860.000000   1671587   1671667   1671230   1670114   1668354  
  8850.000000   1666279   1664419   1663396   1663672   1665400  
  8840.000000   1668303   1671782   1675070   1677508   1678719  
  8830.000000   1678681   1677680   1676157   1674566   1673213  
  8820.000000   1672216   1671512   1670952   1670372   1669659  
  8810.000000   1668786   1667799   1666827   1666023   1665551  
  8800.000000   1665523   1665951   1666742   1667675   1668500  
  8790.000000   1668966   1668970   1668557   1667967   1667529  
  8780.000000   1667575   1668324   1669824   1671945   1674445  
  8770.000000   1677053   1679557   1681840   1683880   1685700  
  8760.000000   1687329   1688758   1689950   1690846   1691396  
  8750.000000   1691590   1691472   1691146   1690748   1690453  
  8740.000000   1690409   1690744   1691486   1692581   1693846  
  8730.000000   1695042   1695912   1696275   1696082   1695430  
  8720.000000   1694534   1693641   1692951   1692544   1692382  
  8710.000000   1692336   1692287   1692172   1692036   1691996  
  8700.000000   1692188   1692687   1693471   1694420   1695374  
  8690.000000   1696203   1696873   1697460   1698133   1699067  
  8680.000000   1700390   1702111   1704123   1706228   1708193  
  8670.000000   1709821   1711003   1711745   1712161   1712428  
  8660.000000   1712734   1713224   1713958   1714886   1715875  
  8650.000000   1716738   1717319   1717524   1717374   1716989  
  8640.000000   1716556   1716273   1716287   1716687   1717502  
  8630.000000   1718727   1720339   1722307   1724583   1727075  
  8620.000000   1729629   1732043   1734115   1735704   1736783  
  8610.000000   1737445   1737886   1738318   1738898   1739672  
  8600.000000   1740582   1741499   1742298   1742913   1743365  
  8590.000000   1743747   1744159   1744684   1745334   1746088  
  8580.000000   1746900   1747767   1748727   1749856   1751205  
  8570.000000   1752771   1754475   1756169   1757687   1758879  
  8560.000000   1759676   1760060   1760072   1759764   1759189  
  8550.000000   1758413   1757527   1756697   1756155   1756182  
  8540.000000   1757000   1758717   1761238   1764270   1767353  
  8530.000000   1769981   1771747   1772427   1772061   1770900  
  8520.000000   1769358   1767859   1766743   1766191   1766219  
  8510.000000   1766733   1767584   1768662   1769923   1771393  
  8500.000000   1773103   1775040   1777105   1779088   1780729  
  8490.000000   1781771   1782097   1781748   1780966   1780124  
  8480.000000   1779642   1779864   1780950   1782859   1785365  
  8470.000000   1788144   1790842   1793181   1794992   1796233  
  8460.000000   1796947   1797244   1797256   1797122   1796967  
  8450.000000   1796894   1796984   1797271   1797734   1798294  
  8440.000000   1798835   1799243   1799414   1799313   1798967  
  8430.000000   1798483   1797994   1797657   1797616   1797980  
  8420.000000   1798799   1800049   1801623   1803341   1804972  
  8410.000000   1806279   1807078   1807295   1806985   1806322  
  8400.000000   1805539   1804866   1804453   1804348   1804473  
  8390.000000   1804693   1804863   1804895   1804764   1804510  
  8380.000000   1804195   1803865   1803523   1803121   1802597  
  8370.000000   1801906   1801069   1800168   1799337   1798715  
  8360.000000   1798407   1798451   1798800   1799348   1799960  
  8350.000000   1800515   1800938   1801211   1801368   1801468  
  8340.000000   1801560   1801662   1801748   1801759   1801635  
  8330.000000   1801342   1800895   1800357   1799810   1799327  
  8320.000000   1798929   1798584   1798210   1797730   1797106  
  8310.000000   1796378   1795652   1795062   1794709   1794624  
  8300.000000   1794735   1794911   1795006   1794927   1794670  
  8290.000000   1794311   1793963   1793708   1793554   1793421  
  8280.000000   1793172   1792683   1791906   1790900   1789813  
  8270.000000   1788836   1788128   1787776   1787756   1787968  
  8260.000000   1788259   1788493   1788564   1788425   1788066  
  8250.000000   1787518   1786838   1786099   1785376   1784727  
  8240.000000   1784169   1783662   1783111   1782390   1781385  
  8230.000000   1780062   1778483   1776827   1775311   1774135  
  8220.000000   1773389   1773026   1772875   1772702   1772293  
  8210.000000   1771524   1770393   1769002   1767497   1766014  
  8200.000000   1764631   1763371   1762228   1761197   1760297  
  8190.000000   1759562   1759011   1758627   1758324   1757989  
  8180.000000   1757506   1756815   1755935   1754958   1754013  
  8170.000000   1753203   1752563   1752033   1751483   1750763  
  8160.000000   1749763   1748456   1746904   1745240   1743607  
  8150.000000   1742128   1740841   1739725   1738688   1737638  
  8140.000000   1736514   1735323   1734140   1733064   1732186  
  8130.000000   1731519   1730986   1730411   1729584   1728310  
  8120.000000   1726511   1724259   1721793   1719455   1717593  
  8110.000000   1716457   1716115   1716443   1717167   1717956  
  8100.000000   1718528   1718710   1718473   1717889   1717079  
  8090.000000   1716137   1715112   1713999   1712793   1711512  
  8080.000000   1710229   1709051   1708076   1707366   1706904  
  8070.000000   1706629   1706438   1706250   1706012   1705707  
  8060.000000   1705332   1704866   1704265   1703461   1702412  
  8050.000000   1701121   1699672   1698206   1696888   1695848  
  8040.000000   1695142   1694742   1694548   1694444   1694326  
  8030.000000   1694143   1693892   1693594   1693272   1692931  
  8020.000000   1692554   1692124   1691641   1691122   1690608  
  8010.000000   1690129   1689696   1689285   1688842   1688304  
  8000.000000   1687621   1686767   1685747   1684593   1683356  
  7990.000000   1682092   1680877   1679787   1678899   1678273  
  7980.000000   1677923   1677812   1677845   1677905   1677892  
  7970.000000   1677764   1677555   1677359   1677283   1677379  
  7960.000000   1677618   1677864   1677946   1677693   1677037  
  7950.000000   1676025   1674822   1673647   1672702   1672112  
  7940.000000   1671892   1671977   1672262   1672660   1673128  
  7930.000000   1673662   1674270   1674933   1675589   1676139  
  7920.000000   1676482   1676552   1676343   1675910   1675344  
  7910.000000   1674736   1674156   1673642   1673206   1672857  
  7900.000000   1672597   1672432   1672341   1672277   1672161  
  7890.000000   1671910   1671468   1670836   1670086   1669334  
  7880.000000   1668701   1668256   1667994   1667830   1667645  
  7870.000000   1667343   1666890   1666345   1665831   1665494  
  7860.000000   1665434   1665684   1666193   1666851   1667532  
  7850.000000   1668118   1668532   1668714   1668632   1668252  
  7840.000000   1667572   1666617   1665470   1664277   1663215  
  7830.000000   1662467   1662159   1662349   1662994   1664005  
  7820.000000   1665251   1666615   1667985   1669264   1670342  
  7810.000000   1671084   1671352   1671025   1670063   1668520  
  7800.000000   1666567   1664445   1662412   1660675   1659342  
  7790.000000   1658422   1657834   1657481   1657270   1657162  
  7780.000000   1657149   1657241   1657429   1657666   1657877  
  7770.000000   1657967   1657871   1657553   1657039   1656382  
  7760.000000   1655659   1654936   1654259   1653653   1653119  
  7750.000000   1652655   1652245   1651875   1651524   1651166  
  7740.000000   1650777   1650330   1649809   1649200   1648496  
  7730.000000   1647692   1646791   1645809   1644785   1643783  
  7720.000000   1642891   1642191   1641743   1641556   1641577  
  7710.000000   1641707   1641824   1641831   1641680   1641387  
  7700.000000   1641028   1640696   1640473   1640389   1640418  
  7690.000000   1640475   1640451   1640242   1639789   1639093  
  7680.000000   1638220   1637287   1636431   1635778   1635404  
  7670.000000   1635325   1635486   1635777   1636063   1636222  
  7660.000000   1636178   1635918   1635486   1634967   1634444  
  7650.000000   1633978   1633586   1633255   1632959   1632682  
  7640.000000   1632437   1632250   1632145   1632121   1632135  
  7630.000000   1632108   1631959   1631635   1631146   1630558  
  7620.000000   1629981   1629525   1629260   1629197   1629294  
  7610.000000   1629479   1629695   1629915   1630152   1630440  
  7600.000000   1630799   1631217   1631643   1632009   1632262  
  7590.000000   1632387   1632432   1632472   1632587   1632812  
  7580.000000   1633119   1633414   1633575   1633499   1633146  
  7570.000000   1632569   1631902   1631329   1631027   1631105  
  7560.000000   1631578   1632352   1633260   1634095   1634676  
  7550.000000   1634887   1634724   1634289   1633772   1633389  
  7540.000000   1633332   1633710   1634522   1635652   1636914  
  7530.000000   1638089   1639009   1639584   1639840   1639880  
  7520.000000   1639858   1639914   1640146   1640577   1641187  
  7510.000000   1641919   1642733   1643614   1644581   1645664  
  7500.000000   1646884   1648226   1649637   1651040   1652362  
  7490.000000   1653557   1654631   1655629   1656632   1657712  
  7480.000000   1658916   1660239   1661636   1663032   1664356  
  7470.000000   1665549   1666594   1667499   1668301   1669040  
  7460.000000   1669752   1670465   1671204   1671998   1672884  
  7450.000000   1673903   1675096   1676485   1678068   1679804  
  7440.000000   1681632   1683471   1685256   1686937   1688501  
  7430.000000   1689955   1691334   1692677   1694026   1695413  
  7420.000000   1696860   1698380   1699975   1701643   1703367  
  7410.000000   1705130   1706910   1708681   1710421   1712106  
  7400.000000   1713711   1715207   1716567   1717770   1718815  
  7390.000000   1719732   1720591   1721481   1722501   1723728  
  7380.000000   1725190   1726858   1728647   1730450   1732172  
  7370.000000   1733760   1735221   1736612   1738018   1739519  
  7360.000000   1741168   1742966   1744879   1746845   1748799  
  7350.000000   1750688   1752473   1754137   1755674   1757092  
  7340.000000   1758399   1759621   1760784   1761926   1763079  
  7330.000000   1764268   1765498   1766759   1768023   1769253  
  7320.000000   1770418   1771495   1772480   1773384   1774236  
  7310.000000   1775077   1775953   1776906   1777967   1779149  
  7300.000000   1780440   1781812   1783222   1784635   1786025  
  7290.000000   1787389   1788733   1790073   1791407   1792719  
  7280.000000   1793975   1795132   1796158   1797039   1797789  
  7270.000000   1798438   1799025   1799576   1800108   1800626  
  7260.000000   1801138   1801661   1802229   1802881   1803652  
  7250.000000   1804549   1805559   1806642   1807765   1808908  
  7240.000000   1810090   1811343   1812721   1814237   1815889  
  7230.000000   1817613   1819345   1821008   1822576   1824055  
  7220.000000   1825509   1827009   1828642   1830465   1832520  
  7210.000000   1834811   1837337   1840062   1842950   1845930  
  7200.000000   1848937   1851889   1854733   1857442   1860045  
  7190.000000   1862603   1865211   1867950   1870879   1873995  
  7180.000000   1877261   1880600   1883941   1887226   1890434  
  7170.000000   1893559   1896624   1899641   1902636   1905618  
  7160.000000   1908617   1911651   1914760   1917966   1921299  
  7150.000000   1924756   1928344   1932047   1935867   1939790  
  7140.000000   1943822   1947944   1952150   1956410   1960728  
  7130.000000   1965107   1969602   1974268   1979182   1984370  
  7120.000000   1989829   1995482   2001227   2006938   2012539  
  7110.000000   2017985   2023311   2028561   2033804   2039064  
  7100.000000   2044354   2049650   2054950   2060263   2065649  
  7090.000000   2071178   2076925   2082917   2089136   2095509  
  7080.000000   2101939   2108334   2114645   2120872   2127069  
  7070.000000   2133304   2139639   2146095   2152647   2159221  
  7060.000000   2165731   2172088   2178239   2184164   2189886  
  7050.000000   2195456   2200935   2206378   2211818   2217271  
  7040.000000   2222735   2228214   2233717   2239280   2244939  
  7030.000000   2250736   2256679   2262751   2268888   2275010  
  7020.000000   2281025   2286871   2292507   2297933   2303164  
  7010.000000   2308226   2313136   2317912   2322569   2327146  
  7000.000000   2331678   2336224   2340806   2345431   2350049  
  6990.000000   2354597   2358986   2363169   2367124   2370890  
  6980.000000   2374513   2378057   2381547   2384999   2388391  
  6970.000000   2391720   2394983   2398210   2401414   2404609  
  6960.000000   2407755   2410801   2413672   2416336   2418793  
  6950.000000   2421116   2423389   2425702   2428085   2430517  
  6940.000000   2432911   2435179   2437245   2439105   2440799  
  6930.000000   2442415   2444032   2445704   2447425   2449165  
  6920.000000   2450867   2452497   2454034   2455495   2456899  
  6910.000000   2458275   2459633   2460987   2462340   2463709  
  6900.000000   2465098   2466513   2467930   2469310   2470599  
  6890.000000   2471754   2472753   2473612   2474370   2475075  
  6880.000000   2475763   2476450   2477132   2477808   2478485  
  6870.000000   2479201   2479992   2480890   2481886   2482932  
  6860.000000   2483947   2484856   2485619   2486249   2486809  
  6850.000000   2487382   2488029   2488760   2489523   2490234  
  6840.000000   2490805   2491192   2491410   2491531   2491651  
  6830.000000   2491859   2492200   2492676   2493245   2493858  
  6820.000000   2494463   2495033   2495551   2496017   2496426  
  6810.000000   2496778   2497074   2497327   2497557   2497793  
  6800.000000   2498053   2498341   2498634   2498897   2499081  
  6790.000000   2499158   2499107   2498939   2498671   2498335  
  6780.000000   2497955   2497559   2497162   2496781   2496417  
  6770.000000   2496066   2495706   2495313   2494861   2494349  
  6760.000000   2493797   2493254   2492779   2492425   2492210  
  6750.000000   2492117   2492092   2492070   2491995   2491834  
  6740.000000   2491591   2491285   2490945   2490589   2490226  
  6730.000000   2489857   2489491   2489148   2488861   2488657  
  6720.000000   2488541   2488490   2488447   2488347   2488135  
  6710.000000   2487791   2487330   2486802   2486260   2485742  
  6700.000000   2485258   2484790   2484299   2483752   2483124  
  6690.000000   2482413   2481623   2480771   2479870   2478943  
  6680.000000   2478010   2477107   2476265   2475510   2474841  
  6670.000000   2474230   2473620   2472945   2472148   2471206  
  6660.000000   2470129   2468959   2467745   2466530   2465326  
  6650.000000   2464131   2462924   2461697   2460450   2459209  
  6640.000000   2457999   2456843   2455738   2454661   2453567  
  6630.000000   2452418   2451182   2449855   2448452   2447007  
  6620.000000   2445551   2444118   2442721   2441371   2440061  
  6610.000000   2438781   2437509   2436215   2434859   2433398  
  6600.000000   2431794   2430028   2428106   2426070   2423989  
  6590.000000   2421952   2420047   2418340   2416855   2415569  
  6580.000000   2414412   2413284   2412084   2410735   2409206  
  6570.000000   2407523   2405759   2404007   2402356   2400859  
  6560.000000   2399524   2398315   2397171   2396035   2394870  
  6550.000000   2393669   2392450   2391236   2390041   2388854  
  6540.000000   2387645   2386370   2385000   2383524   2381970  
  6530.000000   2380388   2378845   2377405   2376112   2374980  
  6520.000000   2373992   2373106   2372265   2371407   2370489  
  6510.000000   2369484   2368400   2367267   2366132   2365041  
  6500.000000   2364028   2363095   2362223   2361375   2360513  
  6490.000000   2359620   2358697   2357767   2356855   2355978  
  6480.000000   2355124   2354261   2353346   2352339   2351222  
  6470.000000   2350006   2348724   2347421   2346140   2344910  
  6460.000000   2343748   2342662   2341653   2340722   2339869  
  6450.000000   2339085   2338358   2337669   2337003   2336355  
  6440.000000   2335729   2335136   2334581   2334048   2333507  
  6430.000000   2332904   2332192   2331338   2330355   2329282  
  6420.000000   2328196   2327170   2326268   2325521   2324931  
  6410.000000   2324478   2324137   2323885   2323704   2323577  
  6400.000000   2323481   2323388   2323269   2323100   2322875  
  6390.000000   2322606   2322317   2322033   2321764   2321504  
  6380.000000   2321229   2320907   2320515   2320044   2319504  
  6370.000000   2318919   2318313   2317710   2317119   2316549  
  6360.000000   2315999   2315471   2314964   2314477   2314000  
  6350.000000   2313525   2313040   2312543   2312041   2311552  
  6340.000000   2311092   2310670   2310279   2309898   2309496  
  6330.000000   2309053   2308554   2308005   2307417   2306804  
  6320.000000   2306162   2305480   2304730   2303890   2302946  
  6310.000000   2301909   2300803   2299663   2298519   2297396  
  6300.000000   2296296   2295224   2294169   2293127   2292086  
  6290.000000   2291036   2289953   2288821   2287619   2286345  
  6280.000000   2285007   2283634   2282252   2280884   2279530  
  6270.000000   2278176   2276792   2275351   2273833   2272239  
  6260.000000   2270581   2268876   2267138   2265374   2263587  
  6250.000000   2261787   2259993   2258240   2256559   2254978  
  6240.000000   2253496   2252091   2250716   2249324   2247873  
  6230.000000   2246347   2244752   2243109   2241447   2239787  
  6220.000000   2238143   2236518   2234912   2233320   2231735  
  6210.000000   2230149   2228549   2226917   2225244   2223530  
  6200.000000   2221791   2220060   2218377   2216771   2215258  
  6190.000000   2213824   2212440   2211064   2209662   2208209  
  6180.000000   2206702   2205149   2203572   2201994   2200441  
  6170.000000   2198936   2197505   2196167   2194932   2193793  
  6160.000000   2192726   2191690   2190642   2189542   2188373  
  6150.000000   2187135   2185849   2184544   2183249   2181981  
  6140.000000   2180751   2179556   2178395   2177261   2176148  
  6130.000000   2175043   2173929   2172787   2171605   2170383  
  6120.000000   2169141   2167909   2166729   2165630   2164630  
  6110.000000   2163724   2162892   2162108   2161354   2160618  
  6100.000000   2159904   2159215   2158557   2157925   2157312  
  6090.000000   2156702   2156092   2155477   2154868   2154271  
  6080.000000   2153702   2153167   2152682   2152256   2151912  
  6070.000000   2151660   2151516   2151473   2151521   2151629  
  6060.000000   2151777   2151946   2152148   2152397   2152734  
  6050.000000   2153181   2153764   2154477   2155315   2156251  
  6040.000000   2157278   2158382   2159568   2160829   2162168  
  6030.000000   2163568   2165023   2166522   2168078   2169701  
  6020.000000   2171416   2173228   2175136   2177106   2179100  
  6010.000000   2181068   2182984   2184832   2186635   2188419  
  6000.000000   2190227   2192084   2194017   2196029   2198132  
  5990.000000   2200321   2202607   2204986   2207462   2210017  
  5980.000000   2212643   2215315   2218026   2220770   2223559  
  5970.000000   2226403   2229322   2232317   2235396   2238543  
  5960.000000   2241751   2244997   2248275   2251562   2254856  
  5950.000000   2258146   2261439   2264748   2268102   2271527  
  5940.000000   2275054   2278694   2282444   2286277   2290159  
  5930.000000   2294051   2297924   2301760   2305547   2309278  
  5920.000000   2312936   2316502   2319952   2323273   2326464  
  5910.000000   2329547   2332548   2335498   2338410   2341284  
  5900.000000   2344104   2346861   2349552   2352204   2354848  
  5890.000000   2357529   2360268   2363073   2365914   2368753  
  5880.000000   2371545   2374261   2376885   2379419   2381865  
  5870.000000   2384225   2386488   2388648   2390701   2392666  
  5860.000000   2394579   2396487   2398438   2400466   2402581  
  5850.000000   2404776   2407034   2409338   2411680   2414060  
  5840.000000   2416485   2418958   2421475   2424022   2426581  
  5830.000000   2429134   2431666   2434166   2436626   2439039  
  5820.000000   2441398   2443700   2445947   2448153   2450333  
  5810.000000   2452506   2454672   2456830   2458949   2461013  
  5800.000000   2462986   2464877   2466683   2468443   2470159  
  5790.000000   2471854   2473484   2475011   2476334   2477367  
  5780.000000   2477997   2478150   2477758   2476818   2475346  
  5770.000000   2473429   2471165   2468696   2466140   2463619  
  5760.000000   2461199   2458933   2456822   2454869   2453054  
  5750.000000   2451370   2449800   2448335   2446951   2445624  
  5740.000000   2444334   2443068   2441842   2440675   2439612  
  5730.000000   2438675   2437883   2437219   2436660   2436160  
  5720.000000   2435695   2435239   2434794   2434358   2433941  
  5710.000000   2433537   2433147   2432766   2432403   2432073  
  5700.000000   2431801   2431603   2431482   2431426   2431402  
  5690.000000   2431386   2431349   2431291   2431209   2431113  
  5680.000000   2430992   2430827   2430568   2430175   2429600  
  5670.000000   2428822   2427833   2426651   2425290   2423780  
  5660.000000   2422136   2420391   2418567   2416707   2414841  
  5650.000000   2413001   2411192   2409409   2407627   2405829  
  5640.000000   2404005   2402170   2400355   2398600   2396939  
  5630.000000   2395389   2393952   2392612   2391355   2390164  
  5620.000000   2389033   2387951   2386910   2385892   2384881  
  5610.000000   2383863   2382840   2381823   2380836   2379896  
  5600.000000   2379009   2378159   2377319   2376459   2375560  
  5590.000000   2374623   2373667   2372722   2371809   2370937  
  5580.000000   2370095   2369264   2368422   2367556   2366664  
  5570.000000   2365750   2364815   2363853   2362849   2361790  
  5560.000000   2360670   2359501   2358307   2357124   2355979  
  5550.000000   2354888   2353846   2352838   2351841   2350841  
  5540.000000   2349832   2348817   2347799   2346779   2345751  
  5530.000000   2344705   2343636   2342545   2341440   2340337  
  5520.000000   2339248   2338179   2337128   2336088   2335049  
  5510.000000   2334006   2332954   2331893   2330813   2329709  
  5500.000000   2328568   2327387   2326168   2324925   2323671  
  5490.000000   2322418   2321162   2319887   2318569   2317189  
  5480.000000   2315736   2314223   2312668   2311104   2309547  
  5470.000000   2308010   2306485   2304964   2303432   2301884  
  5460.000000   2300312   2298711   2297065   2295357   2293572  
  5450.000000   2291707   2289777   2287817   2285870   2283971  
  5440.000000   2282138   2280367   2278640   2276937   2275258  
  5430.000000   2273610   2272016   2270485   2269019   2267591  
  5420.000000   2266176   2264752   2263333   2261953   2260681  
  5410.000000   2259567   2258649   2257913   2257329   2256838  
  5400.000000   2256415   2256036   2255730   2255515   2255433  
  5390.000000   2255485   2255680   2255993   2256429   2256985  
  5380.000000   2257695   2258570   2259638   2260871   2262253  
  5370.000000   2263719   2265254   2266816   2268436   2270114  
  5360.000000   2271913   2273842   2275963   2278279   2280864  
  5350.000000   2283730   2286964   2290575   2294628   2299089  
  5340.000000   2303981   2309240   2314894   2320896   2327305  
  5330.000000   2334088   2341308   2348914   2356954   2365367  
  5320.000000   2374225   2383502   2393316   2403664   2414673  
  5310.000000   2426315   2438677   2451685   2465398   2479741  
  5300.000000   2494792   2510512   2527019   2544309   2562510  
  5290.000000   2581598   2601644   2622546   2644273   2666649  
  5280.000000   2689614   2713036   2736947   2761335   2786320  
  5270.000000   2811922   2838180   2864984   2892192   2919589  
  5260.000000   2947009   2974352   3001609   3028845   3056114  
  5250.000000   3083442   3110717   3137793   3164404   3190384  
  5240.000000   3215549   3239923   3263505   3286464   3308849  
  5230.000000   3330789   3352220   3373138   3393362   3412845  
  5220.000000   3431432   3449172   3466033   3482178   3497643  
  5210.000000   3512594   3526998   3540909   3554172   3566763  
  5200.000000   3578522   3589494   3599631   3609081   3617856  
  5190.000000   3626093   3633743   3640856   3647317   3653151  
  5180.000000   3658266   3662735   3666519   3669714   3672286  
  5170.000000   3674307   3675732   3676638   3677007   3676943  
  5160.000000   3676446   3675604   3674383   3672823   3670863  
  5150.000000   3668536   3665813   3662767   3659401   3655792  
  5140.000000   3651930   3647853   3643526   3638973   3634177  
  5130.000000   3629182   3623996   3618670   3613208   3607646  
  5120.000000   3601980   3596245   3590451   3584640   3578822  
  5110.000000   3573016   3567204   3561370   3555486   3549547  
  5100.000000   3543558   3537555   3531574   3525656   3519817  
  5090.000000   3514062   3508371   3502729   3497116   3491528  
  5080.000000   3485955   3480397   3474836   3469254   3463624  
  5070.000000   3457932   3452169   3446350   3440490   3434614  
  5060.000000   3428726   3422826   3416888   3410894   3404820  
  5050.000000   3398665   3392430   3386136   3379796   3373427  
  5040.000000   3367028   3360598   3354126   3347609   3341045  
  5030.000000   3334441   3327808   3321159   3314510   3307876  
  5020.000000   3301276   3294721   3288232   3281815   3275486  
  5010.000000   3269246   3263108   3257071   3251157   3245367  
  5000.000000   3239733   3234258   3228972   3223869   3218971  
  4990.000000   3214261   3209760   3205445   3201340   3197421  
  4980.000000   3193713   3190193   3186891   3183792   3180944  
  4970.000000   3178342   3176046   3174053   3172413   3171106  
  4960.000000   3170166   3169556   3169303   3169372   3169796  
  4950.000000   3170542   3171645   3173063   3174826   3176892  
  4940.000000   3179296   3182006   3185075   3188482   3192279  
  4930.000000   3196433   3200977   3205862   3211105   3216658  
  4920.000000   3222543   3228722   3235221   3242005   3249096  
  4910.000000   3256456   3264104   3272008   3280186   3288612  
  4900.000000   3297286   3306168   3315233   3324430   3333719  
  4890.000000   3343061   3352423   3361782   3371106   3380370  
  4880.000000   3389519   3398518   3407292   3415805   3423984  
  4870.000000   3431808   3439214   3446199   3452715   3458780  
  4860.000000   3464371   3469535   3474269   3478635   3482632  
  4850.000000   3486312   3489662   3492723   3495481   3497985  
  4840.000000   3500241   3502309   3504210   3506000   3507693  
  4830.000000   3509326   3510902   3512447   3513963   3515473  
  4820.000000   3516983   3518509   3520054   3521623   3523214  
  4810.000000   3524827   3526461   3528117   3529798   3531502  
  4800.000000   3533227   3534969   3536721   3538480   3540248  
  4790.000000   3542027   3543829   3545665   3547544   3549477  
  4780.000000   3551463   3553501   3555578   3557676   3559767  
  4770.000000   3561822   3563802   3565683   3567436   3569056  
  4760.000000   3570540   3571908   3573172   3574357   3575465  
  4750.000000   3576503   3577448   3578286   3578985   3579537  
  4740.000000   3579928   3580179   3580305   3580347   3580332  
  4730.000000   3580292   3580238   3580175   3580089   3579968  
  4720.000000   3579795   3579562   3579269   3578925   3578550  
  4710.000000   3578162   3577790   3577455   3577184   3576993  
  4700.000000   3576905   3576932   3577094   3577399   3577861  
  4690.000000   3578484   3579274   3580223   3581322   3582541  
  4680.000000   3583853   3585206   3586561   3587865   3589091  
  4670.000000   3590209   3591228   3592152   3593023   3593876  
  4660.000000   3594767   3595741   3596856   3598147   3599652  
  4650.000000   3601380   3603334   3605488   3607810   3610254  
  4640.000000   3612781   3615356   3617960   3620581   3623216  
  4630.000000   3625861   3628508   3631140   3633733   3636262  
  4620.000000   3638697   3641017   3643195   3645216   3647056  
  4610.000000   3648706   3650151   3651405   3652474   3653399  
  4600.000000   3654205   3654942   3655625   3656282   3656898  
  4590.000000   3657473   3657972   3658385   3658674   3658833  
  4580.000000   3658832   3658668   3658323   3657806   3657117  
  4570.000000   3656284   3655328   3654285   3653177   3652028  
  4560.000000   3650842   3649626   3648372   3647085   3645765  
  4550.000000   3644426   3643076   3641726   3640379   3639032  
  4540.000000   3637679   3636310   3634926   3633523   3632116  
  4530.000000   3630711   3629332   3627986   3626703   3625491  
  4520.000000   3624392   3623415   3622611   3621980   3621574  
  4510.000000   3621380   3621448   3621765   3622400   3623351  
  4500.000000   3624710   3626483   3628764   3631549   3634923  
  4490.000000   3638867   3643466   3648702   3654659   3661314  
  4480.000000   3668729   3676849   3685700   3695190   3705317  
  4470.000000   3715977   3727163   3738784   3750836   3763236  
  4460.000000   3775978   3788982   3802234   3815656   3829232  
  4450.000000   3842898   3856640   3870415   3884217   3898027  
  4440.000000   3911839   3925649   3939441   3953216   3966937  
  4430.000000   3980604   3994164   4007613   4020882   4033966  
  4420.000000   4046777   4059298   4071423   4083121   4094273  
  4410.000000   4104842   4114714   4123867   4132216   4139779  
  4400.000000   4146526   4152530   4157820   4162514   4166677  
  4390.000000   4170447   4173901   4177172   4180328   4183477  
  4380.000000   4186663   4189956   4193369   4196939   4200669  
  4370.000000   4204584   4208697   4213034   4217611   4222438  
  4360.000000   4227510   4232811   4238303   4243955   4249698  
  4350.000000   4255498   4261265   4266977   4272547   4277991  
  4340.000000   4283260   4288397   4293340   4298040   4302280  
  4330.000000   4305787   4308143   4308955   4307860   4304716  
  4320.000000   4299596   4292878   4285112   4276991   4269135  
  4310.000000   4262065   4256052   4251195   4247389   4244471  
  4300.000000   4242231   4240506   4239178   4238169   4237441  
  4290.000000   4236942   4236662   4236553   4236632   4236885  
  4280.000000   4237351   4238041   4238976   4240154   4241554  
  4270.000000   4243158   4244911   4246759   4248576   4250204  
  4260.000000   4251404   4251917   4251476   4249895   4247089  
  4250.000000   4243140   4238255   4232767   4227024   4221377  
  4240.000000   4216065   4211253   4206961   4203154   4199719  
  4230.000000   4196551   4193534   4190590   4187659   4184705  
  4220.000000   4181726   4178719   4175728   4172782   4169962  
  4210.000000   4167318   4164933   4162842   4161089   4159658  
  4200.000000   4158540   4157672   4157012   4156483   4156057  
  4190.000000   4155677   4155356   4155075   4154883   4154780  
  4180.000000   4154827   4155019   4155406   4155975   4156777  
  4170.000000   4157807   4159140   4160795   4162864   4165374  
  4160.000000   4168404   4171949   4176051   4180660   4185783  
  4150.000000   4191346   4197348   4203717   4210472   4217559  
  4140.000000   4225025   4232836   4241052   4249643   4258659  
  4130.000000   4268053   4277860   4288022   4298570   4309465  
  4120.000000   4320757   4332436   4344568   4357158   4370263  
  4110.000000   4383874   4398013   4412629   4427696   4443120  
  4100.000000   4458837   4474739   4490766   4506849   4522972  
  4090.000000   4539123   4555319   4571570   4587884   4604263  
  4080.000000   4620690   4637165   4653659   4670177   4686668  
  4070.000000   4703114   4719413   4735513   4751289   4766704  
  4060.000000   4781662   4796179   4810194   4823742   4836755  
  4050.000000   4849266   4861200   4872618   4883466   4893835  
  4040.000000   4903666   4913019   4921780   4929959   4937409  
  4030.000000   4944141   4950038   4955147   4959399   4962859  
  4020.000000   4965458   4967291   4968376   4968831   4968646  
  4010.000000   4967970   4966871   4965354   4963182   4960391  
  4000.000000   4957281  
##END= 
