##TITLE= Sample 002 By ssteindl date Montag, November 19 2018
##JCAMP-DX= 4.24
##DATA TYPE= INFRARED SPECTRUM
##ORIGIN= Exported PE Spectrum Data File
##OWNER= Sandra Steindl
##DATE= 18/11/19
##TIME= 15:35:54.00
##SPECTROMETER/DATA SYSTEM= PERKIN-ELMER Frontier FT-IR/NIR IR
##INSTRUMENT PARAMETERS=
  APODIZATION=stark
  DETECTOR=INGAAS
##RESOLUTION= 16.000000
##DELTAX= -2.000000
##XUNITS= 1/CM
##YUNITS= A
##XFACTOR= 1.00
##YFACTOR= 0.00000000023841857910
##FIRSTX= 10000.00
##LASTX= 4000.00
##NPOINTS= 3001
##FIRSTY= -0.268246
##MAXY= 0.141450
##MINY= -0.290730
##XYDATA= (X++(Y..Y))
 10000.000000  -01125104997  -01123200445  -01121816797  -01121723808  -01123200620  
  9990.000000  -01126166035  -01130535983  -01136091138  -01142193420  -01147751162  
  9980.000000  -01151672121  -01153066211  -01151563752  -01147347038  -01141282683  
  9970.000000  -01134578717  -01128536539  -01124177922  -01122085887  -01122345508  
  9960.000000  -01124593330  -01128260485  -01132656774  -01137248433  -01141631545  
  9950.000000  -01145672709  -01149379141  -01152880135  -01156297269  -01159644408  
  9940.000000  -01162808183  -01165473795  -01167264084  -01167759704  -01166727775  
  9930.000000  -01164176183  -01160458131  -01156199161  -01152138768  -01148962136  
  9920.000000  -01147050272  -01146460703  -01146858699  -01147756400  -01148630850  
  9910.000000  -01149187175  -01149400905  -01149521107  -01149914575  -01150876927  
  9900.000000  -01152484503  -01154505114  -01156485848  -01157860927  -01158206977  
  9890.000000  -01157339404  -01155468326  -01153090970  -01150901004  -01149545090  
  9880.000000  -01149421120  -01150563131  -01152606642  -01154949601  -01156946737  
  9870.000000  -01158154061  -01158485851  -01158245730  -01157987290  -01158300469  
  9860.000000  -01159507778  -01161556799  -01163965861  -01166054396  -01167199857  
  9850.000000  -01167121971  -01166015165  -01164461037  -01163176514  -01162695286  
  9840.000000  -01163105277  -01163991849  -01164581487  -01164026785  -01161808749  
  9830.000000  -01157921519  -01152998324  -01148039159  -01144100304  -01141904090  
  9820.000000  -01141594070  -01142777459  -01144695074  -01146615910  -01148114088  
  9810.000000  -01149264347  -01150559665  -01152676328  -01156104737  -01160887257  
  9800.000000  -01166497688  -01171975599  -01176240659  -01178435556  -01178236552  
  9790.000000  -01175915084  -01172226142  -01168136850  -01164491927  -01161816436  
  9780.000000  -01160196244  -01159372872  -01158893890  -01158303482  -01157271840  
  9770.000000  -01155648291  -01153411677  -01150642554  -01147450931  -01144017700  
  9760.000000  -01140614869  -01137626622  -01135532107  -01134757256  -01135559833  
  9750.000000  -01137860695  -01141236410  -01144992855  -01148380111  -01150814541  
  9740.000000  -01152074336  -01152315970  -01152018204  -01151729904  -01151912072  
  9730.000000  -01152716795  -01154016207  -01155433958  -01156570894  -01157135925  
  9720.000000  -01157073852  -01156543835  -01155832766  -01155253538  -01155034475  
  9710.000000  -01155301751  -01156060900  -01157247710  -01158748192  -01160427769  
  9700.000000  -01162132082  -01163714227  -01165043651  -01166070855  -01166825606  
  9690.000000  -01167445752  -01168110514  -01168980638  -01170122911  -01171462596  
  9680.000000  -01172806583  -01173897308  -01174492360  -01174451968  -01173744260  
  9670.000000  -01172481125  -01170842984  -01169082979  -01167449782  -01166181857  
  9660.000000  -01165449903  -01165336518  -01165794814  -01166633151  -01167524065  
  9650.000000  -01168056068  -01167851060  -01166683621  -01164610492  -01161962106  
  9640.000000  -01159292222  -01157163778  -01156016568  -01155982799  -01156929626  
  9630.000000  -01158482829  -01160234787  -01161842902  -01163158801  -01164220975  
  9620.000000  -01165199226  -01166308504  -01167709921  -01169493657  -01171680876  
  9610.000000  -01174269935  -01177259981  -01180627942  -01184278800  -01187995776  
  9600.000000  -01191420928  -01194142186  -01195775999  -01196133279  -01195257061  
  9590.000000  -01193457367  -01191194823  -01188965343  -01187140919  -01185889619  
  9580.000000  -01185138309  -01184654858  -01184116491  -01183261123  -01181907641  
  9570.000000  -01180048005  -01177783914  -01175352957  -01173052002  -01171198007  
  9560.000000  -01170075679  -01169832932  -01170483072  -01171804036  -01173432237  
  9550.000000  -01174867749  -01175653593  -01175477734  -01174312139  -01172447886  
  9540.000000  -01170442810  -01168984618  -01168696443  -01169977020  -01172876740  
  9530.000000  -01177093362  -01182017676  -01186888833  -01190950603  -01193629851  
  9520.000000  -01194656300  -01194095410  -01192318149  -01189844916  -01187229557  
  9510.000000  -01184866259  -01182965779  -01181498424  -01180309178  -01179201408  
  9500.000000  -01178037796  -01176841392  -01175728032  -01174946731  -01174695697  
  9490.000000  -01175154657  -01176368421  -01178305245  -01180854431  -01183827848  
  9480.000000  -01186996977  -01190019311  -01192524267  -01194069151  -01194319259  
  9470.000000  -01193079517  -01190465439  -01186885923  -01182999035  -01179562685  
  9460.000000  -01177208287  -01176343294  -01177013205  -01179020102  -01181958272  
  9450.000000  -01185421692  -01189034306  -01192524976  -01195637280  -01198088152  
  9440.000000  -01199535773  -01199627548  -01198176703  -01195245627  -01191281049  
  9430.000000  -01186961064  -01183076041  -01180243341  -01178748336  -01178474394  
  9420.000000  -01178961521  -01179643881  -01180047081  -01180011054  -01179683135  
  9410.000000  -01179443568  -01179680788  -01180630075  -01182266923  -01184318116  
  9400.000000  -01186397374  -01188122646  -01189310737  -01189964375  -01190288428  
  9390.000000  -01190499019  -01190748843  -01191036299  -01191258354  -01191290758  
  9380.000000  -01191062496  -01190615275  -01190073813  -01189645555  -01189529614  
  9370.000000  -01189905310  -01190844640  -01192327914  -01194224274  -01196327574  
  9360.000000  -01198381596  -01200090094  -01201163911  -01201351346  -01200530184  
  9350.000000  -01198759673  -01196318423  -01193653188  -01191284185  -01189669474  
  9340.000000  -01189097705  -01189623722  -01191060562  -01193045691  -01195122101  
  9330.000000  -01196887255  -01198060693  -01198566786  -01198489244  -01198038281  
  9320.000000  -01197480915  -01197078200  -01197060920  -01197542111  -01198519248  
  9310.000000  -01199821056  -01201169419  -01202224083  -01202670046  -01202313876  
  9300.000000  -01201140948  -01199379272  -01197443919  -01195851913  -01195047268  
  9290.000000  -01195279199  -01196510051  -01198449325  -01200614703  -01202491465  
  9280.000000  -01203651033  -01203902661  -01203313991  -01202168437  -01200842954  
  9270.000000  -01199668097  -01198868368  -01198477888  -01198390839  -01198354826  
  9260.000000  -01198097913  -01197390562  -01196143814  -01194426915  -01192458701  
  9250.000000  -01190581382  -01189194979  -01188672055  -01189250950  -01190951455  
  9240.000000  -01193561760  -01196674815  -01199795265  -01202451394  -01204322461  
  9230.000000  -01205333929  -01205665009  -01205677787  -01205757994  -01206196284  
  9220.000000  -01207100008  -01208390431  -01209849596  -01211191079  -01212158395  
  9210.000000  -01212585829  -01212421455  -01211704601  -01210491994  -01208855656  
  9200.000000  -01206851815  -01204587958  -01202222445  -01199986677  -01198155816  
  9190.000000  -01196993859  -01196686155  -01197242991  -01198471159  -01200015323  
  9180.000000  -01201446800  -01202377196  -01202542593  -01201903368  -01200668756  
  9170.000000  -01199257075  -01198175109  -01197864432  -01198592801  -01200367084  
  9160.000000  -01202944200  -01205837493  -01208448173  -01210210192  -01210752934  
  9150.000000  -01209974546  -01208034571  -01205336554  -01202426066  -01199857092  
  9140.000000  -01198065345  -01197287718  -01197575371  -01198767789  -01200535050  
  9130.000000  -01202430119  -01203976491  -01204787884  -01204630588  -01203511805  
  9120.000000  -01201690987  -01199667302  -01198072323  -01197474059  -01198204148  
  9110.000000  -01200240683  -01203215764  -01206481354  -01209298010  -01211060500  
  9100.000000  -01211514498  -01210788101  -01209318447  -01207665885  -01206330856  
  9090.000000  -01205585254  -01205416153  -01205598457  -01205851973  -01205996298  
  9080.000000  -01206029214  -01206132203  -01206550584  -01207493672  -01208970407  
  9070.000000  -01210789786  -01212575226  -01213931741  -01214577934  -01214429455  
  9060.000000  -01213623948  -01212447049  -01211252076  -01210321394  -01209780648  
  9050.000000  -01209582312  -01209546196  -01209447775  -01209091652  -01208386665  
  9040.000000  -01207367440  -01206189619  -01205062464  -01204200192  -01203738687  
  9030.000000  -01203712367  -01204036096  -01204539052  -01205029876  -01205348451  
  9020.000000  -01205431358  -01205306687  -01205079639  -01204872556  -01204771271  
  9010.000000  -01204788441  -01204865510  -01204902024  -01204825552  -01204616965  
  9000.000000  -01204351813  -01204144005  -01204117661  -01204318231  -01204698086  
  8990.000000  -01205110454  -01205375465  -01205344613  -01204978163  -01204375994  
  8980.000000  -01203765126  -01203427724  -01203609210  -01204449384  -01205936150  
  8970.000000  -01207909982  -01210101188  -01212204355  -01213963841  -01215212302  
  8960.000000  -01215906758  -01216108478  -01215966477  -01215656401  -01215332179  
  8950.000000  -01215099656  -01215003455  -01215043541  -01215183989  -01215403661  
  8940.000000  -01215696673  -01216101711  -01216635748  -01217312579  -01218061630  
  8930.000000  -01218773333  -01219271417  -01219410776  -01219110475  -01218404592  
  8920.000000  -01217429857  -01216378311  -01215430156  -01214667587  -01214036052  
  8910.000000  -01213359594  -01212412682  -01211018015  -01209123637  -01206856939  
  8900.000000  -01204487857  -01202362686  -01200775788  -01199909465  -01199773463  
  8890.000000  -01200223598  -01201008888  -01201841738  -01202500867  -01202835436  
  8880.000000  -01202815588  -01202458793  -01201847119  -01201053325  -01200157595  
  8870.000000  -01199218291  -01198303970  -01197497996  -01196919073  -01196707821  
  8860.000000  -01197004610  -01197920850  -01199481166  -01201598541  -01204026129  
  8850.000000  -01206412075  -01208348402  -01209492722  -01209660207  -01208889865  
  8840.000000  -01207454916  -01205775566  -01204299594  -01203348145  -01203013911  
  8830.000000  -01203142965  -01203390290  -01203368734  -01202775578  -01201526082  
  8820.000000  -01199760556  -01197810778  -01196055934  -01194804881  -01194184989  
  8810.000000  -01194120909  -01194384553  -01194681395  -01194769102  -01194516038  
  8800.000000  -01193938470  -01193166169  -01192385105  -01191779757  -01191474279  
  8790.000000  -01191518064  -01191879622  -01192462419  -01193140916  -01193774087  
  8780.000000  -01194249985  -01194483086  -01194438503  -01194119796  -01193564276  
  8770.000000  -01192823737  -01191948968  -01190986701  -01189986656  -01189016671  
  8760.000000  -01188165088  -01187540940  -01187233798  -01187297048  -01187692974  
  8750.000000  -01188307440  -01188946984  -01189406013  -01189518957  -01189215949  
  8740.000000  -01188546861  -01187646505  -01186689570  -01185812192  -01185075454  
  8730.000000  -01184453059  -01183857571  -01183200051  -01182426611  -01181565704  
  8720.000000  -01180704387  -01179973798  -01179479548  -01179273101  -01179316639  
  8710.000000  -01179498095  -01179656276  -01179619038  -01179247999  -01178463465  
  8700.000000  -01177272927  -01175765970  -01174104641  -01172490738  -01171119899  
  8690.000000  -01170136384  -01169589306  -01169425275  -01169501136  -01169633052  
  8680.000000  -01169645156  -01169424648  -01168939429  -01168239493  -01167419382  
  8670.000000  -01166574783  -01165772899  -01165032423  -01164350526  -01163708906  
  8660.000000  -01163104850  -01162539881  -01162015489  -01161515592  -01161002709  
  8650.000000  -01160435886  -01159791107  -01159086437  -01158383827  -01157772746  
  8640.000000  -01157334688  -01157100217  -01157028661  -01157016179  -01156935334  
  8630.000000  -01156691494  -01156251831  -01155672218  -01155048642  -01154493519  
  8620.000000  -01154062477  -01153757385  -01153521594  -01153280286  -01152974258  
  8610.000000  -01152570294  -01152061127  -01151420818  -01150587466  -01149456323  
  8600.000000  -01147922982  -01145937191  -01143563441  -01141000324  -01138558792  
  8590.000000  -01136574091  -01135306844  -01134854563  -01135119991  -01135845997  
  8580.000000  -01136694848  -01137357521  -01137637348  -01137494428  -01137033417  
  8570.000000  -01136444486  -01135933388  -01135649157  -01135657985  -01135927434  
  8560.000000  -01136363228  -01136821189  -01137159051  -01137248133  -01137009546  
  8550.000000  -01136419028  -01135508956  -01134363933  -01133093976  -01131815179  
  8540.000000  -01130623111  -01129582835  -01128732231  -01128086869  -01127647129  
  8530.000000  -01127408014  -01127343228  -01127411632  -01127533634  -01127621357  
  8520.000000  -01127590806  -01127405816  -01127089817  -01126728099  -01126427388  
  8510.000000  -01126273021  -01126273324  -01126355038  -01126373825  -01126174656  
  8500.000000  -01125649324  -01124785122  -01123671293  -01122452681  -01121263295  
  8490.000000  -01120161037  -01119107375  -01117984156  -01116663966  -01115074152  
  8480.000000  -01113262526  -01111385569  -01109673234  -01108343640  -01107530807  
  8470.000000  -01107247902  -01107380844  -01107754642  -01108185110  -01108559962  
  8460.000000  -01108851326  -01109113090  -01109434319  -01109885857  -01110490781  
  8450.000000  -01111185065  -01111847350  -01112295829  -01112360035  -01111896042  
  8440.000000  -01110841712  -01109225244  -01107171730  -01104905637  -01102701307  
  8430.000000  -01100850450  -01099577068  -01099013570  -01099150050  -01099839682  
  8420.000000  -01100810391  -01101735129  -01102312782  -01102323682  -01101692089  
  8410.000000  -01100474970  -01098881338  -01097178076  -01095651401  -01094506157  
  8400.000000  -01093848139  -01093661983  -01093846190  -01094266760  -01094811851  
  8390.000000  -01095443473  -01096191681  -01097130848  -01098306310  -01099679377  
  8380.000000  -01101104878  -01102341603  -01103147611  -01103331963  -01102868552  
  8370.000000  -01101882685  -01100647678  -01099472104  -01098606510  -01098173476  
  8360.000000  -01098146170  -01098405279  -01098802395  -01099246294  -01099728048  
  8350.000000  -01100309459  -01101055434  -01101971822  -01102969163  -01103876162  
  8340.000000  -01104514384  -01104763954  -01104640417  -01104277970  -01103896930  
  8330.000000  -01103713560  -01103865966  -01104380174  -01105166095  -01106087813  
  8320.000000  -01107012871  -01107872222  -01108655698  -01109386120  -01110073466  
  8310.000000  -01110679693  -01111123245  -01111300420  -01111144294  -01110648109  
  8300.000000  -01109898681  -01109038521  -01108243590  -01107660742  -01107383550  
  8290.000000  -01107445424  -01107820813  -01108461698  -01109289870  -01110236878  
  8280.000000  -01111228479  -01112216208  -01113167766  -01114081551  -01114980428  
  8270.000000  -01115894408  -01116841703  -01117782437  -01118620773  -01119200741  
  8260.000000  -01119377146  -01119056044  -01118260998  -01117135050  -01115915136  
  8250.000000  -01114868793  -01114203479  -01114019451  -01114275304  -01114836630  
  8240.000000  -01115534118  -01116232270  -01116876185  -01117476859  -01118092087  
  8230.000000  -01118752557  -01119441008  -01120071676  -01120541138  -01120773900  
  8220.000000  -01120784728  -01120685787  -01120677490  -01120981697  -01121783676  
  8210.000000  -01123159753  -01125047998  -01127249719  -01129474263  -01131411970  
  8200.000000  -01132807045  -01133520441  -01133561022  -01133087553  -01132375107  
  8190.000000  -01131751841  -01131515759  -01131858276  -01132806744  -01134218229  
  8180.000000  -01135815249  -01137270931  -01138304099  -01138760485  -01138654825  
  8170.000000  -01138155091  -01137523660  -01137021471  -01136828884  -01136993707  
  8160.000000  -01137449709  -01138062716  -01138712704  -01139344943  -01139992001  
  8150.000000  -01140757190  -01141745566  -01143019158  -01144531566  -01146149927  
  8140.000000  -01147684986  -01148966902  -01149907154  -01150518348  -01150905824  
  8130.000000  -01151205678  -01151525995  -01151899016  -01152270870  -01152533893  
  8120.000000  -01152583701  -01152372968  -01151944123  -01151418200  -01150944697  
  8110.000000  -01150653560  -01150590921  -01150732422  -01150983552  -01151254758  
  8100.000000  -01151491874  -01151718807  -01152020221  -01152503707  -01153238516  
  8090.000000  -01154204711  -01155282089  -01156271588  -01156971909  -01157233260  
  8080.000000  -01157029591  -01156447803  -01155675992  -01154928673  -01154389077  
  8070.000000  -01154162451  -01154259017  -01154621172  -01155156525  -01155783415  
  8060.000000  -01156453405  -01157152792  -01157886755  -01158651357  -01159418020  
  8050.000000  -01160126382  -01160706599  -01161096939  -01161283061  -01161299938  
  8040.000000  -01161242195  -01161231343  -01161388945  -01161800050  -01162486224  
  8030.000000  -01163403982  -01164450865  -01165500387  -01166431359  -01167161780  
  8020.000000  -01167661081  -01167951586  -01168089528  -01168146578  -01168186695  
  8010.000000  -01168257854  -01168386105  -01168583725  -01168849933  -01169181603  
  8000.000000  -01169563741  -01169976762  -01170384753  -01170748414  -01171028673  
  7990.000000  -01171201917  -01171268032  -01171247429  -01171172973  -01171074491  
  7980.000000  -01170965349  -01170846796  -01170708715  -01170560124  -01170429388  
  7970.000000  -01170382041  -01170490732  -01170817275  -01171373178  -01172102818  
  7960.000000  -01172889069  -01173571443  -01174000220  -01174062876  -01173731154  
  7950.000000  -01173049587  -01172137024  -01171143364  -01170226948  -01169524276  
  7940.000000  -01169133120  -01169111843  -01169466251  -01170164078  -01171123186  
  7930.000000  -01172237074  -01173378217  -01174432346  -01175311826  -01175972872  
  7920.000000  -01176413881  -01176656676  -01176734725  -01176666036  -01176465296  
  7910.000000  -01176139606  -01175717868  -01175251600  -01174812809  -01174476483  
  7900.000000  -01174282455  -01174230800  -01174263429  -01174305854  -01174286442  
  7890.000000  -01174182898  -01174025875  -01173889783  -01173855095  -01173965612  
  7880.000000  -01174203879  -01174489926  -01174713674  -01174779856  -01174647936  
  7870.000000  -01174351789  -01173984026  -01173663230  -01173488652  -01173507851  
  7860.000000  -01173709606  -01174028475  -01174380259  -01174671927  -01174833747  
  7850.000000  -01174809298  -01174572665  -01174120853  -01173489187  -01172756641  
  7840.000000  -01172042834  -01171498104  -01171262362  -01171437579  -01172044530  
  7830.000000  -01173022362  -01174234090  -01175507805  -01176677495  -01177615590  
  7820.000000  -01178254735  -01178572917  -01178588386  -01178328725  -01177836976  
  7810.000000  -01177163503  -01176385450  -01175603333  -01174936141  -01174498194  
  7800.000000  -01174366958  -01174565331  -01175043240  -01175700055  -01176399755  
  7790.000000  -01177016290  -01177453527  -01177668156  -01177668855  -01177507033  
  7780.000000  -01177263786  -01177029021  -01176888992  -01176907210  -01177115491  
  7770.000000  -01177502935  -01178017899  -01178575860  -01179079418  -01179442075  
  7760.000000  -01179609656  -01179571749  -01179360243  -01179033183  -01178658770  
  7750.000000  -01178293200  -01177978467  -01177737565  -01177587216  -01177539591  
  7740.000000  -01177606095  -01177790995  -01178085588  -01178464396  -01178888808  
  7730.000000  -01179315659  -01179710741  -01180056829  -01180356925  -01180627546  
  7720.000000  -01180888512  -01181155711  -01181437842  -01181741701  -01182076452  
  7710.000000  -01182455380  -01182890142  -01183378714  -01183893966  -01184379879  
  7700.000000  -01184757672  -01184949654  -01184900459  -01184605343  -01184112739  
  7690.000000  -01183523182  -01182958564  -01182536703  -01182333955  -01182373247  
  7680.000000  -01182614426  -01182974710  -01183346195  -01183628574  -01183747660  
  7670.000000  -01183672904  -01183418891  -01183039783  -01182614397  -01182225841  
  7660.000000  -01181943200  -01181803509  -01181808698  -01181925656  -01182104130  
  7650.000000  -01182290520  -01182446586  -01182554616  -01182616639  -01182645130  
  7640.000000  -01182652027  -01182642023  -01182611688  -01182555801  -01182476674  
  7630.000000  -01182390129  -01182326606  -01182322281  -01182407364  -01182593316  
  7620.000000  -01182864547  -01183180948  -01183482557  -01183707659  -01183802990  
  7610.000000  -01183742369  -01183530438  -01183207539  -01182839249  -01182502727  
  7600.000000  -01182266624  -01182171264  -01182218091  -01182364358  -01182535871  
  7590.000000  -01182644081  -01182612833  -01182403464  -01182024274  -01181535126  
  7580.000000  -01181021717  -01180580590  -01180286565  -01180185741  -01180284495  
  7570.000000  -01180557262  -01180950778  -01181394926  -01181808693  -01182110771  
  7560.000000  -01182228136  -01182111213  -01181746142  -01181164618  -01180441937  
  7550.000000  -01179683659  -01178997555  -01178466521  -01178121773  -01177945167  
  7540.000000  -01177874181  -01177836624  -01177764465  -01177622361  -01177399572  
  7530.000000  -01177110439  -01176770708  -01176390573  -01175967900  -01175495428  
  7520.000000  -01174972441  -01174411668  -01173840689  -01173292133  -01172790944  
  7510.000000  -01172346923  -01171950546  -01171584960  -01171229885  -01170878130  
  7500.000000  -01170526006  -01170178629  -01169828681  -01169464383  -01169062543  
  7490.000000  -01168608573  -01168103055  -01167569962  -01167048913  -01166574862  
  7480.000000  -01166156856  -01165762902  -01165321692  -01164745456  -01163961378  
  7470.000000  -01162949080  -01161756151  -01160494579  -01159305848  -01158322606  
  7460.000000  -01157620383  -01157202063  -01156988641  -01156857568  -01156673664  
  7450.000000  -01156340444  -01155817130  -01155129649  -01154346386  -01153553728  
  7440.000000  -01152818548  -01152168706  -01151583965  -01151007597  -01150371130  
  7430.000000  -01149616743  -01148718522  -01147689606  -01146573429  -01145431915  
  7420.000000  -01144316452  -01143261284  -01142271063  -01141332086  -01140423495  
  7410.000000  -01139530351  -01138653313  -01137803951  -01136994739  -01136227555  
  7400.000000  -01135484283  -01134734074  -01133944613  -01133102714  -01132225939  
  7390.000000  -01131361703  -01130571478  -01129906505  -01129382461  -01128967260  
  7380.000000  -01128585879  -01128145104  -01127567931  -01126817176  -01125907400  
  7370.000000  -01124890974  -01123835912  -01122796325  -01121795485  -01120824431  
  7360.000000  -01119857800  -01118874808  -01117876652  -01116890131  -01115956057  
  7350.000000  -01115110880  -01114366532  -01113703316  -01113078086  -01112440820  
  7340.000000  -01111761757  -01111037113  -01110292971  -01109563288  -01108874619  
  7330.000000  -01108232489  -01107621627  -01107021593  -01106421122  -01105834466  
  7320.000000  -01105295869  -01104848292  -01104514327  -01104279080  -01104079646  
  7310.000000  -01103819292  -01103399105  -01102748074  -01101854743  -01100761697  
  7300.000000  -01099555056  -01098327124  -01097149230  -01096055836  -01095043412  
  7290.000000  -01094096391  -01093203737  -01092383941  -01091674636  -01091124373  
  7280.000000  -01090757295  -01090559597  -01090465089  -01090373976  -01090178113  
  7270.000000  -01089792787  -01089183681  -01088369015  -01087415325  -01086404790  
  7260.000000  -01085414779  -01084494317  -01083660823  -01082906038  -01082201392  
  7250.000000  -01081518630  -01080824462  -01080101284  -01079330636  -01078516283  
  7240.000000  -01077668336  -01076821052  -01076010651  -01075274996  -01074622546  
  7230.000000  -01074029751  -01073424734  -01072716320  -01071807716  -01070647773  
  7220.000000  -01069237811  -01067651687  -01065999736  -01064408144  -01062963885  
  7210.000000  -01061696600  -01060554878  -01059434855  -01058205876  -01056765368  
  7200.000000  -01055063167  -01053122563  -01051021276  -01048873156  -01046786625  
  7190.000000  -01044849127  -01043097507  -01041531593  -01040105484  -01038762125  
  7180.000000  -01037434719  -01036081612  -01034683031  -01033254582  -01031827389  
  7170.000000  -01030437970  -01029099438  -01027787199  -01026430348  -01024930815  
  7160.000000  -01023192759  -01021162922  -01018852004  -01016349298  -01013794295  
  7150.000000  -01011352253  -01009149296  -01007252426  -01005626922  -01004169682  
  7140.000000  -01002719968  -01001134610  -00999308930  -00997222499  -00994912670  
  7130.000000  -00992466152  -00989968121  -00987488954  -00985057619  -00982671399  
  7120.000000  -00980295054  -00977885551  -00975395668  -00972798997  -00970081593  
  7110.000000  -00967264026  -00964381423  -00961498792  -00958678945  -00955981394  
  7100.000000  -00953428776  -00951004735  -00948647516  -00946268568  -00943777912  
  7090.000000  -00941114204  -00938265720  -00935273250  -00932215378  -00929183385  
  7080.000000  -00926255699  -00923479271  -00920865496  -00918395181  -00916033521  
  7070.000000  -00913741417  -00911483654  -00909231244  -00906958499  -00904645384  
  7060.000000  -00902278159  -00899857182  -00897400198  -00894940219  -00892518251  
  7050.000000  -00890166181  -00887895787  -00885689945  -00883508339  -00881300056  
  7040.000000  -00879022302  -00876653333  -00874201122  -00871693183  -00869169350  
  7030.000000  -00866659819  -00864182140  -00861730963  -00859291760  -00856845000  
  7020.000000  -00854386778  -00851928863  -00849507532  -00847169342  -00844965300  
  7010.000000  -00842931414  -00841080267  -00839391027  -00837815646  -00836285909  
  7000.000000  -00834738298  -00833123591  -00831430100  -00829673075  -00827898649  
  6990.000000  -00826150068  -00824463410  -00822837629  -00821250462  -00819652466  
  6980.000000  -00818003213  -00816275275  -00814479395  -00812650735  -00810846023  
  6970.000000  -00809118673  -00807510281  -00806037921  -00804699409  -00803475755  
  6960.000000  -00802344477  -00801279043  -00800258229  -00799257109  -00798258350  
  6950.000000  -00797242354  -00796204033  -00795140238  -00794063490  -00792980486  
  6940.000000  -00791901851  -00790822603  -00789739462  -00788644749  -00787546998  
  6930.000000  -00786467900  -00785445981  -00784520663  -00783719974  -00783045390  
  6920.000000  -00782472722  -00781955278  -00781445562  -00780904064  -00780316924  
  6910.000000  -00779684716  -00779022809  -00778338437  -00777636838  -00776911497  
  6900.000000  -00776166073  -00775411377  -00774678911  -00774004424  -00773420740  
  6890.000000  -00772938621  -00772543080  -00772199760  -00771869661  -00771529812  
  6880.000000  -00771179817  -00770841918  -00770544618  -00770305115  -00770117164  
  6870.000000  -00769947121  -00769748373  -00769475559  -00769103378  -00768629302  
  6860.000000  -00768069682  -00767447656  -00766783630  -00766093203  -00765390821  
  6850.000000  -00764697619  -00764042939  -00763459337  -00762968356  -00762566278  
  6840.000000  -00762218812  -00761867851  -00761455672  -00760945690  -00760344699  
  6830.000000  -00759696678  -00759072883  -00758536554  -00758126595  -00757838148  
  6820.000000  -00757638410  -00757479954  -00757331085  -00757184401  -00757059112  
  6810.000000  -00756982975  -00756974349  -00757028009  -00757117053  -00757202607  
  6800.000000  -00757255574  -00757262094  -00757232688  -00757181582  -00757121573  
  6790.000000  -00757043506  -00756925249  -00756737147  -00756463832  -00756115306  
  6780.000000  -00755729932  -00755365624  -00755078643  -00754910214  -00754870025  
  6770.000000  -00754944040  -00755096561  -00755290499  -00755490464  -00755670906  
  6760.000000  -00755810179  -00755889174  -00755889627  -00755797430  -00755609057  
  6750.000000  -00755334495  -00754998831  -00754633715  -00754270669  -00753930754  
  6740.000000  -00753622055  -00753342272  -00753081988  -00752835345  -00752597281  
  6730.000000  -00752369980  -00752152936  -00751947194  -00751750333  -00751562651  
  6720.000000  -00751388265  -00751234971  -00751112609  -00751022389  -00750956013  
  6710.000000  -00750888337  -00750789052  -00750627243  -00750389123  -00750080982  
  6700.000000  -00749733758  -00749391539  -00749101000  -00748896190  -00748791677  
  6690.000000  -00748780090  -00748839501  -00748939270  -00749052842  -00749156463  
  6680.000000  -00749238757  -00749289603  -00749308856  -00749293654  -00749249494  
  6670.000000  -00749180176  -00749098891  -00749019644  -00748965331  -00748959934  
  6660.000000  -00749031631  -00749204716  -00749497047  -00749911247  -00750432877  
  6650.000000  -00751025438  -00751640652  -00752220872  -00752721061  -00753109510  
  6640.000000  -00753385022  -00753564291  -00753685421  -00753787376  -00753910140  
  6630.000000  -00754081339  -00754322529  -00754644866  -00755055650  -00755553425  
  6620.000000  -00756129550  -00756762178  -00757421259  -00758069075  -00758674433  
  6610.000000  -00759215620  -00759693103  -00760121480  -00760531803  -00760953904  
  6600.000000  -00761417087  -00761937407  -00762525142  -00763180325  -00763900277  
  6590.000000  -00764674881  -00765489192  -00766318866  -00767136344  -00767912931  
  6580.000000  -00768631379  -00769287715  -00769897697  -00770486597  -00771084804  
  6570.000000  -00771712630  -00772378898  -00773077848  -00773797666  -00774527963  
  6560.000000  -00775264116  -00776009887  -00776768973  -00777542377  -00778321426  
  6550.000000  -00779091661  -00779837962  -00780551215  -00781232712  -00781889866  
  6540.000000  -00782530203  -00783152864  -00783745949  -00784292391  -00784779128  
  6530.000000  -00785210969  -00785613193  -00786029496  -00786505567  -00787073039  
  6520.000000  -00787735092  -00788463384  -00789207937  -00789912758  -00790536475  
  6510.000000  -00791061537  -00791499817  -00791881616  -00792248190  -00792636273  
  6500.000000  -00793076343  -00793586390  -00794177685  -00794851091  -00795600443  
  6490.000000  -00796407128  -00797244178  -00798077717  -00798878675  -00799629264  
  6480.000000  -00800332475  -00801007087  -00801684043  -00802388718  -00803135471  
  6470.000000  -00803917870  -00804716815  -00805507786  -00806273009  -00807009690  
  6460.000000  -00807727014  -00808444394  -00809176499  -00809932299  -00810706025  
  6450.000000  -00811485984  -00812254292  -00812996318  -00813698472  -00814350983  
  6440.000000  -00814942594  -00815464506  -00815908171  -00816275544  -00816576102  
  6430.000000  -00816834910  -00817080305  -00817345148  -00817649258  -00818003500  
  6420.000000  -00818398402  -00818818527  -00819237952  -00819637071  -00819996934  
  6410.000000  -00820309165  -00820568335  -00820776423  -00820937619  -00821060760  
  6400.000000  -00821155738  -00821233349  -00821301370  -00821364128  -00821421461  
  6390.000000  -00821472611  -00821518141  -00821565019  -00821624045  -00821709734  
  6380.000000  -00821831662  -00821992392  -00822182798  -00822386563  -00822585395  
  6370.000000  -00822766734  -00822929200  -00823080720  -00823236153  -00823406289  
  6360.000000  -00823596443  -00823799103  -00824002659  -00824191335  -00824357364  
  6350.000000  -00824498194  -00824621838  -00824738390  -00824862119  -00825004609  
  6340.000000  -00825178991  -00825396019  -00825666646  -00825996223  -00826383916  
  6330.000000  -00826817901  -00827279441  -00827744391  -00828194462  -00828619528  
  6320.000000  -00829025550  -00829425404  -00829837038  -00830267807  -00830715667  
  6310.000000  -00831163122  -00831590668  -00831981095  -00832333280  -00832660394  
  6300.000000  -00832988919  -00833346668  -00833754562  -00834218689  -00834731182  
  6290.000000  -00835273429  -00835826408  -00836373349  -00836907760  -00837426566  
  6280.000000  -00837933413  -00838428542  -00838913724  -00839387243  -00839851737  
  6270.000000  -00840311355  -00840777214  -00841262646  -00841784338  -00842356333  
  6260.000000  -00842988132  -00843681185  -00844427721  -00845210312  -00846005061  
  6250.000000  -00846783916  -00847523832  -00848207868  -00848833438  -00849406982  
  6240.000000  -00849944957  -00850463243  -00850975375  -00851487035  -00852000622  
  6230.000000  -00852518483  -00853047912  -00853602824  -00854197768  -00854844591  
  6220.000000  -00855540986  -00856272477  -00857010467  -00857725822  -00858395658  
  6210.000000  -00859014018  -00859589695  -00860141852  -00860687376  -00861233647  
  6200.000000  -00861772696  -00862287815  -00862759960  -00863180805  -00863554174  
  6190.000000  -00863898006  -00864232312  -00864574185  -00864927255  -00865285679  
  6180.000000  -00865635480  -00865965396  -00866269794  -00866552004  -00866819909  
  6170.000000  -00867081830  -00867342798  -00867604592  -00867868866  -00868140492  
  6160.000000  -00868428934  -00868745715  -00869099518  -00869491165  -00869912060  
  6150.000000  -00870346967  -00870780688  -00871204389  -00871619504  -00872034686  
  6140.000000  -00872460555  -00872900957  -00873349943  -00873792085  -00874208914  
  6130.000000  -00874587291  -00874924291  -00875229858  -00875520894  -00875816506  
  6120.000000  -00876128970  -00876462978  -00876812683  -00877168247  -00877515264  
  6110.000000  -00877841769  -00878135025  -00878387274  -00878592464  -00878753852  
  6100.000000  -00878880270  -00878991791  -00879108884  -00879252669  -00879429814  
  6090.000000  -00879636271  -00879850171  -00880047393  -00880202255  -00880305376  
  6080.000000  -00880356626  -00880371923  -00880364209  -00880345697  -00880312146  
  6070.000000  -00880255527  -00880158830  -00880015567  -00879821814  -00879589442  
  6060.000000  -00879326638  -00879046899  -00878747747  -00878428074  -00878073649  
  6050.000000  -00877681309  -00877243366  -00876766731  -00876250185  -00875698956  
  6040.000000  -00875103009  -00874457037  -00873745787  -00872968006  -00872120915  
  6030.000000  -00871217570  -00870264708  -00869275045  -00868246501  -00867180321  
  6020.000000  -00866066658  -00864908192  -00863703659  -00862467710  -00861206874  
  6010.000000  -00859936452  -00858655991  -00857370741  -00856071693  -00854760610  
  6000.000000  -00853429255  -00852079909  -00850701222  -00849286716  -00847815355  
  5990.000000  -00846274910  -00844647838  -00842935353  -00841138537  -00839275794  
  5980.000000  -00837356327  -00835395980  -00833393110  -00831352640  -00829267745  
  5970.000000  -00827147257  -00824992634  -00822818944  -00820625028  -00818412539  
  5960.000000  -00816161941  -00813859619  -00811484323  -00809034731  -00806513319  
  5950.000000  -00803940713  -00801332849  -00798705944  -00796061200  -00793393651  
  5940.000000  -00790693136  -00787953870  -00785179621  -00782380817  -00779574624  
  5930.000000  -00776772236  -00773983425  -00771209379  -00768458843  -00765744760  
  5920.000000  -00763098439  -00760555869  -00758159375  -00755934524  -00753891938  
  5910.000000  -00752013987  -00750272674  -00748626748  -00747046430  -00745502449  
  5900.000000  -00743985274  -00742478645  -00740978408  -00739463775  -00737926947  
  5890.000000  -00736350263  -00734739044  -00733096999  -00731449043  -00729814473  
  5880.000000  -00728221696  -00726689880  -00725241270  -00723893635  -00722665652  
  5870.000000  -00721570389  -00720610910  -00719774207  -00719029858  -00718333478  
  5860.000000  -00717637590  -00716901079  -00716100155  -00715226489  -00714285853  
  5850.000000  -00713285777  -00712232416  -00711124751  -00709960045  -00708739254  
  5840.000000  -00707471204  -00706175607  -00704873204  -00703583949  -00702313241  
  5830.000000  -00701058317  -00699804276  -00698539966  -00697257400  -00695961374  
  5820.000000  -00694660351  -00693364729  -00692077465  -00690794483  -00689509071  
  5810.000000  -00688216000  -00686923413  -00685643849  -00684402522  -00683209649  
  5800.000000  -00682074027  -00680973948  -00679891928  -00678793692  -00677675326  
  5790.000000  -00676535585  -00675414584  -00674350763  -00673409356  -00672635813  
  5780.000000  -00672084699  -00671781902  -00671755414  -00672003276  -00672520470  
  5770.000000  -00673269844  -00674210973  -00675279625  -00676424954  -00677592527  
  5760.000000  -00678759498  -00679905549  -00681035933  -00682141373  -00683219417  
  5750.000000  -00684244276  -00685198261  -00686058983  -00686827638  -00687518318  
  5740.000000  -00688164667  -00688804215  -00689469840  -00690182729  -00690947097  
  5730.000000  -00691758324  -00692602170  -00693466339  -00694335625  -00695198053  
  5720.000000  -00696038245  -00696844003  -00697605031  -00698321338  -00699001235  
  5710.000000  -00699662453  -00700322908  -00700995633  -00701681459  -00702370578  
  5700.000000  -00703046224  -00703693339  -00704304722  -00704881893  -00705434395  
  5690.000000  -00705968716  -00706490352  -00706992947  -00707473842  -00707926896  
  5680.000000  -00708362004  -00708791972  -00709243508  -00709738550  -00710301735  
  5670.000000  -00710948198  -00711695288  -00712556910  -00713552141  -00714693796  
  5660.000000  -00715988259  -00717419679  -00718954460  -00720536842  -00722108850  
  5650.000000  -00723616243  -00725028945  -00726337819  -00727558407  -00728714577  
  5640.000000  -00729833082  -00730931944  -00732020219  -00733100122  -00734167811  
  5630.000000  -00735220204  -00736247584  -00737241516  -00738184580  -00739065775  
  5620.000000  -00739873006  -00740611875  -00741292710  -00741940687  -00742574047  
  5610.000000  -00743208992  -00743842765  -00744467307  -00745064711  -00745627088  
  5600.000000  -00746150532  -00746645533  -00747120118  -00747582174  -00748025719  
  5590.000000  -00748440226  -00748810573  -00749131270  -00749406676  -00749654062  
  5580.000000  -00749893029  -00750139821  -00750398603  -00750664446  -00750927245  
  5570.000000  -00751182341  -00751434177  -00751696910  -00751987133  -00752314954  
  5560.000000  -00752678961  -00753065126  -00753455096  -00753833488  -00754196470  
  5550.000000  -00754550683  -00754910039  -00755285534  -00755682022  -00756095308  
  5540.000000  -00756519195  -00756950066  -00757391014  -00757848574  -00758326270  
  5530.000000  -00758816764  -00759302586  -00759758660  -00760168101  -00760526735  
  5520.000000  -00760851923  -00761169767  -00761506490  -00761870181  -00762249746  
  5510.000000  -00762618340  -00762953462  -00763251408  -00763539721  -00763868696  
  5500.000000  -00764295926  -00764857885  -00765554433  -00766340697  -00767146657  
  5490.000000  -00767899771  -00768556957  -00769112716  -00769600758  -00770070477  
  5480.000000  -00770572047  -00771134008  -00771765326  -00772454429  -00773186342  
  5470.000000  -00773943253  -00774712811  -00775477575  -00776219672  -00776917204  
  5460.000000  -00777558074  -00778146860  -00778710040  -00779292103  -00779937550  
  5450.000000  -00780676677  -00781510079  -00782411361  -00783340452  -00784263753  
  5440.000000  -00785168136  -00786061414  -00786952583  -00787835257  -00788667498  
  5430.000000  -00789386461  -00789928239  -00790271077  -00790451817  -00790572043  
  5420.000000  -00790757444  -00791122793  -00791709340  -00792476334  -00793292306  
  5410.000000  -00794002403  -00794473687  -00794664506  -00794615633  -00794441286  
  5400.000000  -00794255239  -00794146866  -00794127355  -00794159314  -00794157912  
  5390.000000  -00794060288  -00793830756  -00793494931  -00793092612  -00792674620  
  5380.000000  -00792244899  -00791782819  -00791222309  -00790511529  -00789606243  
  5370.000000  -00788517125  -00787269812  -00785924929  -00784515949  -00783083514  
  5360.000000  -00781621482  -00780142508  -00778624441  -00777081736  -00775492129  
  5350.000000  -00773861311  -00772139535  -00770297978  -00768256553  -00765981974  
  5340.000000  -00763417190  -00760575782  -00757447195  -00754079585  -00750469023  
  5330.000000  -00746652555  -00742600596  -00738332748  -00733811301  -00729063237  
  5320.000000  -00724058268  -00718828973  -00713334377  -00707588746  -00701521069  
  5310.000000  -00695123244  -00688313047  -00681090163  -00673398540  -00665271722  
  5300.000000  -00656692949  -00647723557  -00638361390  -00628662803  -00618606817  
  5290.000000  -00608222349  -00597466983  -00586358859  -00574871367  -00563049660  
  5280.000000  -00550906436  -00538512024  -00525890013  -00513094263  -00500119364  
  5270.000000  -00486979984  -00473652980  -00460146710  -00446468849  -00432658722  
  5260.000000  -00418767969  -00404852438  -00390967994  -00377148523  -00363427715  
  5250.000000  -00349811727  -00336325616  -00322967776  -00309779975  -00296769674  
  5240.000000  -00284000093  -00271482846  -00259283703  -00247399046  -00235870649  
  5230.000000  -00224661401  -00213782400  -00203178669  -00192868745  -00182825812  
  5220.000000  -00173111165  -00163731404  -00154760859  -00146187914  -00138044510  
  5210.000000  -00130266326  -00122843001  -00115693143  -00108822577  -00102186177  
  5200.000000  -00095831974  -00089742294  -00083972507  -00078497696  -00073358553  
  5190.000000  -00068523167  -00064029964  -00059851042  -00056022483  -00052506186  
  5180.000000  -00049318659  -00046404196  -00043770147  -00041370539  -00039234170  
  5170.000000  -00037343184  -00035743610  -00034418778  -00033395612  -00032629792  
  5160.000000  -00032121753  -00031817498  -00031724073  -00031811534  -00032111188  
  5150.000000  -00032613106  -00033350163  -00034304420  -00035489016  -00036869888  
  5140.000000  -00038444602  -00040173647  -00042050965  -00044040452  -00046137991  
  5130.000000  -00048315473  -00050575582  -00052901465  -00055301272  -00057761298  
  5120.000000  -00060282700  -00062842156  -00065426916  -00068008892  -00070577107  
  5110.000000  -00073119560  -00075643089  -00078155261  -00080671621  -00083199763  
  5100.000000  -00085744411  -00088299475  -00090856915  -00093403746  -00095929841  
  5090.000000  -00098423045  -00100874369  -00103272617  -00105612484  -00107891039  
  5080.000000  -00110118321  -00112310500  -00114496125  -00116701380  -00118952261  
  5070.000000  -00121259496  -00123626749  -00126043597  -00128502042  -00130992292  
  5060.000000  -00133517770  -00136082551  -00138699675  -00141372221  -00144103594  
  5050.000000  -00146882026  -00149699165  -00152538960  -00155398322  -00158272546  
  5040.000000  -00161169751  -00164092135  -00167046435  -00170028859  -00173036573  
  5030.000000  -00176059868  -00179092633  -00182127703  -00185161583  -00188191002  
  5020.000000  -00191212478  -00194223054  -00197217232  -00200192794  -00203144196  
  5010.000000  -00206070928  -00208965933  -00211826268  -00214638420  -00217394520  
  5000.000000  -00220076448  -00222678369  -00225187058  -00227607321  -00229934918  
  4990.000000  -00232183260  -00234349716  -00236446699  -00238464583  -00240410103  
  4980.000000  -00242266253  -00244036923  -00245701923  -00247265661  -00248707333  
  4970.000000  -00250033161  -00251223158  -00252286546  -00253204849  -00253989502  
  4960.000000  -00254620576  -00255107584  -00255425418  -00255581164  -00255548626  
  4950.000000  -00255340892  -00254940458  -00254373190  -00253630032  -00252740603  
  4940.000000  -00251689085  -00250492248  -00249117191  -00247567352  -00245804041  
  4930.000000  -00243834851  -00241633265  -00239221300  -00236584843  -00233750223  
  4920.000000  -00230701984  -00227458350  -00223998629  -00220336814  -00216457941  
  4910.000000  -00212382674  -00208109339  -00203665440  -00199057891  -00194313120  
  4900.000000  -00189441488  -00184466081  -00179404056  -00174279718  -00169122258  
  4890.000000  -00163959239  -00158830676  -00153763205  -00148801639  -00143966124  
  4880.000000  -00139301890  -00134821589  -00130572320  -00126564267  -00122850699  
  4870.000000  -00119443023  -00116397701  -00113719993  -00111455442  -00109589363  
  4860.000000  -00108144923  -00107085020  -00106415478  -00106089120  -00106106422  
  4850.000000  -00106419079  -00107022676  -00107863616  -00108925363  -00110146561  
  4840.000000  -00111501903  -00112934238  -00114424585  -00115935109  -00117461092  
  4830.000000  -00118983799  -00120503973  -00122009074  -00123493051  -00124941081  
  4820.000000  -00126338487  -00127670486  -00128920196  -00130078328  -00131130823  
  4810.000000  -00132075533  -00132902486  -00133616360  -00134211824  -00134699775  
  4800.000000  -00135078593  -00135362654  -00135551036  -00135658558  -00135683908  
  4790.000000  -00135642626  -00135534995  -00135377979  -00135172562  -00134932392  
  4780.000000  -00134652879  -00134337773  -00133973919  -00133557505  -00133074717  
  4770.000000  -00132525830  -00131907519  -00131231655  -00130506456  -00129750911  
  4760.000000  -00128976469  -00128200008  -00127428080  -00126669889  -00125923957  
  4750.000000  -00125190031  -00124457791  -00123718643  -00122957974  -00122166659  
  4740.000000  -00121335579  -00120465052  -00119558364  -00118626817  -00117679931  
  4730.000000  -00116729922  -00115781013  -00114838725  -00113898691  -00112962752  
  4720.000000  -00112024221  -00111087335  -00110145184  -00109201563  -00108243904  
  4710.000000  -00107268823  -00106253942  -00105187769  -00104042660  -00102805220  
  4700.000000  -00101449794  -00099966759  -00098337688  -00096560434  -00094625909  
  4690.000000  -00092541125  -00090306552  -00087937799  -00085441626  -00082840307  
  4680.000000  -00080146474  -00077391157  -00074594865  -00071797797  -00069025356  
  4670.000000  -00066315913  -00063682087  -00061137820  -00058665408  -00056244862  
  4660.000000  -00053832268  -00051388863  -00048869373  -00046243357  -00043487950  
  4650.000000  -00040596272  -00037573194  -00034432435  -00031197668  -00027892098  
  4640.000000  -00024545604  -00021179249  -00017818536  -00014475676  -00011169939  
  4630.000000  -00007908804  -00004714021  -00001597866   00001408226   00004285588  
  4620.000000   00006997436   00009528993   00011851036   00013963629   00015850295  
  4610.000000   00017524802   00018978538   00020232909   00021282837   00022155657  
  4600.000000   00022851327   00023404498   00023820128   00024135231   00024352151  
  4590.000000   00024498956   00024565647   00024563412   00024468463   00024278565  
  4580.000000   00023965264   00023524830   00022937313   00022209766   00021340105  
  4570.000000   00020351808   00019260726   00018101234   00016895555   00015674099  
  4560.000000   00014449604   00013235982   00012029475   00010828548   00009621371  
  4550.000000   00008404441   00007172519   00005931340   00004688026   00003456238  
  4540.000000   00002249095   00001078348  -00000047214  -00001126744  -00002161813  
  4530.000000  -00003164777  -00004145327  -00005122407  -00006102811  -00007099218  
  4520.000000  -00008102906  -00009112556  -00010102324  -00011063257  -00011963015  
  4510.000000  -00012797099  -00013534945  -00014178606  -00014695493  -00015086709  
  4500.000000  -00015311592  -00015367744  -00015209065  -00014834421  -00014196297  
  4490.000000  -00013294868  -00012078174  -00010544013  -00008637420  -00006361856  
  4480.000000  -00003675058  -00000602805   00002871666   00006699084   00010880816  
  4470.000000   00015363981   00020155174   00025214038   00030556934   00036151233  
  4460.000000   00042009825   00048095130   00054406647   00060900367   00067565915  
  4450.000000   00074361239   00081274024   00088270822   00095340452   00102458244  
  4440.000000   00109611827   00116781454   00123949035   00131095136   00138192424  
  4430.000000   00145220304   00152144647   00158949489   00165603695   00172105124  
  4420.000000   00178433850   00184602317   00190597104   00196431506   00202082906  
  4410.000000   00207549687   00212793214   00217800861   00222534960   00226997199  
  4400.000000   00231178130   00235114379   00238832133   00242395150   00245844628  
  4390.000000   00249244927   00252626601   00256035336   00259480199   00262984333  
  4380.000000   00266537013   00270142870   00273777864   00277435557   00281087572  
  4370.000000   00284724775   00288321050   00291867624   00295339682   00298728428  
  4360.000000   00302008827   00305179431   00308219670   00311146574   00313943764  
  4350.000000   00316642834   00319219032   00321703330   00324058209   00326312117  
  4340.000000   00328426949   00330425936   00332255484   00333885914   00335186659  
  4330.000000   00336017222   00336155073   00335404751   00333587902   00330649747  
  4320.000000   00326653929   00321825013   00316485251   00311022761   00305791333  
  4310.000000   00301074968   00297026353   00293688877   00291003864   00288868961  
  4300.000000   00287174669   00285834092   00284806508   00284069151   00283635587  
  4290.000000   00283494520   00283653552   00284076358   00284751048   00285634237  
  4280.000000   00286712301   00287955022   00289347098   00290863746   00292474450  
  4270.000000   00294144621   00295819460   00297438651   00298909766   00300129997  
  4260.000000   00300966390   00301293031   00300987831   00299984167   00298265423  
  4250.000000   00295906244   00293032696   00289837997   00286508355   00283234784  
  4240.000000   00280137396   00277301579   00274728786   00272399140   00270248228  
  4230.000000   00268225348   00266277138   00264374314   00262500463   00260647106  
  4220.000000   00258821624   00257022385   00255272083   00253578560   00251981509  
  4210.000000   00250499872   00249177462   00248026921   00247073377   00246306885  
  4200.000000   00245727860   00245308358   00245038838   00244887751   00244847772  
  4190.000000   00244888358   00245005978   00245172058   00245390550   00245642636  
  4180.000000   00245947876   00246303213   00246741838   00247268425   00247916766  
  4170.000000   00248687994   00249610238   00250681496   00251929387   00253352964  
  4160.000000   00254979376   00256801506   00258835352   00261057700   00263470534  
  4150.000000   00266040520   00268769426   00271630242   00274638616   00277780806  
  4140.000000   00281085000   00284542024   00288180089   00291983103   00295971150  
  4130.000000   00300119002   00304440065   00308907172   00313536217   00318310147  
  4120.000000   00323257348   00328379491   00333720968   00339299061   00345162068  
  4110.000000   00351322904   00357809205   00364605018   00371698429   00379037892  
  4100.000000   00386579645   00394257747   00402025228   00409832951   00417655903  
  4090.000000   00425475163   00433284105   00441080031   00448855000   00456606643  
  4080.000000   00464314504   00471973219   00479551556   00487043607   00494407869  
  4070.000000   00501634685   00508671211   00515506454   00522086014   00528408750  
  4060.000000   00534428623   00540155689   00545547566   00550617606   00555325164  
  4050.000000   00559694405   00563702800   00567399995   00570785397   00573918437  
  4040.000000   00576791191   00579439928   00581829601   00583974780   00585836062  
  4030.000000   00587438978   00588768405   00589871278   00590754328   00591467405  
  4020.000000   00592011053   00592432229   00592746452   00592989945   00593147766  
  4010.000000   00593246280   00593285642   00593233232   00592984621   00592529797  
  4000.000000   00591969634  
##END= 
