##TITLE= Sample 012 By ssteindl date Dienstag, November 20 2018
##JCAMP-DX= 4.24
##DATA TYPE= INFRARED SPECTRUM
##ORIGIN= Exported PE Spectrum Data File
##OWNER= Sandra Steindl
##DATE= 18/11/20
##TIME= 14:07:40.00
##SPECTROMETER/DATA SYSTEM= PERKIN-ELMER Frontier FT-IR/NIR IR
##INSTRUMENT PARAMETERS=
  APODIZATION=stark
  DETECTOR=INGAAS
##RESOLUTION= 16.000000
##DELTAX= -2.000000
##XUNITS= 1/CM
##YUNITS= A
##XFACTOR= 1.00
##YFACTOR= 0.00000011920928955078
##FIRSTX= 10000.00
##LASTX= 4000.00
##NPOINTS= 3001
##FIRSTY= 0.236849
##MAXY= 0.618031
##MINY= 0.206213
##XYDATA= (X++(Y..Y))
 10000.000000   1986837   1986771   1986128   1984308   1981661  
  9990.000000   1978947   1976520   1974151   1971490   1968261  
  9980.000000   1964320   1959869   1955650   1952769   1952246  
  9970.000000   1954613   1959630   1966286   1973071   1978524  
  9960.000000   1981721   1982537   1981609   1979973   1978661  
  9950.000000   1978281   1978905   1980108   1981276   1981848  
  9940.000000   1981532   1980311   1978338   1975831   1972973  
  9930.000000   1969967   1967069   1964660   1963151   1962866  
  9920.000000   1963806   1965597   1967543   1968914   1969287  
  9910.000000   1968749   1967925   1967635   1968519   1970597  
  9900.000000   1973229   1975277   1975657   1973823   1970110  
  9890.000000   1965677   1962073   1960682   1962145   1966202  
  9880.000000   1971798   1977572   1982350   1985521   1987049  
  9870.000000   1987315   1986699   1985442   1983524   1980929  
  9860.000000   1977834   1974746   1972407   1971430   1971964  
  9850.000000   1973448   1974714   1974400   1971440   1965572  
  9840.000000   1957440   1948468   1940339   1934501   1931726  
  9830.000000   1932010   1934693   1938763   1943157   1946934  
  9820.000000   1949395   1950034   1948640   1945263   1940374  
  9810.000000   1934745   1929418   1925333   1923144   1922944  
  9800.000000   1924320   1926547   1928887   1930942   1932705  
  9790.000000   1934560   1936931   1940046   1943717   1947378  
  9780.000000   1950339   1952023   1952259   1951237   1949445  
  9770.000000   1947352   1945266   1943224   1941099   1938788  
  9760.000000   1936319   1933964   1932057   1930927   1930666  
  9750.000000   1931197   1932290   1933763   1935545   1937665  
  9740.000000   1940122   1942698   1944901   1946019   1945378  
  9730.000000   1942652   1938091   1932582   1927370   1923702  
  9720.000000   1922306   1923211   1925669   1928517   1930551  
  9710.000000   1930946   1929456   1926343   1922169   1917454  
  9700.000000   1912515   1907398   1902068   1896560   1891206  
  9690.000000   1886560   1883310   1881962   1882647   1885028  
  9680.000000   1888383   1891865   1894765   1896726   1897834  
  9670.000000   1898487   1899243   1900547   1902609   1905321  
  9660.000000   1908355   1911288   1913754   1915530   1916520  
  9650.000000   1916748   1916222   1914981   1913026   1910439  
  9640.000000   1907389   1904168   1901106   1898471   1896318  
  9630.000000   1894450   1892449   1889864   1886418   1882173  
  9620.000000   1877586   1873363   1870233   1868660   1868664  
  9610.000000   1869812   1871411   1872785   1873596   1873937  
  9600.000000   1874319   1875371   1877544   1880822   1884676  
  9590.000000   1888223   1890586   1891231   1890202   1888086  
  9580.000000   1885774   1884136   1883666   1884389   1885851  
  9570.000000   1887379   1888322   1888272   1887163   1885176  
  9560.000000   1882645   1879860   1877035   1874276   1871661  
  9550.000000   1869287   1867291   1865841   1865060   1865060  
  9540.000000   1865888   1867621   1870303   1873973   1878529  
  9530.000000   1883663   1888787   1893070   1895663   1895897  
  9520.000000   1893650   1889348   1883983   1878697   1874448  
  9510.000000   1871671   1870167   1869326   1868394   1866942  
  9500.000000   1865020   1863256   1862521   1863607   1866755  
  9490.000000   1871501   1876718   1881002   1883161   1882615  
  9480.000000   1879605   1875019   1870112   1866051   1863605  
  9470.000000   1862942   1863641   1864895   1865780   1865569  
  9460.000000   1863897   1860866   1856940   1852839   1849311  
  9450.000000   1846965   1846109   1846658   1848165   1849913  
  9440.000000   1851153   1851322   1850260   1848250   1845925  
  9430.000000   1844022   1843112   1843396   1844643   1846276  
  9420.000000   1847598   1848057   1847455   1846013   1844247  
  9410.000000   1842754   1841951   1841945   1842510   1843193  
  9400.000000   1843482   1842948   1841389   1838841   1835605  
  9390.000000   1832133   1828949   1826516   1825130   1824874  
  9380.000000   1825548   1826757   1827958   1828703   1828765  
  9370.000000   1828307   1827786   1827784   1828723   1830638  
  9360.000000   1833122   1835356   1836435   1835593   1832578  
  9350.000000   1827682   1821699   1815618   1810315   1806361  
  9340.000000   1803908   1802840   1802883   1803832   1805572  
  9330.000000   1808078   1811245   1814804   1818292   1821145  
  9320.000000   1822884   1823207   1822129   1819882   1816924  
  9310.000000   1813717   1810715   1808233   1806500   1805646  
  9300.000000   1805675   1806481   1807769   1809183   1810323  
  9290.000000   1810970   1811109   1811007   1811101   1811828  
  9280.000000   1813440   1815774   1818296   1820200   1820759  
  9270.000000   1819524   1816502   1812139   1807184   1802519  
  9260.000000   1798892   1796816   1796443   1797668   1800148  
  9250.000000   1803421   1806931   1810078   1812331   1813287  
  9240.000000   1812825   1811059   1808379   1805260   1802220  
  9230.000000   1799606   1797636   1796353   1795781   1795994  
  9220.000000   1797103   1799246   1802364   1806250   1810424  
  9210.000000   1814372   1817633   1820027   1821716   1823083  
  9200.000000   1824559   1826270   1827949   1828921   1828388  
  9190.000000   1825695   1820656   1813727   1805948   1798674  
  9180.000000   1793102   1790017   1789544   1791249   1794250  
  9170.000000   1797571   1800398   1802270   1803081   1802972  
  9160.000000   1802200   1801019   1799668   1798304   1797098  
  9150.000000   1796177   1795713   1795796   1796404   1797370  
  9140.000000   1798366   1799051   1799111   1798451   1797215  
  9130.000000   1795789   1794668   1794273   1794790   1796059  
  9120.000000   1797609   1798775   1798929   1797704   1795148  
  9110.000000   1791728   1788170   1785259   1783567   1783315  
  9100.000000   1784313   1786081   1788027   1789619   1790515  
  9090.000000   1790596   1789934   1788698   1787079   1785262  
  9080.000000   1783443   1781813   1780560   1779826   1779689  
  9070.000000   1780101   1780881   1781775   1782537   1783008  
  9060.000000   1783129   1782942   1782533   1781988   1781345  
  9050.000000   1780621   1779847   1779124   1778606   1778473  
  9040.000000   1778839   1779677   1780771   1781752   1782195  
  9030.000000   1781748   1780258   1777813   1774741   1771498  
  9020.000000   1768562   1766293   1764850   1764180   1764055  
  9010.000000   1764185   1764318   1764323   1764228   1764187  
  9000.000000   1764409   1765045   1766100   1767395   1768627  
  8990.000000   1769463   1769711   1769393   1768794   1768336  
  8980.000000   1768431   1769275   1770764   1772472   1773842  
  8970.000000   1774365   1773839   1772397   1770472   1768619  
  8960.000000   1767298   1766761   1766969   1767759   1768942  
  8950.000000   1770486   1772463   1775022   1778184   1781753  
  8940.000000   1785266   1788110   1789734   1789794   1788290  
  8930.000000   1785509   1781948   1778106   1774366   1770976  
  8920.000000   1768084   1765829   1764349   1763787   1764182  
  8910.000000   1765405   1767090   1768736   1769849   1770131  
  8900.000000   1769577   1768462   1767252   1766401   1766228  
  8890.000000   1766793   1767949   1769428   1770962   1772350  
  8880.000000   1773451   1774159   1774378   1774011   1773033  
  8870.000000   1771510   1769680   1767857   1766380   1765440  
  8860.000000   1765033   1764966   1764957   1764827   1764595  
  8850.000000   1764562   1765166   1766843   1769778   1773830  
  8840.000000   1778491   1783049   1786783   1789171   1790061  
  8830.000000   1789610   1788241   1786416   1784553   1782868  
  8820.000000   1781387   1779977   1778456   1776718   1774773  
  8810.000000   1772833   1771228   1770396   1770696   1772332  
  8800.000000   1775209   1778929   1782865   1786280   1788565  
  8790.000000   1789350   1788667   1786881   1784596   1782450  
  8780.000000   1780944   1780345   1780664   1781736   1783297  
  8770.000000   1785091   1786909   1788592   1790007   1791015  
  8760.000000   1791483   1791305   1790461   1789028   1787200  
  8750.000000   1785241   1783471   1782213   1781765   1782354  
  8740.000000   1784068   1786834   1790361   1794195   1797756  
  8730.000000   1800479   1801973   1802126   1801195   1799683  
  8720.000000   1798221   1797307   1797194   1797808   1798825  
  8710.000000   1799838   1800501   1800712   1800583   1800431  
  8700.000000   1800590   1801309   1802649   1804466   1806485  
  8690.000000   1808336   1809694   1810273   1809938   1808690  
  8680.000000   1806731   1804424   1802266   1800787   1800431  
  8670.000000   1801441   1803780   1807129   1810982   1814792  
  8660.000000   1818138   1820805   1822804   1824282   1825441  
  8650.000000   1826433   1827352   1828226   1829099   1830047  
  8640.000000   1831193   1832650   1834444   1836480   1838527  
  8630.000000   1840324   1841642   1842409   1842704   1842747  
  8620.000000   1842803   1843091   1843717   1844661   1845823  
  8610.000000   1847072   1848301   1849435   1850422   1851217  
  8600.000000   1851779   1852101   1852233   1852306   1852500  
  8590.000000   1853006   1853952   1855355   1857110   1859025  
  8580.000000   1860902   1862583   1863979   1865058   1865814  
  8570.000000   1866232   1866293   1866020   1865533   1865073  
  8560.000000   1864956   1865496   1866857   1868984   1871546  
  8550.000000   1874064   1876056   1877216   1877522   1877217  
  8540.000000   1876714   1876391   1876442   1876789   1877149  
  8530.000000   1877175   1876644   1875598   1874353   1873410  
  8520.000000   1873241   1874138   1876076   1878725   1881539  
  8510.000000   1883940   1885507   1886058   1885699   1884721  
  8500.000000   1883536   1882509   1881905   1881815   1882212  
  8490.000000   1882965   1883916   1884921   1885888   1886810  
  8480.000000   1887734   1888764   1889992   1891493   1893285  
  8470.000000   1895312   1897462   1899575   1901499   1903100  
  8460.000000   1904299   1905073   1905465   1905566   1905492  
  8450.000000   1905375   1905326   1905442   1905769   1906326  
  8440.000000   1907090   1908025   1909082   1910212   1911357  
  8430.000000   1912458   1913429   1914182   1914620   1914704  
  8420.000000   1914477   1914087   1913752   1913723   1914192  
  8410.000000   1915206   1916612   1918077   1919180   1919536  
  8400.000000   1918914   1917327   1915046   1912535   1910306  
  8390.000000   1908791   1908233   1908651   1909863   1911557  
  8380.000000   1913388   1915057   1916357   1917181   1917502  
  8370.000000   1917375   1916916   1916283   1915664   1915227  
  8360.000000   1915116   1915377   1915953   1916678   1917331  
  8350.000000   1917704   1917663   1917190   1916389   1915451  
  8340.000000   1914593   1913992   1913738   1913827   1914174  
  8330.000000   1914673   1915218   1915768   1916323   1916946  
  8320.000000   1917692   1918609   1919679   1920821   1921886  
  8310.000000   1922676   1922996   1922681   1921664   1919968  
  8300.000000   1917729   1915153   1912488   1909978   1907815  
  8290.000000   1906143   1905026   1904498   1904530   1905088  
  8280.000000   1906071   1907356   1908762   1910089   1911144  
  8270.000000   1911772   1911903   1911527   1910714   1909534  
  8260.000000   1908076   1906393   1904542   1902591   1900646  
  8250.000000   1898860   1897388   1896374   1895856   1895785  
  8240.000000   1895996   1896290   1896472   1896429   1896147  
  8230.000000   1895689   1895158   1894619   1894082   1893482  
  8220.000000   1892731   1891759   1890556   1889196   1887807  
  8210.000000   1886548   1885545   1884862   1884471   1884278  
  8200.000000   1884128   1883866   1883347   1882481   1881247  
  8190.000000   1879705   1877983   1876253   1874674   1873356  
  8180.000000   1872310   1871462   1870668   1869781   1868707  
  8170.000000   1867442   1866070   1864715   1863467   1862322  
  8160.000000   1861176   1859857   1858218   1856209   1853932  
  8150.000000   1851624   1849583   1848077   1847230   1847006  
  8140.000000   1847207   1847568   1847836   1847837   1847502  
  8130.000000   1846833   1845877   1844667   1843233   1841595  
  8120.000000   1839816   1837994   1836275   1834794   1833629  
  8110.000000   1832774   1832125   1831541   1830883   1830091  
  8100.000000   1829187   1828277   1827481   1826889   1826508  
  8090.000000   1826257   1825991   1825551   1824821   1823746  
  8080.000000   1822361   1820746   1819026   1817314   1815710  
  8070.000000   1814270   1813015   1811933   1810989   1810150  
  8060.000000   1809398   1808749   1808244   1807944   1807888  
  8050.000000   1808071   1808424   1808815   1809093   1809119  
  8040.000000   1808825   1808220   1807393   1806460   1805533  
  8030.000000   1804669   1803865   1803076   1802248   1801361  
  8020.000000   1800432   1799528   1798719   1798063   1797571  
  8010.000000   1797220   1796955   1796717   1796449   1796110  
  8000.000000   1795667   1795093   1794365   1793484   1792474  
  7990.000000   1791395   1790334   1789374   1788571   1787914  
  7980.000000   1787339   1786725   1785950   1784919   1783604  
  7970.000000   1782052   1780378   1778733   1777274   1776136  
  7960.000000   1775409   1775130   1775268   1775730   1776368  
  7950.000000   1777001   1777457   1777597   1777368   1776797  
  7940.000000   1775997   1775108   1774276   1773585   1773065  
  7930.000000   1772676   1772359   1772063   1771775   1771529  
  7920.000000   1771388   1771418   1771654   1772088   1772668  
  7910.000000   1773312   1773930   1774444   1774808   1775007  
  7900.000000   1775066   1775035   1774982   1774967   1775030  
  7890.000000   1775167   1775330   1775439   1775407   1775174  
  7880.000000   1774738   1774168   1773580   1773111   1772864  
  7870.000000   1772883   1773128   1773508   1773906   1774227  
  7860.000000   1774421   1774494   1774477   1774406   1774295  
  7850.000000   1774130   1773879   1773521   1773066   1772557  
  7840.000000   1772062   1771647   1771349   1771164   1771048  
  7830.000000   1770942   1770790   1770569   1770287   1769980  
  7820.000000   1769696   1769471   1769322   1769238   1769188  
  7810.000000   1769129   1769011   1768802   1768480   1768059  
  7800.000000   1767575   1767102   1766710   1766466   1766385  
  7790.000000   1766429   1766487   1766408   1766033   1765249  
  7780.000000   1764026   1762433   1760626   1758800   1757135  
  7770.000000   1755743   1754646   1753781   1753045   1752339  
  7760.000000   1751617   1750902   1750270   1749820   1749618  
  7750.000000   1749669   1749906   1750206   1750439   1750496  
  7740.000000   1750337   1749965   1749431   1748776   1748020  
  7730.000000   1747146   1746121   1744931   1743612   1742263  
  7720.000000   1741033   1740076   1739500   1739329   1739484  
  7710.000000   1739805   1740100   1740191   1739973   1739422  
  7700.000000   1738601   1737630   1736656   1735823   1735243  
  7690.000000   1734988   1735078   1735472   1736083   1736778  
  7680.000000   1737413   1737856   1738022   1737889   1737495  
  7670.000000   1736924   1736273   1735622   1735028   1734513  
  7660.000000   1734093   1733772   1733558   1733448   1733409  
  7650.000000   1733378   1733258   1732963   1732447   1731739  
  7640.000000   1730957   1730274   1729870   1729860   1730255  
  7630.000000   1730946   1731741   1732433   1732863   1732975  
  7620.000000   1732815   1732505   1732194   1732002   1731996  
  7610.000000   1732179   1732500   1732880   1733232   1733472  
  7600.000000   1733533   1733374   1732985   1732402   1731700  
  7590.000000   1730991   1730392   1729994   1729835   1729894  
  7580.000000   1730101   1730370   1730637   1730878   1731114  
  7570.000000   1731381   1731716   1732109   1732521   1732881  
  7560.000000   1733133   1733249   1733255   1733218   1733236  
  7550.000000   1733402   1733789   1734437   1735345   1736481  
  7540.000000   1737779   1739150   1740488   1741679   1742633  
  7530.000000   1743294   1743675   1743841   1743907   1743985  
  7520.000000   1744161   1744462   1744870   1745335   1745822  
  7510.000000   1746334   1746920   1747659   1748621   1749826  
  7500.000000   1751233   1752734   1754205   1755529   1756661  
  7490.000000   1757612   1758464   1759318   1760277   1761405  
  7480.000000   1762729   1764231   1765880   1767632   1769449  
  7470.000000   1771285   1773090   1774801   1776358   1777710  
  7460.000000   1778839   1779761   1780541   1781270   1782056  
  7450.000000   1782987   1784122   1785482   1787048   1788780  
  7440.000000   1790621   1792522   1794444   1796363   1798263  
  7430.000000   1800132   1801958   1803723   1805415   1807022  
  7420.000000   1808557   1810039   1811506   1812989   1814514  
  7410.000000   1816083   1817680   1819270   1820819   1822306  
  7400.000000   1823732   1825126   1826532   1828010   1829617  
  7390.000000   1831395   1833364   1835514   1837804   1840159  
  7380.000000   1842479   1844656   1846606   1848291   1849736  
  7370.000000   1851022   1852269   1853597   1855084   1856742  
  7360.000000   1858516   1860310   1862021   1863586   1864993  
  7350.000000   1866291   1867549   1868834   1870173   1871560  
  7340.000000   1872970   1874381   1875806   1877276   1878829  
  7330.000000   1880473   1882168   1883829   1885353   1886675  
  7320.000000   1887794   1888805   1889854   1891102   1892657  
  7310.000000   1894529   1896621   1898758   1900742   1902417  
  7300.000000   1903702   1904611   1905221   1905646   1906002  
  7290.000000   1906389   1906878   1907524   1908354   1909382  
  7280.000000   1910585   1911916   1913285   1914599   1915765  
  7270.000000   1916732   1917491   1918082   1918580   1919062  
  7260.000000   1919597   1920217   1920938   1921745   1922630  
  7250.000000   1923577   1924591   1925672   1926839   1928098  
  7240.000000   1929468   1930949   1932549   1934254   1936054  
  7230.000000   1937920   1939841   1941797   1943800   1945862  
  7220.000000   1948018   1950284   1952677   1955174   1957745  
  7210.000000   1960335   1962902   1965404   1967834   1970193  
  7200.000000   1972516   1974833   1977200   1979659   1982267  
  7190.000000   1985053   1988043   1991221   1994553   1997971  
  7180.000000   2001416   2004831   2008212   2011575   2014977  
  7170.000000   2018458   2022056   2025750   2029508   2033261  
  7160.000000   2036973   2040626   2044257   2047925   2051718  
  7150.000000   2055702   2059937   2064428   2069155   2074045  
  7140.000000   2079018   2083962   2088801   2093472   2097985  
  7130.000000   2102387   2106800   2111348   2116173   2121348  
  7120.000000   2126901   2132760   2138822   2144947   2151042  
  7110.000000   2157047   2162981   2168879   2174810   2180806  
  7100.000000   2186892   2193054   2199285   2205569   2211919  
  7090.000000   2218340   2224848   2231434   2238087   2244770  
  7080.000000   2251458   2258111   2264711   2271225   2277641  
  7070.000000   2283940   2290134   2296256   2302377   2308583  
  7060.000000   2314956   2321542   2328334   2335273   2342264  
  7050.000000   2349215   2356063   2362793   2369428   2376003  
  7040.000000   2382532   2389002   2395368   2401593   2407664  
  7030.000000   2413621   2419531   2425475   2431492   2437572  
  7020.000000   2443634   2449580   2455308   2460777   2465994  
  7010.000000   2471030   2475961   2480864   2485770   2490693  
  7000.000000   2495617   2500547   2505482   2510444   2515424  
  6990.000000   2520401   2525303   2530055   2534573   2538823  
  6980.000000   2542802   2546565   2550176   2553716   2557229  
  6970.000000   2560749   2564271   2567793   2571282   2574716  
  6960.000000   2578042   2581223   2584210   2587000   2589609  
  6950.000000   2592112   2594590   2597129   2599766   2602490  
  6940.000000   2605227   2607889   2610385   2612673   2614745  
  6930.000000   2616642   2618403   2620071   2621660   2623185  
  6920.000000   2624659   2626128   2627647   2629279   2631044  
  6910.000000   2632921   2634825   2636651   2638292   2639693  
  6900.000000   2640855   2641844   2642747   2643653   2644611  
  6890.000000   2645634   2646699   2647773   2648819   2649815  
  6880.000000   2650734   2651559   2652259   2652824   2653263  
  6870.000000   2653632   2654022   2654540   2655272   2656251  
  6860.000000   2657438   2658734   2660000   2661113   2661997  
  6850.000000   2662644   2663104   2663465   2663811   2664208  
  6840.000000   2664682   2665231   2665832   2666462   2667100  
  6830.000000   2667736   2668356   2668950   2669501   2669999  
  6820.000000   2670435   2670814   2671143   2671438   2671711  
  6810.000000   2671970   2672214   2672445   2672654   2672844  
  6800.000000   2673011   2673166   2673309   2673445   2673566  
  6790.000000   2673658   2673688   2673622   2673424   2673074  
  6780.000000   2672577   2671975   2671333   2670736   2670250  
  6770.000000   2669916   2669719   2669606   2669497   2669318  
  6760.000000   2669021   2668594   2668065   2667475   2666866  
  6750.000000   2666262   2665671   2665091   2664523   2663982  
  6740.000000   2663494   2663086   2662771   2662545   2662376  
  6730.000000   2662223   2662042   2661803   2661488   2661094  
  6720.000000   2660624   2660083   2659478   2658824   2658143  
  6710.000000   2657471   2656838   2656270   2655766   2655308  
  6700.000000   2654853   2654366   2653814   2653190   2652495  
  6690.000000   2651745   2650942   2650085   2649162   2648168  
  6680.000000   2647110   2646016   2644919   2643853   2642824  
  6670.000000   2641819   2640798   2639725   2638574   2637354  
  6660.000000   2636095   2634844   2633633   2632481   2631372  
  6650.000000   2630284   2629192   2628094   2626997   2625926  
  6640.000000   2624889   2623875   2622837   2621717   2620457  
  6630.000000   2619026   2617430   2615713   2613938   2612172  
  6620.000000   2610454   2608797   2607181   2605575   2603945  
  6610.000000   2602276   2600569   2598851   2597150   2595498  
  6600.000000   2593909   2592384   2590905   2589444   2587977  
  6590.000000   2586487   2584973   2583445   2581919   2580399  
  6580.000000   2578876   2577323   2575706   2574001   2572210  
  6570.000000   2570369   2568540   2566793   2565181   2563716  
  6560.000000   2562368   2561072   2559759   2558377   2556914  
  6550.000000   2555395   2553868   2552378   2550950   2549579  
  6540.000000   2548245   2546928   2545627   2544368   2543188  
  6530.000000   2542122   2541176   2540323   2539506   2538656  
  6520.000000   2537718   2536662   2535492   2534231   2532911  
  6510.000000   2531553   2530167   2528754   2527318   2525871  
  6500.000000   2524439   2523054   2521743   2520524   2519398  
  6490.000000   2518358   2517387   2516468   2515583   2514716  
  6480.000000   2513850   2512965   2512051   2511105   2510133  
  6470.000000   2509146   2508150   2507137   2506090   2504983  
  6460.000000   2503801   2502553   2501279   2500042   2498906  
  6450.000000   2497914   2497069   2496329   2495624   2494879  
  6440.000000   2494046   2493110   2492099   2491056   2490034  
  6430.000000   2489063   2488153   2487297   2486485   2485710  
  6420.000000   2484980   2484303   2483690   2483138   2482634  
  6410.000000   2482160   2481703   2481257   2480830   2480428  
  6400.000000   2480057   2479709   2479370   2479020   2478651  
  6390.000000   2478260   2477862   2477473   2477108   2476771  
  6380.000000   2476457   2476158   2475861   2475563   2475262  
  6370.000000   2474960   2474655   2474340   2474010   2473662  
  6360.000000   2473294   2472913   2472516   2472096   2471630  
  6350.000000   2471092   2470459   2469734   2468942   2468138  
  6340.000000   2467382   2466726   2466188   2465755   2465374  
  6330.000000   2464987   2464533   2463981   2463317   2462553  
  6320.000000   2461706   2460800   2459850   2458871   2457874  
  6310.000000   2456874   2455873   2454869   2453838   2452752  
  6300.000000   2451576   2450299   2448926   2447500   2446066  
  6290.000000   2444678   2443355   2442094   2440858   2439602  
  6280.000000   2438284   2436890   2435422   2433908   2432371  
  6270.000000   2430832   2429289   2427736   2426156   2424543  
  6260.000000   2422895   2421218   2419518   2417797   2416050  
  6250.000000   2414273   2412461   2410625   2408774   2406928  
  6240.000000   2405101   2403299   2401522   2399766   2398026  
  6230.000000   2396297   2394571   2392839   2391082   2389284  
  6220.000000   2387426   2385508   2383545   2381572   2379628  
  6210.000000   2377750   2375953   2374230   2372552   2370879  
  6200.000000   2369177   2367423   2365617   2363769   2361901  
  6190.000000   2360035   2358194   2356396   2354658   2352993  
  6180.000000   2351410   2349904   2348466   2347075   2345713  
  6170.000000   2344370   2343044   2341741   2340469   2339220  
  6160.000000   2337978   2336710   2335386   2333984   2332509  
  6150.000000   2330986   2329458   2327966   2326539   2325180  
  6140.000000   2323873   2322589   2321299   2319984   2318637  
  6130.000000   2317258   2315855   2314432   2312999   2311568  
  6120.000000   2310165   2308818   2307556   2306395   2305334  
  6110.000000   2304343   2303386   2302417   2301413   2300366  
  6100.000000   2299301   2298253   2297270   2296384   2295618  
  6090.000000   2294974   2294444   2294009   2293650   2293339  
  6080.000000   2293053   2292763   2292454   2292107   2291733  
  6070.000000   2291341   2290965   2290627   2290359   2290172  
  6060.000000   2290081   2290080   2290175   2290359   2290637  
  6050.000000   2291002   2291459   2291999   2292633   2293363  
  6040.000000   2294214   2295196   2296333   2297616   2299041  
  6030.000000   2300569   2302174   2303821   2305502   2307210  
  6020.000000   2308960   2310753   2312592   2314452   2316311  
  6010.000000   2318136   2319916   2321647   2323356   2325067  
  6000.000000   2326815   2328615   2330481   2332405   2334390  
  5990.000000   2336428   2338535   2340719   2343000   2345383  
  5980.000000   2347877   2350471   2353161   2355930   2358777  
  5970.000000   2361690   2364677   2367728   2370849   2374031  
  5960.000000   2377275   2380563   2383889   2387231   2390580  
  5950.000000   2393921   2397260   2400605   2403987   2407428  
  5940.000000   2410954   2414571   2418271   2422028   2425813  
  5930.000000   2429601   2433380   2437150   2440918   2444688  
  5920.000000   2448450   2452179   2455839   2459392   2462806  
  5910.000000   2466065   2469166   2472122   2474946   2477668  
  5900.000000   2480313   2482927   2485552   2488246   2491042  
  5890.000000   2493967   2497004   2500119   2503249   2506338  
  5880.000000   2509331   2512204   2514943   2517552   2520034  
  5870.000000   2522389   2524618   2526726   2528732   2530672  
  5860.000000   2532593   2534543   2536554   2538639   2540791  
  5850.000000   2542995   2545236   2547510   2549824   2552189  
  5840.000000   2554608   2557072   2559560   2562041   2564490  
  5830.000000   2566893   2569253   2571579   2573886   2576183  
  5820.000000   2578469   2580738   2582981   2585196   2587376  
  5810.000000   2589527   2591639   2593713   2595730   2597694  
  5800.000000   2599596   2601462   2603293   2605117   2606912  
  5790.000000   2608668   2610321   2611823   2613085   2614053  
  5780.000000   2614642   2614805   2614480   2613648   2612299  
  5770.000000   2610485   2608282   2605825   2603247   2600693  
  5760.000000   2598258   2596015   2593976   2592141   2590479  
  5750.000000   2588976   2587609   2586367   2585229   2584172  
  5740.000000   2583171   2582206   2581278   2580394   2579583  
  5730.000000   2578860   2578236   2577694   2577210   2576747  
  5720.000000   2576286   2575816   2575351   2574902   2574485  
  5710.000000   2574097   2573732   2573377   2573034   2572716  
  5700.000000   2572449   2572261   2572168   2572166   2572230  
  5690.000000   2572331   2572435   2572534   2572619   2572704  
  5680.000000   2572785   2572854   2572876   2572812   2572610  
  5670.000000   2572235   2571651   2570841   2569790   2568500  
  5660.000000   2566974   2565241   2563344   2561353   2559335  
  5650.000000   2557360   2555468   2553677   2551973   2550337  
  5640.000000   2548745   2547189   2545672   2544203   2542785  
  5630.000000   2541413   2540074   2538750   2537438   2536144  
  5620.000000   2534894   2533706   2532599   2531563   2530581  
  5610.000000   2529619   2528653   2527668   2526667   2525664  
  5600.000000   2524674   2523707   2522764   2521842   2520942  
  5590.000000   2520068   2519227   2518423   2517646   2516872  
  5580.000000   2516064   2515187   2514218   2513158   2512027  
  5570.000000   2510861   2509689   2508532   2507393   2506263  
  5560.000000   2505130   2503989   2502841   2501694   2500553  
  5550.000000   2499416   2498271   2497105   2495908   2494682  
  5540.000000   2493440   2492202   2490983   2489792   2488624  
  5530.000000   2487471   2486321   2485169   2484018   2482869  
  5520.000000   2481724   2480578   2479420   2478239   2477032  
  5510.000000   2475805   2474571   2473350   2472153   2470987  
  5500.000000   2469847   2468730   2467625   2466529   2465431  
  5490.000000   2464322   2463174   2461962   2460655   2459240  
  5480.000000   2457720   2456123   2454486   2452850   2451235  
  5470.000000   2449643   2448053   2446442   2444784   2443078  
  5460.000000   2441328   2439551   2437752   2435931   2434076  
  5450.000000   2432177   2430230   2428249   2426260   2424290  
  5440.000000   2422362   2420481   2418643   2416839   2415069  
  5430.000000   2413337   2411659   2410041   2408485   2406974  
  5420.000000   2405498   2404043   2402628   2401277   2400041  
  5410.000000   2398944   2398006   2397203   2396512   2395888  
  5400.000000   2395330   2394835   2394448   2394190   2394098  
  5390.000000   2394159   2394366   2394677   2395086   2395581  
  5380.000000   2396199   2396954   2397890   2398998   2400290  
  5370.000000   2401726   2403309   2405007   2406847   2408811  
  5360.000000   2410940   2413213   2415672   2418305   2421182  
  5350.000000   2424318   2427807   2431658   2435944   2440631  
  5340.000000   2445753   2451251   2457174   2463481   2470241  
  5330.000000   2477413   2485050   2493081   2501546   2510381  
  5320.000000   2519673   2529416   2539754   2550702   2562397  
  5310.000000   2574802   2587996   2601888   2616531   2631851  
  5300.000000   2647934   2664750   2682424   2700941   2720412  
  5290.000000   2740787   2762110   2784254   2807179   2830712  
  5280.000000   2854812   2879371   2904452   2930071   2956364  
  5270.000000   2983363   3011097   3039435   3068201   3097151  
  5260.000000   3126085   3154888   3183544   3212126   3240690  
  5250.000000   3269270   3297752   3325982   3353683   3380691  
  5240.000000   3406823   3432123   3456606   3480471   3503773  
  5230.000000   3526656   3549040   3570914   3592069   3612446  
  5220.000000   3631870   3650388   3667958   3684748   3700786  
  5210.000000   3716243   3731087   3745379   3758972   3771859  
  5200.000000   3783887   3795111   3805480   3815143   3824096  
  5190.000000   3832475   3840221   3847392   3853876   3859713  
  5180.000000   3864821   3869283   3873062   3876253   3878809  
  5170.000000   3880800   3882167   3882984   3883222   3882984  
  5160.000000   3882258   3881131   3879563   3877597   3875175  
  5150.000000   3872349   3869099   3865514   3861605   3857450  
  5140.000000   3853029   3848373   3843438   3838252   3832802  
  5130.000000   3827151   3821321   3815380   3809334   3803211  
  5120.000000   3796990   3790683   3784279   3777804   3771266  
  5110.000000   3764692   3758078   3751428   3744730   3737991  
  5100.000000   3731223   3724464   3717745   3711104   3704550  
  5090.000000   3698081   3691672   3685300   3678940   3672587  
  5080.000000   3666234   3659888   3653545   3647201   3640845  
  5070.000000   3634474   3628088   3621702   3615326   3608974  
  5060.000000   3602639   3596310   3589953   3583546   3577060  
  5050.000000   3570492   3563837   3557108   3550307   3543437  
  5040.000000   3536490   3529464   3522355   3515176   3507948  
  5030.000000   3500699   3493461   3486256   3479106   3472021  
  5020.000000   3465014   3458094   3451279   3444578   3438010  
  5010.000000   3431575   3425282   3419117   3413089   3407180  
  5000.000000   3401408   3395764   3390277   3384938   3379780  
  4990.000000   3374795   3370022   3365455   3361139   3357066  
  4980.000000   3353273   3349737   3346482   3343474   3340741  
  4970.000000   3338259   3336077   3334187   3332649   3331449  
  4960.000000   3330632   3330164   3330076   3330325   3330947  
  4950.000000   3331907   3333251   3334945   3337028   3339456  
  4940.000000   3342257   3345383   3348866   3352666   3356826  
  4930.000000   3361313   3366167   3371351   3376895   3382756  
  4920.000000   3388958   3395459   3402280   3409380   3416779  
  4910.000000   3424438   3432374   3440556   3448997   3457667  
  4900.000000   3466565   3475654   3484913   3494303   3503794  
  4890.000000   3513354   3522953   3532564   3542139   3551638  
  4880.000000   3560989   3570144   3579026   3587603   3595818  
  4870.000000   3603668   3611111   3618157   3624768   3630962  
  4860.000000   3636707   3642039   3646946   3651482   3655648  
  4850.000000   3659497   3663022   3666271   3669235   3671965  
  4840.000000   3674469   3676812   3679017   3681150   3683227  
  4830.000000   3685293   3687344   3689397   3691432   3693448  
  4820.000000   3695424   3697355   3699226   3701040   3702796  
  4810.000000   3704511   3706200   3707886   3709588   3711321  
  4800.000000   3713091   3714897   3716729   3718577   3720427  
  4790.000000   3722272   3724109   3725943   3727779   3729630  
  4780.000000   3731501   3733401   3735322   3737259   3739183  
  4770.000000   3741073   3742891   3744616   3746220   3747702  
  4760.000000   3749055   3750294   3751422   3752454   3753380  
  4750.000000   3754199   3754890   3755443   3755840   3756087  
  4740.000000   3756183   3756156   3756025   3755825   3755576  
  4730.000000   3755303   3755011   3754704   3754371   3754003  
  4720.000000   3753586   3753112   3752578   3751989   3751361  
  4710.000000   3750716   3750087   3749508   3749018   3748646  
  4700.000000   3748419   3748346   3748429   3748652   3749000  
  4690.000000   3749447   3749982   3750587   3751264   3752002  
  4680.000000   3752803   3753641   3754501   3755338   3756130  
  4670.000000   3756842   3757476   3758039   3758579   3759141  
  4660.000000   3759794   3760584   3761563   3762749   3764156  
  4650.000000   3765771   3767580   3769555   3771672   3773899  
  4640.000000   3776212   3778584   3780997   3783434   3785882  
  4630.000000   3788333   3790774   3793195   3795572   3797883  
  4620.000000   3800094   3802176   3804089   3805814   3807320  
  4610.000000   3808603   3809653   3810486   3811112   3811564  
  4600.000000   3811862   3812050   3812143   3812183   3812174  
  4590.000000   3812144   3812083   3812000   3811874   3811698  
  4580.000000   3811441   3811094   3810627   3810037   3809309  
  4570.000000   3808458   3807486   3806419   3805270   3804065  
  4560.000000   3802814   3801534   3800223   3798889   3797522  
  4550.000000   3796119   3794670   3793171   3791616   3790009  
  4540.000000   3788360   3786681   3784997   3783324   3781689  
  4530.000000   3780100   3778579   3777120   3775745   3774447  
  4520.000000   3773256   3772170   3771235   3770451   3769879  
  4510.000000   3769522   3769458   3769695   3770324   3771354  
  4500.000000   3772871   3774859   3777384   3780402   3783968  
  4490.000000   3788041   3792697   3797924   3803826   3810405  
  4480.000000   3817758   3825857   3834751   3844367   3854710  
  4470.000000   3865677   3877255   3889337   3901907   3914864  
  4460.000000   3928189   3941785   3955628   3969629   3983762  
  4450.000000   3997956   4012194   4026437   4040686   4054932  
  4440.000000   4069185   4083450   4097716   4111983   4126211  
  4430.000000   4140393   4154473   4168452   4182262   4195903  
  4420.000000   4209288   4222393   4235098   4247359   4259037  
  4410.000000   4270086   4280383   4289907   4298571   4306402  
  4400.000000   4313369   4319552   4324978   4329778   4334017  
  4390.000000   4337841   4341320   4344581   4347676   4350700  
  4380.000000   4353683   4356694   4359755   4362924   4366226  
  4370.000000   4369708   4373399   4377333   4381529   4386000  
  4360.000000   4390742   4395742   4400962   4406367   4411879  
  4350.000000   4417456   4423000   4428489   4433856   4439134  
  4340.000000   4444298   4449397   4454365   4459122   4463420  
  4330.000000   4466957   4469312   4470117   4469061   4466067  
  4320.000000   4461262   4455046   4447958   4440638   4433635  
  4310.000000   4427394   4422130   4417910   4414627   4412134  
  4300.000000   4410243   4408813   4407736   4406938   4406376  
  4290.000000   4406000   4405797   4405733   4405830   4406094  
  4280.000000   4406566   4407264   4408201   4409369   4410731  
  4270.000000   4412253   4413864   4415497   4417026   4418300  
  4260.000000   4419105   4419215   4418401   4416508   4413478  
  4250.000000   4409400   4404474   4399012   4393339   4387783  
  4240.000000   4382568   4377852   4373661   4369972   4366685  
  4230.000000   4363706   4360925   4358260   4355643   4353015  
  4220.000000   4350351   4347621   4344846   4342037   4339269  
  4210.000000   4336590   4334097   4331838   4329881   4328236  
  4200.000000   4326919   4325895   4325144   4324606   4324256  
  4190.000000   4324035   4323934   4323905   4323965   4324086  
  4180.000000   4324309   4324625   4325102   4325750   4326655  
  4170.000000   4327842   4329406   4331372   4333823   4336758  
  4160.000000   4340228   4344195   4348680   4353621   4359036  
  4150.000000   4364867   4371150   4377842   4384994   4392566  
  4140.000000   4400609   4409077   4418010   4427356   4437149  
  4130.000000   4447333   4457938   4468912   4480289   4492027  
  4120.000000   4504166   4516680   4529613   4542948   4556731  
  4110.000000   4570945   4585621   4600725   4616253   4632137  
  4100.000000   4648334   4664753   4681342   4698032   4714799  
  4090.000000   4731623   4748505   4765449   4782451   4799514  
  4080.000000   4816616   4833764   4850927   4868114   4885265  
  4070.000000   4902358   4919282   4935979   4952320   4968274  
  4060.000000   4983752   4998784   5013317   5027398   5040955  
  4050.000000   5054019   5066502   5078453   5089809   5100651  
  4040.000000   5110919   5120677   5129824   5138387   5146240  
  4030.000000   5153420   5159833   5165544   5170488   5174721  
  4020.000000   5178150   5180832   5182741   5183953   5184418  
  4010.000000   5184267   5183570   5182337   5180337   5177634  
  4000.000000   5174578  
##END= 
