##TITLE= Sample 024 By ssteindl date Montag, November 19 2018
##JCAMP-DX= 4.24
##DATA TYPE= INFRARED SPECTRUM
##ORIGIN= Exported PE Spectrum Data File
##OWNER= Sandra Steindl
##DATE= 18/11/19
##TIME= 17:51:49.00
##SPECTROMETER/DATA SYSTEM= PERKIN-ELMER Frontier FT-IR/NIR IR
##INSTRUMENT PARAMETERS=
  APODIZATION=stark
  DETECTOR=INGAAS
##RESOLUTION= 16.000000
##DELTAX= -2.000000
##XUNITS= 1/CM
##YUNITS= A
##XFACTOR= 1.00
##YFACTOR= 0.00000011920928955078
##FIRSTX= 10000.00
##LASTX= 4000.00
##NPOINTS= 3001
##FIRSTY= 0.215440
##MAXY= 0.615285
##MINY= 0.190716
##XYDATA= (X++(Y..Y))
 10000.000000   1807243   1808347   1809916   1812132   1814124  
  9990.000000   1814868   1814238   1813105   1812541   1813478  
  9980.000000   1816484   1821538   1827723   1833553   1837482  
  9970.000000   1838476   1836267   1831466   1825268   1819013  
  9960.000000   1813721   1809839   1807255   1805466   1803918  
  9950.000000   1802174   1800028   1797444   1794410   1790971  
  9940.000000   1787156   1783242   1779687   1777240   1776637  
  9930.000000   1778429   1782637   1788700   1795472   1801519  
  9920.000000   1805465   1806301   1803701   1797912   1789758  
  9910.000000   1780176   1770093   1760114   1750598   1741682  
  9900.000000   1733491   1726271   1720467   1716691   1715526  
  9890.000000   1717322   1721936   1728659   1736326   1743555  
  9880.000000   1749237   1752743   1754254   1754510   1754659  
  9870.000000   1755727   1758342   1762503   1767651   1772967  
  9860.000000   1777659   1781323   1783905   1785713   1787035  
  9850.000000   1788042   1788602   1788404   1787112   1784508  
  9840.000000   1780614   1775604   1769757   1763344   1756603  
  9830.000000   1749854   1743489   1738132   1734415   1732953  
  9820.000000   1733985   1737355   1742408   1748225   1753815  
  9810.000000   1758361   1761369   1762600   1762115   1759993  
  9800.000000   1756493   1751827   1746424   1740736   1735309  
  9790.000000   1730583   1726794   1724008   1722125   1721191  
  9780.000000   1721383   1723186   1727071   1733322   1741643  
  9770.000000   1751067   1760092   1767011   1770529   1770058  
  9760.000000   1766044   1759638   1752412   1745728   1740434  
  9750.000000   1736730   1734307   1732739   1731672   1731129  
  9740.000000   1731288   1732470   1734748   1737958   1741623  
  9730.000000   1745116   1747874   1749433   1749610   1748298  
  9720.000000   1745557   1741468   1736277   1730429   1724626  
  9710.000000   1719770   1716746   1716219   1718350   1722777  
  9700.000000   1728609   1734730   1740005   1743608   1745126  
  9690.000000   1744624   1742558   1739622   1736570   1734010  
  9680.000000   1732301   1731459   1731235   1731170   1730771  
  9670.000000   1729618   1727481   1724379   1720546   1716372  
  9660.000000   1712247   1708490   1705309   1702845   1701263  
  9650.000000   1700759   1701537   1703673   1707004   1711062  
  9640.000000   1715153   1718509   1720579   1721164   1720581  
  9630.000000   1719458   1718565   1718452   1719264   1720725  
  9620.000000   1722256   1723343   1723699   1723511   1723282  
  9610.000000   1723688   1725225   1727987   1731554   1735043  
  9600.000000   1737369   1737523   1734903   1729486   1721861  
  9590.000000   1713135   1704644   1697741   1693452   1692342  
  9580.000000   1694350   1698845   1704710   1710602   1715193  
  9570.000000   1717481   1716977   1713807   1708688   1702701  
  9560.000000   1697113   1692969   1690956   1691130   1692987  
  9550.000000   1695570   1697758   1698646   1697758   1695278  
  9540.000000   1691899   1688664   1686574   1686291   1687928  
  9530.000000   1690995   1694622   1697773   1699624   1699706  
  9520.000000   1698040   1695016   1691261   1687435   1684109  
  9510.000000   1681662   1680299   1680026   1680729   1682165  
  9500.000000   1684045   1686076   1688011   1689733   1691208  
  9490.000000   1692544   1693857   1695287   1696900   1698719  
  9480.000000   1700719   1702857   1705067   1707226   1709101  
  9470.000000   1710319   1710392   1708838   1705383   1700105  
  9460.000000   1693544   1686571   1680199   1675249   1672125  
  9450.000000   1670722   1670497   1670762   1670930   1670807  
  9440.000000   1670585   1670792   1671958   1674408   1678052  
  9430.000000   1682427   1686864   1690664   1693343   1694627  
  9420.000000   1694524   1693154   1690727   1687424   1683450  
  9410.000000   1679033   1674498   1670232   1666627   1664003  
  9400.000000   1662482   1662031   1662402   1663337   1664566  
  9390.000000   1665975   1667554   1669364   1671454   1673742  
  9380.000000   1676043   1678009   1679268   1679443   1678332  
  9370.000000   1675960   1672641   1668932   1665474   1662884  
  9360.000000   1661556   1661635   1662943   1665070   1667440  
  9350.000000   1669464   1670644   1670666   1669424   1666998  
  9340.000000   1663638   1659700   1655669   1652060   1649383  
  9330.000000   1647983   1647930   1648989   1650619   1652177  
  9320.000000   1653047   1652907   1651812   1650220   1648811  
  9310.000000   1648185   1648623   1649911   1651461   1652445  
  9300.000000   1652148   1650171   1646651   1642200   1637711  
  9290.000000   1634065   1631836   1631191   1631896   1633481  
  9280.000000   1635416   1637272   1638801   1639938   1640704  
  9270.000000   1641153   1641288   1641097   1640604   1639916  
  9260.000000   1639262   1638890   1639010   1639662   1640683  
  9250.000000   1641695   1642215   1641805   1640263   1637698  
  9240.000000   1634545   1631411   1628917   1627488   1627244  
  9230.000000   1627987   1629303   1630771   1632120   1633322  
  9220.000000   1634540   1636034   1637997   1640456   1643218  
  9210.000000   1645938   1648252   1649885   1650731   1650852  
  9200.000000   1650421   1649650   1648702   1647693   1646692  
  9190.000000   1645774   1644993   1644369   1643831   1643232  
  9180.000000   1642361   1641050   1639215   1636975   1634603  
  9170.000000   1632502   1631021   1630373   1630543   1631329  
  9160.000000   1632425   1633524   1634390   1634886   1634937  
  9150.000000   1634471   1633421   1631726   1629476   1626878  
  9140.000000   1624326   1622218   1620873   1620345   1620387  
  9130.000000   1620573   1620467   1619894   1619023   1618413  
  9120.000000   1618768   1620673   1624258   1629118   1634383  
  9110.000000   1638983   1641978   1642840   1641605   1638773  
  9100.000000   1635100   1631308   1627913   1625108   1622838  
  9090.000000   1620904   1619121   1617371   1615603   1613821  
  9080.000000   1612038   1610321   1608782   1607633   1607153  
  9070.000000   1607637   1609287   1612074   1615695   1619608  
  9060.000000   1623195   1625927   1627524   1628010   1627706  
  9050.000000   1627056   1626486   1626210   1626200   1626201  
  9040.000000   1625865   1624899   1623186   1620858   1618251  
  9030.000000   1615827   1613996   1613034   1612962   1613595  
  9020.000000   1614562   1615466   1615980   1615984   1615562  
  9010.000000   1614981   1614564   1614578   1615126   1616077  
  9000.000000   1617114   1617800   1617761   1616756   1614779  
  8990.000000   1612039   1608914   1605843   1603210   1601276  
  8980.000000   1600165   1599845   1600203   1601030   1602119  
  8970.000000   1603229   1604161   1604736   1604879   1604612  
  8960.000000   1604114   1603677   1603677   1604489   1606385  
  8950.000000   1609458   1613546   1618305   1623241   1627853  
  8940.000000   1631695   1634487   1636141   1636719   1636377  
  8930.000000   1635271   1633553   1631315   1628649   1625675  
  8920.000000   1622601   1619711   1617300   1615645   1614888  
  8910.000000   1615059   1616000   1617499   1619306   1621242  
  8900.000000   1623194   1625122   1627025   1628874   1630611  
  8890.000000   1632106   1633227   1633849   1633929   1633508  
  8880.000000   1632712   1631725   1630732   1629907   1629360  
  8870.000000   1629140   1629209   1629459   1629730   1629843  
  8860.000000   1629639   1629019   1627975   1626607   1625120  
  8850.000000   1623773   1622840   1622533   1622985   1624197  
  8840.000000   1626051   1628310   1630670   1632817   1634495  
  8830.000000   1635573   1636084   1636233   1636341   1636745  
  8820.000000   1637681   1639188   1641103   1643080   1644735  
  8810.000000   1645733   1645931   1645365   1644227   1642767  
  8800.000000   1641203   1639698   1638352   1637300   1636730  
  8790.000000   1636919   1638128   1640507   1643963   1648115  
  8780.000000   1652351   1655954   1658325   1659132   1658434  
  8770.000000   1656613   1654272   1652036   1650434   1649798  
  8760.000000   1650255   1651760   1654125   1657067   1660207  
  8750.000000   1663132   1665417   1666747   1666992   1666285  
  8740.000000   1665010   1663694   1662866   1662859   1663740  
  8730.000000   1665275   1667068   1668683   1669819   1670374  
  8720.000000   1670459   1670317   1670219   1670372   1670889  
  8710.000000   1671781   1673031   1674594   1676450   1678559  
  8700.000000   1680864   1683269   1685667   1687967   1690128  
  8690.000000   1692170   1694164   1696176   1698238   1700319  
  8680.000000   1702339   1704206   1705854   1707280   1708528  
  8670.000000   1709684   1710816   1711968   1713139   1714297  
  8660.000000   1715380   1716324   1717059   1717523   1717668  
  8650.000000   1717484   1717033   1716451   1715940   1715723  
  8640.000000   1715979   1716784   1718076   1719674   1721356  
  8630.000000   1722927   1724303   1725516   1726700   1728003  
  8620.000000   1729540   1731328   1733312   1735378   1737434  
  8610.000000   1739418   1741323   1743163   1744942   1746640  
  8600.000000   1748211   1749636   1750941   1752226   1753621  
  8590.000000   1755247   1757133   1759195   1761221   1762958  
  8580.000000   1764186   1764808   1764880   1764590   1764195  
  8570.000000   1763918   1763879   1764063   1764361   1764631  
  8560.000000   1764776   1764797   1764793   1764933   1765364  
  8550.000000   1766191   1767403   1768923   1770616   1772361  
  8540.000000   1774087   1775773   1777445   1779092   1780663  
  8530.000000   1782009   1782942   1783262   1782879   1781842  
  8520.000000   1780385   1778885   1777759   1777388   1777987  
  8510.000000   1779591   1782029   1785014   1788205   1791286  
  8500.000000   1794005   1796187   1797742   1798637   1798911  
  8490.000000   1798652   1798038   1797287   1796657   1796361  
  8480.000000   1796539   1797206   1798267   1799565   1800924  
  8470.000000   1802233   1803446   1804605   1805776   1807035  
  8460.000000   1808421   1809940   1811574   1813292   1815068  
  8450.000000   1816855   1818600   1820213   1821602   1822679  
  8440.000000   1823413   1823838   1824043   1824162   1824318  
  8430.000000   1824617   1825105   1825830   1826828   1828157  
  8420.000000   1829836   1831829   1833981   1836033   1837646  
  8410.000000   1838514   1838481   1837613   1836210   1834708  
  8400.000000   1833537   1832977   1833064   1833606   1834269  
  8390.000000   1834743   1834861   1834667   1834363   1834208  
  8380.000000   1834382   1834904   1835624   1836282   1836639  
  8370.000000   1836564   1836114   1835486   1834952   1834755  
  8360.000000   1835024   1835760   1836832   1838054   1839236  
  8350.000000   1840242   1841012   1841547   1841893   1842106  
  8340.000000   1842219   1842242   1842148   1841897   1841453  
  8330.000000   1840819   1840057   1839286   1838652   1838285  
  8320.000000   1838240   1838479   1838853   1839170   1839249  
  8310.000000   1839016   1838532   1837985   1837615   1837636  
  8300.000000   1838142   1839077   1840243   1841371   1842215  
  8290.000000   1842614   1842535   1842038   1841245   1840275  
  8280.000000   1839219   1838125   1837024   1835944   1834933  
  8270.000000   1834054   1833370   1832933   1832764   1832860  
  8260.000000   1833183   1833681   1834269   1834849   1835306  
  8250.000000   1835531   1835454   1835077   1834487   1833845  
  8240.000000   1833332   1833094   1833179   1833526   1833965  
  8230.000000   1834296   1834335   1833997   1833294   1832333  
  8220.000000   1831237   1830118   1829012   1827910   1826758  
  8210.000000   1825523   1824204   1822858   1821554   1820356  
  8200.000000   1819266   1818234   1817154   1815916   1814437  
  8190.000000   1812704   1810780   1808792   1806894   1805221  
  8180.000000   1803850   1802776   1801920   1801139   1800280  
  8170.000000   1799208   1797860   1796256   1794504   1792766  
  8160.000000   1791210   1789963   1789079   1788523   1788201  
  8150.000000   1787980   1787740   1787392   1786887   1786206  
  8140.000000   1785344   1784306   1783109   1781801   1780466  
  8130.000000   1779215   1778157   1777354   1776790   1776358  
  8120.000000   1775882   1775173   1774095   1772617   1770826  
  8110.000000   1768902   1767051   1765442   1764159   1763194  
  8100.000000   1762473   1761894   1761377   1760871   1760361  
  8090.000000   1759824   1759223   1758491   1757569   1756438  
  8080.000000   1755160   1753879   1752792   1752084   1751861  
  8070.000000   1752102   1752659   1753300   1753774   1753894  
  8060.000000   1753586   1752897   1751968   1750974   1750060  
  8050.000000   1749301   1748687   1748148   1747586   1746924  
  8040.000000   1746117   1745180   1744152   1743103   1742082  
  8030.000000   1741134   1740271   1739490   1738766   1738063  
  8020.000000   1737339   1736539   1735617   1734532   1733267  
  8010.000000   1731837   1730293   1728716   1727207   1725865  
  8000.000000   1724767   1723952   1723421   1723130   1723007  
  7990.000000   1722968   1722927   1722816   1722595   1722249  
  7980.000000   1721799   1721279   1720739   1720213   1719726  
  7970.000000   1719267   1718813   1718321   1717763   1717127  
  7960.000000   1716438   1715750   1715131   1714652   1714357  
  7950.000000   1714258   1714333   1714536   1714815   1715119  
  7940.000000   1715418   1715687   1715908   1716056   1716103  
  7930.000000   1716017   1715783   1715414   1714958   1714493  
  7920.000000   1714108   1713872   1713813   1713901   1714047  
  7910.000000   1714142   1714074   1713789   1713294   1712683  
  7900.000000   1712093   1711683   1711566   1711783   1712275  
  7890.000000   1712899   1713459   1713756   1713642   1713048  
  7880.000000   1712004   1710614   1709042   1707456   1706011  
  7870.000000   1704816   1703931   1703372   1703111   1703106  
  7860.000000   1703290   1703601   1703977   1704376   1704777  
  7850.000000   1705175   1705581   1705991   1706389   1706717  
  7840.000000   1706907   1706880   1706597   1706072   1705385  
  7830.000000   1704675   1704083   1703732   1703658   1703832  
  7820.000000   1704139   1704450   1704647   1704674   1704539  
  7810.000000   1704298   1704012   1703703   1703331   1702795  
  7800.000000   1701976   1700782   1699205   1697347   1695409  
  7790.000000   1693650   1692303   1691535   1691369   1691714  
  7780.000000   1692366   1693097   1693697   1694040   1694092  
  7770.000000   1693894   1693527   1693057   1692519   1691882  
  7760.000000   1691099   1690108   1688893   1687478   1685944  
  7750.000000   1684398   1682939   1681647   1680557   1679678  
  7740.000000   1678997   1678510   1678214   1678108   1678171  
  7730.000000   1678357   1678588   1678768   1678811   1678660  
  7720.000000   1678308   1677782   1677141   1676434   1675699  
  7710.000000   1674945   1674174   1673394   1672632   1671936  
  7700.000000   1671360   1670942   1670688   1670562   1670501  
  7690.000000   1670432   1670303   1670097   1669837   1669567  
  7680.000000   1669334   1669170   1669079   1669050   1669063  
  7670.000000   1669108   1669183   1669295   1669446   1669609  
  7660.000000   1669732   1669724   1669489   1668932   1668003  
  7650.000000   1666706   1665120   1663388   1661700   1660266  
  7640.000000   1659271   1658846   1659031   1659768   1660902  
  7630.000000   1662212   1663459   1664434   1665008   1665146  
  7620.000000   1664919   1664454   1663921   1663464   1663192  
  7610.000000   1663143   1663299   1663597   1663959   1664323  
  7600.000000   1664655   1664962   1665273   1665631   1666063  
  7590.000000   1666571   1667119   1667641   1668068   1668341  
  7580.000000   1668448   1668416   1668315   1668231   1668240  
  7570.000000   1668387   1668676   1669071   1669524   1669980  
  7560.000000   1670406   1670784   1671116   1671410   1671681  
  7550.000000   1671947   1672246   1672626   1673152   1673876  
  7540.000000   1674836   1676021   1677382   1678823   1680245  
  7530.000000   1681544   1682667   1683591   1684345   1684974  
  7520.000000   1685546   1686124   1686780   1687587   1688619  
  7510.000000   1689935   1691563   1693484   1695630   1697886  
  7500.000000   1700115   1702187   1704015   1705555   1706825  
  7490.000000   1707864   1708743   1709525   1710285   1711090  
  7480.000000   1712017   1713132   1714492   1716117   1717989  
  7470.000000   1720042   1722185   1724316   1726358   1728269  
  7460.000000   1730054   1731744   1733403   1735088   1736866  
  7450.000000   1738785   1740888   1743192   1745697   1748363  
  7440.000000   1751119   1753871   1756532   1759039   1761377  
  7430.000000   1763577   1765707   1767837   1770015   1772247  
  7420.000000   1774501   1776725   1778873   1780927   1782904  
  7410.000000   1784846   1786795   1788783   1790813   1792871  
  7400.000000   1794937   1797001   1799069   1801161   1803290  
  7390.000000   1805458   1807640   1809799   1811900   1813930  
  7380.000000   1815904   1817864   1819861   1821926   1824059  
  7370.000000   1826217   1828334   1830343   1832203   1833916  
  7360.000000   1835533   1837141   1838840   1840719   1842831  
  7350.000000   1845185   1847744   1850433   1853149   1855789  
  7340.000000   1858261   1860503   1862488   1864226   1865763  
  7330.000000   1867174   1868545   1869965   1871502   1873199  
  7320.000000   1875055   1877041   1879092   1881144   1883122  
  7310.000000   1884977   1886672   1888200   1889562   1890773  
  7300.000000   1891852   1892821   1893709   1894551   1895383  
  7290.000000   1896240   1897137   1898071   1899014   1899944  
  7280.000000   1900843   1901733   1902666   1903716   1904945  
  7270.000000   1906366   1907928   1909511   1910960   1912131  
  7260.000000   1912952   1913442   1913724   1913971   1914368  
  7250.000000   1915034   1916008   1917226   1918579   1919932  
  7240.000000   1921202   1922356   1923441   1924523   1925693  
  7230.000000   1927000   1928484   1930141   1931979   1933984  
  7220.000000   1936171   1938527   1941053   1943718   1946504  
  7210.000000   1949376   1952330   1955365   1958504   1961750  
  7200.000000   1965112   1968559   1972064   1975582   1979096  
  7190.000000   1982588   1986075   1989557   1993054   1996554  
  7180.000000   2000059   2003557   2007066   2010609   2014240  
  7170.000000   2017999   2021932   2026045   2030337   2034764  
  7160.000000   2039286   2043843   2048400   2052918   2057402  
  7150.000000   2061863   2066364   2070969   2075773   2080830  
  7140.000000   2086173   2091750   2097486   2103261   2108998  
  7130.000000   2114653   2120277   2125952   2131801   2137900  
  7120.000000   2144283   2150895   2157645   2164415   2171137  
  7110.000000   2177779   2184383   2191004   2197712   2204533  
  7100.000000   2211475   2218497   2225566   2232630   2239662  
  7090.000000   2246622   2253493   2260249   2266903   2273487  
  7080.000000   2280089   2286809   2293754   2300982   2308491  
  7070.000000   2316206   2324022   2331836   2339598   2347323  
  7060.000000   2355071   2362898   2370822   2378778   2386650  
  7050.000000   2394292   2401604   2408566   2415255   2421819  
  7040.000000   2428416   2435171   2442120   2449237   2456433  
  7030.000000   2463627   2470749   2477778   2484704   2491534  
  7020.000000   2498245   2504813   2511194   2517375   2523358  
  7010.000000   2529189   2534919   2540613   2546292   2551972  
  7000.000000   2557615   2563195   2568656   2573980   2579137  
  6990.000000   2584133   2588961   2593637   2598160   2602538  
  6980.000000   2606751   2610787   2614609   2618213   2621596  
  6970.000000   2624816   2627945   2631100   2634359   2637779  
  6960.000000   2641325   2644923   2648435   2651748   2654769  
  6950.000000   2657492   2659948   2662221   2664376   2666466  
  6940.000000   2668495   2670456   2672324   2674100   2675791  
  6930.000000   2677429   2679029   2680618   2682193   2683772  
  6920.000000   2685360   2686985   2688660   2690385   2692117  
  6910.000000   2693790   2695318   2696641   2697740   2698654  
  6900.000000   2699459   2700246   2701076   2701971   2702904  
  6890.000000   2703835   2704729   2705588   2706438   2707321  
  6880.000000   2708258   2709237   2710210   2711119   2711925  
  6870.000000   2712629   2713274   2713922   2714624   2715390  
  6860.000000   2716188   2716957   2717642   2718226   2718737  
  6850.000000   2719247   2719831   2720540   2721376   2722299  
  6840.000000   2723235   2724118   2724896   2725557   2726112  
  6830.000000   2726586   2727000   2727372   2727709   2728016  
  6820.000000   2728296   2728546   2728747   2728873   2728891  
  6810.000000   2728786   2728565   2728280   2728007   2727843  
  6800.000000   2727856   2728079   2728482   2729000   2729535  
  6790.000000   2730000   2730325   2730477   2730443   2730231  
  6780.000000   2729855   2729340   2728719   2728042   2727363  
  6770.000000   2726739   2726205   2725773   2725418   2725107  
  6760.000000   2724792   2724451   2724070   2723663   2723237  
  6750.000000   2722796   2722329   2721811   2721219   2720541  
  6740.000000   2719780   2718958   2718104   2717247   2716411  
  6730.000000   2715616   2714874   2714201   2713601   2713070  
  6720.000000   2712578   2712080   2711516   2710833   2710005  
  6710.000000   2709041   2707986   2706910   2705879   2704943  
  6700.000000   2704116   2703388   2702719   2702074   2701412  
  6690.000000   2700711   2699946   2699102   2698155   2697092  
  6680.000000   2695897   2694575   2693139   2691615   2690029  
  6670.000000   2688407   2686763   2685112   2683454   2681793  
  6660.000000   2680125   2678451   2676762   2675061   2673346  
  6650.000000   2671635   2669945   2668302   2666719   2665200  
  6640.000000   2663722   2662254   2660759   2659213   2657607  
  6630.000000   2655950   2654255   2652530   2650769   2648957  
  6620.000000   2647081   2645149   2643192   2641263   2639416  
  6610.000000   2637688   2636074   2634532   2632992   2631387  
  6600.000000   2629680   2627873   2626004   2624126   2622280  
  6590.000000   2620478   2618703   2616923   2615110   2613260  
  6580.000000   2611394   2609552   2607772   2606073   2604451  
  6570.000000   2602876   2601312   2599725   2598101   2596438  
  6560.000000   2594753   2593065   2591396   2589767   2588200  
  6550.000000   2586709   2585306   2583984   2582725   2581496  
  6540.000000   2580260   2578989   2577673   2576323   2574966  
  6530.000000   2573632   2572344   2571108   2569918   2568758  
  6520.000000   2567614   2566473   2565322   2564147   2562930  
  6510.000000   2561658   2560329   2558967   2557622   2556359  
  6500.000000   2555237   2554288   2553496   2552800   2552116  
  6490.000000   2551356   2550471   2549450   2548332   2547169  
  6480.000000   2546015   2544892   2543802   2542724   2541643  
  6470.000000   2540560   2539497   2538486   2537548   2536691  
  6460.000000   2535893   2535123   2534346   2533546   2532724  
  6450.000000   2531893   2531069   2530254   2529433   2528587  
  6440.000000   2527695   2526753   2525772   2524774   2523781  
  6430.000000   2522802   2521835   2520863   2519875   2518864  
  6420.000000   2517841   2516829   2515852   2514933   2514083  
  6410.000000   2513310   2512617   2512013   2511503   2511089  
  6400.000000   2510758   2510480   2510210   2509901   2509514  
  6390.000000   2509031   2508457   2507811   2507122   2506411  
  6380.000000   2505689   2504955   2504202   2503429   2502641  
  6370.000000   2501851   2501077   2500339   2499650   2499019  
  6360.000000   2498445   2497924   2497440   2496974   2496497  
  6350.000000   2495981   2495402   2494750   2494028   2493253  
  6340.000000   2492445   2491622   2490792   2489954   2489103  
  6330.000000   2488239   2487364   2486493   2485630   2484773  
  6320.000000   2483898   2482970   2481951   2480822   2479584  
  6310.000000   2478276   2476943   2475638   2474383   2473182  
  6300.000000   2472001   2470803   2469545   2468211   2466786  
  6290.000000   2465277   2463680   2461995   2460209   2458326  
  6280.000000   2456355   2454336   2452311   2450329   2448408  
  6270.000000   2446546   2444699   2442818   2440845   2438755  
  6260.000000   2436546   2434250   2431909   2429573   2427271  
  6250.000000   2425022   2422825   2420672   2418549   2416444  
  6240.000000   2414339   2412217   2410055   2407838   2405557  
  6230.000000   2403217   2400838   2398450   2396082   2393757  
  6220.000000   2391483   2389251   2387039   2384819   2382568  
  6210.000000   2380273   2377935   2375574   2373220   2370911  
  6200.000000   2368678   2366537   2364482   2362486   2360509  
  6190.000000   2358510   2356463   2354365   2352235   2350109  
  6180.000000   2348024   2346003   2344049   2342144   2340265  
  6170.000000   2338385   2336492   2334586   2332675   2330771  
  6160.000000   2328880   2327001   2325130   2323264   2321410  
  6150.000000   2319577   2317780   2316025   2314315   2312640  
  6140.000000   2310989   2309354   2307732   2306128   2304549  
  6130.000000   2302999   2301481   2299993   2298536   2297116  
  6120.000000   2295747   2294439   2293200   2292015   2290863  
  6110.000000   2289705   2288518   2287284   2286019   2284752  
  6100.000000   2283526   2282377   2281331   2280396   2279571  
  6090.000000   2278845   2278218   2277676   2277211   2276795  
  6080.000000   2276398   2275976   2275510   2274989   2274445  
  6070.000000   2273921   2273476   2273145   2272948   2272864  
  6060.000000   2272870   2272926   2273026   2273172   2273398  
  6050.000000   2273728   2274191   2274781   2275490   2276281  
  6040.000000   2277141   2278048   2279012   2280038   2281146  
  6030.000000   2282339   2283630   2285019   2286517   2288126  
  6020.000000   2289850   2291672   2293565   2295476   2297355  
  6010.000000   2299148   2300835   2302411   2303908   2305360  
  6000.000000   2306812   2308291   2309816   2311391   2313022  
  5990.000000   2314708   2316458   2318271   2320149   2322078  
  5980.000000   2324049   2326045   2328065   2330114   2332212  
  5970.000000   2334374   2336619   2338951   2341372   2343870  
  5960.000000   2346440   2349064   2351731   2354411   2357076  
  5950.000000   2359687   2362223   2364671   2367056   2369420  
  5940.000000   2371824   2374322   2376950   2379712   2382589  
  5930.000000   2385547   2388548   2391569   2394595   2397619  
  5920.000000   2400630   2403606   2406516   2409325   2412008  
  5910.000000   2414555   2416979   2419304   2421566   2423798  
  5900.000000   2426032   2428297   2430619   2433025   2435533  
  5890.000000   2438153   2440876   2443677   2446516   2449357  
  5880.000000   2452169   2454934   2457646   2460299   2462885  
  5870.000000   2465386   2467784   2470062   2472231   2474315  
  5860.000000   2476364   2478423   2480531   2482701   2484929  
  5850.000000   2487200   2489504   2491847   2494254   2496755  
  5840.000000   2499375   2502121   2504976   2507908   2510881  
  5830.000000   2513868   2516853   2519834   2522805   2525756  
  5820.000000   2528659   2531484   2534195   2536777   2539225  
  5810.000000   2541555   2543776   2545905   2547928   2549844  
  5800.000000   2551619   2553262   2554756   2556136   2557401  
  5790.000000   2558579   2559649   2560602   2561383   2561952  
  5780.000000   2562237   2562193   2561759   2560915   2559645  
  5770.000000   2557990   2556010   2553817   2551522   2549252  
  5760.000000   2547095   2545118   2543339   2541758   2540353  
  5750.000000   2539107   2538007   2537043   2536207   2535477  
  5740.000000   2534835   2534247   2533698   2533174   2532690  
  5730.000000   2532251   2531885   2531591   2531377   2531226  
  5720.000000   2531134   2531087   2531092   2531149   2531271  
  5710.000000   2531456   2531709   2532021   2532390   2532811  
  5700.000000   2533288   2533818   2534399   2535020   2535667  
  5690.000000   2536324   2536975   2537616   2538238   2538842  
  5680.000000   2539410   2539929   2540367   2540705   2540913  
  5670.000000   2540983   2540901   2540662   2540252   2539664  
  5660.000000   2538888   2537937   2536833   2535633   2534393  
  5650.000000   2533177   2532023   2530954   2529957   2529018  
  5640.000000   2528110   2527226   2526364   2525533   2524741  
  5630.000000   2523989   2523269   2522568   2521875   2521181  
  5620.000000   2520485   2519787   2519087   2518378   2517654  
  5610.000000   2516912   2516157   2515404   2514671   2513971  
  5600.000000   2513304   2512656   2511998   2511307   2510568  
  5590.000000   2509786   2508976   2508162   2507354   2506553  
  5580.000000   2505738   2504889   2503987   2503031   2502035  
  5570.000000   2501025   2500022   2499041   2498077   2497117  
  5560.000000   2496144   2495141   2494100   2493021   2491905  
  5550.000000   2490757   2489579   2488383   2487184   2486006  
  5540.000000   2484873   2483805   2482809   2481875   2480980  
  5530.000000   2480094   2479195   2478272   2477321   2476353  
  5520.000000   2475374   2474392   2473408   2472426   2471448  
  5510.000000   2470481   2469527   2468582   2467632   2466658  
  5500.000000   2465638   2464566   2463443   2462297   2461149  
  5490.000000   2460020   2458901   2457771   2456587   2455317  
  5480.000000   2453940   2452468   2450925   2449349   2447761  
  5470.000000   2446168   2444554   2442899   2441182   2439404  
  5460.000000   2437578   2435725   2433860   2431991   2430106  
  5450.000000   2428198   2426258   2424294   2422323   2420365  
  5440.000000   2418436   2416542   2414681   2412850   2411054  
  5430.000000   2409303   2407616   2405993   2404427   2402885  
  5420.000000   2401343   2399775   2398199   2396645   2395187  
  5410.000000   2393875   2392757   2391825   2391063   2390420  
  5400.000000   2389879   2389417   2389060   2388820   2388733  
  5390.000000   2388794   2389015   2389371   2389872   2390508  
  5380.000000   2391307   2392259   2393377   2394617   2395967  
  5370.000000   2397376   2398861   2400416   2402107   2403957  
  5360.000000   2406038   2408350   2410939   2413781   2416931  
  5350.000000   2420380   2424208   2428412   2433055   2438094  
  5340.000000   2443554   2449369   2455580   2462150   2469162  
  5330.000000   2476595   2484531   2492921   2501821   2511165  
  5320.000000   2521028   2531379   2542337   2553891   2566164  
  5310.000000   2579109   2592810   2607185   2622303   2638104  
  5300.000000   2654692   2672049   2690310   2709469   2729640  
  5290.000000   2750770   2772893   2795868   2819639   2844017  
  5280.000000   2868944   2894305   2920152   2946503   2973491  
  5270.000000   3001152   3029512   3058446   3087768   3117231  
  5260.000000   3146612   3175780   3204682   3233365   3261854  
  5250.000000   3290174   3318204   3345820   3372767   3398926  
  5240.000000   3424136   3448463   3471917   3494689   3516808  
  5230.000000   3538409   3559398   3579779   3599352   3618089  
  5220.000000   3635829   3652639   3668476   3683504   3697736  
  5210.000000   3711335   3724249   3736546   3748078   3758853  
  5200.000000   3768726   3777771   3785938   3793382   3800097  
  5190.000000   3806216   3811675   3816530   3820667   3824125  
  5180.000000   3826822   3828845   3830165   3830888   3830986  
  5170.000000   3830542   3829516   3827992   3825952   3823502  
  5160.000000   3820642   3817465   3813947   3810141   3805996  
  5150.000000   3801554   3796780   3791731   3786392   3780812  
  5140.000000   3774968   3768890   3762551   3755989   3749208  
  5130.000000   3742267   3735189   3728028   3720791   3713506  
  5120.000000   3706162   3698780   3691362   3683939   3676521  
  5110.000000   3669128   3661755   3654400   3647042   3639679  
  5100.000000   3632305   3624935   3617581   3610266   3603002  
  5090.000000   3595801   3588668   3581610   3574629   3567725  
  5080.000000   3560889   3554103   3547338   3540567   3533760  
  5070.000000   3526906   3520003   3513063   3506101   3499133  
  5060.000000   3492162   3485191   3478215   3471232   3464240  
  5050.000000   3457242   3450233   3443210   3436157   3429061  
  5040.000000   3421914   3414723   3407509   3400307   3393158  
  5030.000000   3386089   3379121   3372249   3365464   3358742  
  5020.000000   3352078   3345463   3338919   3332459   3326119  
  5010.000000   3319910   3313860   3307965   3302249   3296703  
  5000.000000   3291355   3286198   3281264   3276544   3272064  
  4990.000000   3267804   3263791   3260002   3256469   3253171  
  4980.000000   3250147   3247377   3244900   3242692   3240797  
  4970.000000   3239191   3237919   3236960   3236356   3236076  
  4960.000000   3236156   3236556   3237310   3238382   3239808  
  4950.000000   3241558   3243672   3246113   3248915   3252037  
  4940.000000   3255509   3259290   3263411   3267838   3272601  
  4930.000000   3277662   3283045   3288706   3294667   3300889  
  4920.000000   3307396   3314156   3321193   3328472   3336008  
  4910.000000   3343764   3351746   3359923   3368302   3376859  
  4900.000000   3385603   3394511   3403580   3412784   3422107  
  4890.000000   3431516   3440984   3450477   3459957   3469394  
  4880.000000   3478749   3488000   3497110   3506062   3514810  
  4870.000000   3523333   3531573   3539508   3547094   3554338  
  4860.000000   3561231   3567822   3574126   3580204   3586060  
  4850.000000   3591733   3597204   3602497   3607588   3612505  
  4840.000000   3617235   3621815   3626237   3630536   3634706  
  4830.000000   3638777   3642743   3646630   3650421   3654119  
  4820.000000   3657690   3661120   3664378   3667464   3670376  
  4810.000000   3673145   3675790   3678346   3680816   3683211  
  4800.000000   3685520   3687749   3689899   3692002   3694076  
  4790.000000   3696157   3698247   3700349   3702433   3704477  
  4780.000000   3706450   3708349   3710167   3711926   3713627  
  4770.000000   3715280   3716862   3718360   3719738   3720984  
  4760.000000   3722074   3723017   3723804   3724449   3724940  
  4750.000000   3725284   3725461   3725477   3725315   3724990  
  4740.000000   3724491   3723836   3723017   3722053   3720943  
  4730.000000   3719712   3718365   3716931   3715414   3713831  
  4720.000000   3712178   3710465   3708686   3706856   3704981  
  4710.000000   3703082   3701168   3699252   3697337   3695422  
  4700.000000   3693505   3691590   3689684   3687803   3685968  
  4690.000000   3684197   3682506   3680900   3679377   3677923  
  4680.000000   3676523   3675148   3673777   3672375   3670929  
  4670.000000   3669421   3667862   3666266   3664676   3663127  
  4660.000000   3661671   3660334   3659148   3658115   3657247  
  4650.000000   3656541   3656009   3655655   3655491   3655515  
  4640.000000   3655723   3656086   3656576   3657154   3657791  
  4630.000000   3658454   3659126   3659786   3660419   3660998  
  4620.000000   3661504   3661914   3662218   3662416   3662523  
  4610.000000   3662560   3662550   3662518   3662473   3662424  
  4600.000000   3662364   3662294   3662208   3662108   3661992  
  4590.000000   3661865   3661722   3661565   3661381   3661165  
  4580.000000   3660903   3660586   3660203   3659752   3659231  
  4570.000000   3658650   3658015   3657341   3656632   3655896  
  4560.000000   3655124   3654311   3653444   3652518   3651529  
  4550.000000   3650484   3649393   3648265   3647112   3645936  
  4540.000000   3644746   3643545   3642353   3641185   3640075  
  4530.000000   3639040   3638118   3637310   3636645   3636114  
  4520.000000   3635750   3635547   3635557   3635779   3636276  
  4510.000000   3637042   3638144   3639570   3641394   3643607  
  4500.000000   3646295   3649448   3653152   3657389   3662237  
  4490.000000   3667669   3673764   3680497   3687946   3696079  
  4480.000000   3704956   3714522   3724805   3735727   3747294  
  4470.000000   3759422   3772103   3785246   3798823   3812729  
  4460.000000   3826915   3841269   3855739   3870235   3884723  
  4450.000000   3899148   3913493   3927733   3941863   3955879  
  4440.000000   3969779   3983583   3997285   4010917   4024461  
  4430.000000   4037945   4051322   4064607   4077720   4090658  
  4420.000000   4103315   4115674   4127613   4139105   4150017  
  4410.000000   4160319   4169877   4178667   4186570   4193587  
  4400.000000   4199646   4204795   4209026   4212447   4215110  
  4390.000000   4217163   4218695   4219864   4220761   4221522  
  4380.000000   4222222   4222962   4223802   4224823   4226088  
  4370.000000   4227673   4229643   4232056   4234957   4238357  
  4360.000000   4242258   4246622   4251412   4256565   4262015  
  4350.000000   4267698   4273534   4279473   4285451   4291460  
  4340.000000   4297478   4303526   4309564   4315522   4321206  
  4330.000000   4326345   4330563   4333497   4334839   4334469  
  4320.000000   4332473   4329192   4325110   4320818   4316821  
  4310.000000   4313526   4311105   4309593   4308841   4308681  
  4300.000000   4308900   4309365   4309964   4310646   4311369  
  4290.000000   4312096   4312801   4313450   4314044   4314587  
  4280.000000   4315113   4315656   4316243   4316898   4317618  
  4270.000000   4318416   4319268   4320167   4321037   4321787  
  4260.000000   4322243   4322216   4321493   4319925   4317437  
  4250.000000   4314086   4310028   4305522   4300835   4296245  
  4240.000000   4291941   4288059   4284626   4281631   4278993  
  4230.000000   4276632   4274434   4272299   4270125   4267824  
  4220.000000   4265346   4262667   4259827   4256885   4253953  
  4210.000000   4251123   4248496   4246120   4244030   4242206  
  4200.000000   4240631   4239256   4238059   4236996   4236063  
  4190.000000   4235223   4234487   4233823   4233254   4232752  
  4180.000000   4232358   4232051   4231890   4231873   4232086  
  4170.000000   4232559   4233417   4234712   4236573   4239029  
  4160.000000   4242158   4245916   4250315   4255258   4260740  
  4150.000000   4266676   4273094   4279949   4287302   4295119  
  4140.000000   4303465   4312294   4321655   4331492   4341844  
  4130.000000   4352651   4363945   4375660   4387821   4400373  
  4120.000000   4413345   4426703   4440494   4454699   4469365  
  4110.000000   4484469   4500032   4516004   4532368   4549047  
  4100.000000   4566000   4583144   4600444   4617846   4635344  
  4090.000000   4652929   4670623   4688443   4706405   4724524  
  4080.000000   4742792   4761213   4779751   4798395   4817073  
  4070.000000   4835744   4854296   4872669   4890740   4908480  
  4060.000000   4925800   4942723   4959190   4975241   4990806  
  4050.000000   5005920   5020497   5034583   5048094   5061088  
  4040.000000   5073460   5085245   5096300   5106643   5116132  
  4030.000000   5124817   5132591   5139526   5145529   5150644  
  4020.000000   5154736   5157855   5159957   5161144   5161380  
  4010.000000   5160851   5159658   5157860   5155242   5151900  
  4000.000000   5148190  
##END= 
