##TITLE= Sample 031 By ssteindl date Montag, November 19 2018
##JCAMP-DX= 4.24
##DATA TYPE= INFRARED SPECTRUM
##ORIGIN= Exported PE Spectrum Data File
##OWNER= Sandra Steindl
##DATE= 18/11/19
##TIME= 18:00:20.00
##SPECTROMETER/DATA SYSTEM= PERKIN-ELMER Frontier FT-IR/NIR IR
##INSTRUMENT PARAMETERS=
  APODIZATION=stark
  DETECTOR=INGAAS
##RESOLUTION= 16.000000
##DELTAX= -2.000000
##XUNITS= 1/CM
##YUNITS= A
##XFACTOR= 1.00
##YFACTOR= 0.00000011920928955078
##FIRSTX= 10000.00
##LASTX= 4000.00
##NPOINTS= 3001
##FIRSTY= 0.201389
##MAXY= 0.623127
##MINY= 0.178889
##XYDATA= (X++(Y..Y))
 10000.000000   1689372   1685108   1680501   1675468   1670928  
  9990.000000   1668246   1668330   1671382   1677115   1684866  
  9980.000000   1693587   1702111   1709526   1715293   1719196  
  9970.000000   1721247   1721608   1720493   1718133   1714793  
  9960.000000   1710816   1706597   1702545   1698971   1695943  
  9950.000000   1693277   1690499   1687091   1682631   1677073  
  9940.000000   1670781   1664489   1659042   1655128   1653056  
  9930.000000   1652667   1653481   1654847   1656258   1657403  
  9920.000000   1658280   1659010   1659732   1660452   1661042  
  9910.000000   1661330   1661279   1661069   1661162   1662085  
  9900.000000   1664282   1667795   1672216   1676679   1680127  
  9890.000000   1681602   1680575   1677124   1671959   1666262  
  9880.000000   1661378   1658523   1658428   1661243   1666426  
  9870.000000   1672967   1679584   1685124   1688782   1690316  
  9860.000000   1689946   1688258   1685890   1683362   1680942  
  9850.000000   1678632   1676345   1673967   1671541   1669158  
  9840.000000   1666913   1664737   1662353   1659377   1655466  
  9830.000000   1650624   1645269   1640297   1636784   1635711  
  9820.000000   1637589   1642304   1649127   1656923   1664437  
  9810.000000   1670542   1674419   1675594   1673983   1669829  
  9800.000000   1663768   1656708   1649818   1644220   1640779  
  9790.000000   1639744   1640667   1642489   1643889   1643800  
  9780.000000   1641751   1638140   1633971   1630592   1629086  
  9770.000000   1630010   1633211   1638028   1643608   1649174  
  9760.000000   1654212   1658364   1661303   1662572   1661622  
  9750.000000   1658008   1651716   1643328   1634097   1625561  
  9740.000000   1619169   1615701   1615071   1616358   1618182  
  9730.000000   1619264   1618821   1616877   1614107   1611634  
  9720.000000   1610565   1611712   1615372   1621310   1628880  
  9710.000000   1637138   1645034   1651516   1655688   1656962  
  9700.000000   1655207   1650833   1644765   1638208   1632345  
  9690.000000   1627955   1625212   1623671   1622454   1620658  
  9680.000000   1617637   1613334   1608224   1603222   1599307  
  9670.000000   1597239   1597285   1599163   1602131   1605210  
  9660.000000   1607519   1608474   1608038   1606619   1604994  
  9650.000000   1603956   1604046   1605281   1607146   1608730  
  9640.000000   1609142   1607849   1605010   1601438   1598350  
  9630.000000   1596878   1597587   1600240   1603856   1607120  
  9620.000000   1608901   1608722   1606904   1604457   1602576  
  9610.000000   1602241   1603768   1606822   1610573   1614057  
  9600.000000   1616544   1617655   1617388   1615882   1613257  
  9590.000000   1609507   1604600   1598658   1592140   1585849  
  9580.000000   1580754   1577691   1577015   1578530   1581468  
  9570.000000   1584881   1587872   1589961   1591123   1591691  
  9560.000000   1592141   1592762   1593583   1594244   1594257  
  9550.000000   1593098   1590533   1586642   1581887   1576949  
  9540.000000   1572574   1569428   1567920   1568209   1570117  
  9530.000000   1573238   1576961   1580660   1583795   1586058  
  9520.000000   1587399   1587980   1588085   1587947   1587722  
  9510.000000   1587375   1586810   1585865   1584455   1582601  
  9500.000000   1580414   1578114   1575892   1573983   1572556  
  9490.000000   1571839   1572012   1573210   1575374   1578180  
  9480.000000   1581042   1583178   1583863   1582569   1579232  
  9470.000000   1574214   1568305   1562437   1557464   1553929  
  9460.000000   1551992   1551523   1552229   1553846   1556180  
  9450.000000   1559120   1562534   1566203   1569779   1572808  
  9440.000000   1574867   1575659   1575189   1573725   1571781  
  9430.000000   1569918   1568604   1568108   1568447   1569474  
  9420.000000   1570891   1572389   1573640   1574396   1574469  
  9410.000000   1573780   1572352   1570317   1567897   1565342  
  9400.000000   1562879   1560631   1558618   1556761   1554979  
  9390.000000   1553256   1551683   1550450   1549745   1549700  
  9380.000000   1550279   1551309   1552505   1553588   1554392  
  9370.000000   1554897   1555246   1555587   1556024   1556480  
  9360.000000   1556761   1556579   1555717   1554110   1551927  
  9350.000000   1549546   1547435   1546050   1545659   1546334  
  9340.000000   1547912   1550101   1552555   1554944   1557000  
  9330.000000   1558497   1559260   1559161   1558155   1556292  
  9320.000000   1553766   1550906   1548176   1546076   1545024  
  9310.000000   1545237   1546622   1548834   1551285   1553342  
  9300.000000   1554423   1554234   1552858   1550755   1548621  
  9290.000000   1547130   1546702   1547337   1548584   1549669  
  9280.000000   1549759   1548300   1545288   1541303   1537311  
  9270.000000   1534328   1533015   1533455   1535076   1536884  
  9260.000000   1537857   1537342   1535350   1532477   1529665  
  9250.000000   1527791   1527327   1528160   1529673   1531042  
  9240.000000   1531639   1531257   1530193   1529071   1528570  
  9230.000000   1529106   1530644   1532733   1534730   1536049  
  9220.000000   1536397   1535807   1534593   1533191   1531970  
  9210.000000   1531160   1530792   1530815   1531155   1531792  
  9200.000000   1532733   1533931   1535229   1536342   1536900  
  9190.000000   1536550   1535058   1532436   1528982   1525217  
  9180.000000   1521757   1519159   1517786   1517734   1518774  
  9170.000000   1520449   1522156   1523349   1523661   1523005  
  9160.000000   1521590   1519826   1518203   1517076   1516582  
  9150.000000   1516557   1516677   1516539   1515867   1514598  
  9140.000000   1512918   1511193   1509806   1509073   1509140  
  9130.000000   1509995   1511498   1513443   1515632   1517845  
  9120.000000   1519851   1521369   1522138   1521971   1520870  
  9110.000000   1519044   1516914   1515005   1513805   1513619  
  9100.000000   1514455   1516079   1518075   1520052   1521690  
  9090.000000   1522881   1523654   1524149   1524485   1524717  
  9080.000000   1524816   1524679   1524205   1523289   1521901  
  9070.000000   1520028   1517726   1515078   1512216   1509325  
  9060.000000   1506609   1504315   1502658   1501815   1501861  
  9050.000000   1502808   1504586   1507067   1510031   1513184  
  9040.000000   1516179   1518632   1520204   1520662   1520009  
  9030.000000   1518455   1516398   1514278   1512479   1511186  
  9020.000000   1510373   1509831   1509306   1508605   1507642  
  9010.000000   1506473   1505200   1503954   1502803   1501803  
  9000.000000   1501029   1500627   1500817   1501809   1503703  
  8990.000000   1506348   1509320   1511997   1513747   1514122  
  8980.000000   1513038   1510795   1508024   1505459   1503723  
  8970.000000   1503125   1503608   1504808   1506203   1507308  
  8960.000000   1507806   1507638   1506977   1506144   1505484  
  8950.000000   1505252   1505538   1506239   1507108   1507824  
  8940.000000   1508124   1507884   1507187   1506304   1505589  
  8930.000000   1505367   1505785   1506765   1508024   1509171  
  8920.000000   1509873   1509957   1509491   1508704   1507888  
  8910.000000   1507254   1506873   1506667   1506517   1506347  
  8900.000000   1506221   1506308   1506799   1507806   1509266  
  8890.000000   1510967   1512612   1513974   1515001   1515833  
  8880.000000   1516725   1517887   1519371   1521003   1522454  
  8870.000000   1523369   1523545   1523012   1522043   1521030  
  8860.000000   1520330   1520134   1520412   1520992   1521646  
  8850.000000   1522246   1522784   1523378   1524154   1525180  
  8840.000000   1526384   1527588   1528584   1529216   1529464  
  8830.000000   1529395   1529136   1528766   1528293   1527655  
  8820.000000   1526786   1525711   1524587   1523704   1523385  
  8810.000000   1523868   1525184   1527121   1529277   1531174  
  8800.000000   1532426   1532824   1532412   1531421   1530209  
  8790.000000   1529121   1528418   1528232   1528592   1529458  
  8780.000000   1530776   1532484   1534516   1536780   1539137  
  8770.000000   1541406   1543405   1544991   1546127   1546875  
  8760.000000   1547422   1547978   1548762   1549888   1551360  
  8750.000000   1553074   1554857   1556561   1558090   1559471  
  8740.000000   1560805   1562253   1563947   1565950   1568208  
  8730.000000   1570559   1572767   1574578   1575780   1576248  
  8720.000000   1575972   1575073   1573795   1572459   1571409  
  8710.000000   1570924   1571158   1572081   1573484   1575034  
  8700.000000   1576370   1577227   1577522   1577392   1577141  
  8690.000000   1577139   1577701   1578977   1580940   1583370  
  8680.000000   1585978   1588453   1590596   1592306   1593602  
  8670.000000   1594557   1595283   1595898   1596533   1597337  
  8660.000000   1598460   1600034   1602124   1604714   1607676  
  8650.000000   1610813   1613875   1616654   1618993   1620830  
  8640.000000   1622155   1623003   1623448   1623576   1623527  
  8630.000000   1623438   1623464   1623699   1624138   1624665  
  8620.000000   1625066   1625158   1624857   1624321   1623916  
  8610.000000   1624157   1625518   1628240   1632196   1636867  
  8600.000000   1641473   1645187   1647399   1647906   1646979  
  8590.000000   1645264   1643582   1642676   1643019   1644693  
  8580.000000   1647410   1650625   1653709   1656130   1657551  
  8570.000000   1657914   1657392   1656373   1655325   1654716  
  8560.000000   1654897   1656010   1657973   1660471   1663049  
  8550.000000   1665219   1666591   1666983   1666455   1665311  
  8540.000000   1663996   1663000   1662718   1663347   1664831  
  8530.000000   1666900   1669155   1671171   1672610   1673294  
  8520.000000   1673254   1672689   1671904   1671196   1670799  
  8510.000000   1670795   1671154   1671732   1672390   1673026  
  8500.000000   1673643   1674338   1675255   1676531   1678227  
  8490.000000   1680312   1682663   1685118   1687534   1689812  
  8480.000000   1691927   1693891   1695740   1697476   1699071  
  8470.000000   1700445   1701515   1702209   1702505   1702435  
  8460.000000   1702094   1701637   1701253   1701157   1701526  
  8450.000000   1702495   1704087   1706223   1708689   1711208  
  8440.000000   1713487   1715306   1716561   1717294   1717674  
  8430.000000   1717928   1718258   1718780   1719502   1720347  
  8420.000000   1721195   1721944   1722548   1723026   1723420  
  8410.000000   1723774   1724077   1724290   1724351   1724240  
  8400.000000   1723994   1723740   1723655   1723916   1724621  
  8390.000000   1725758   1727195   1728713   1730062   1731034  
  8380.000000   1731515   1731506   1731094   1730420   1729635  
  8370.000000   1728869   1728223   1727754   1727500   1727470  
  8360.000000   1727648   1727976   1728346   1728635   1728734  
  8350.000000   1728607   1728304   1727983   1727869   1728195  
  8340.000000   1729098   1730578   1732460   1734454   1736235  
  8330.000000   1737539   1738248   1738381   1738086   1737526  
  8320.000000   1736826   1736002   1734988   1733692   1732096  
  8310.000000   1730321   1728627   1727372   1726872   1727327  
  8300.000000   1728691   1730710   1732943   1734936   1736328  
  8290.000000   1736968   1736926   1736439   1735827   1735353  
  8280.000000   1735147   1735158   1735201   1735030   1734444  
  8270.000000   1733354   1731820   1730042   1728286   1726822  
  8260.000000   1725823   1725343   1725295   1725509   1725779  
  8250.000000   1725934   1725881   1725622   1725243   1724870  
  8240.000000   1724619   1724556   1724689   1724960   1725271  
  8230.000000   1725502   1725541   1725320   1724825   1724120  
  8220.000000   1723319   1722580   1722048   1721823   1721900  
  8210.000000   1722165   1722392   1722333   1721778   1720659  
  8200.000000   1719058   1717215   1715428   1713973   1712986  
  8190.000000   1712436   1712118   1711757   1711097   1709998  
  8180.000000   1708469   1706641   1704692   1702776   1700964  
  8170.000000   1699246   1697571   1695898   1694249   1692700  
  8160.000000   1691356   1690283   1689468   1688814   1688168  
  8150.000000   1687393   1686421   1685292   1684133   1683110  
  8140.000000   1682356   1681918   1681747   1681711   1681658  
  8130.000000   1681441   1680973   1680200   1679111   1677705  
  8120.000000   1675996   1674040   1671946   1669911   1668175  
  8110.000000   1666993   1666525   1666803   1667663   1668804  
  8100.000000   1669830   1670370   1670170   1669141   1667383  
  8090.000000   1665110   1662592   1660053   1657647   1655425  
  8080.000000   1653388   1651520   1649832   1648374   1647209  
  8070.000000   1646402   1645954   1645818   1645877   1645995  
  8060.000000   1646051   1645967   1645741   1645415   1645069  
  8050.000000   1644759   1644510   1644290   1644036   1643671  
  8040.000000   1643133   1642396   1641471   1640400   1639232  
  8030.000000   1638025   1636813   1635642   1634538   1633542  
  8020.000000   1632679   1631966   1631386   1630886   1630381  
  8010.000000   1629765   1628940   1627830   1626417   1624726  
  8000.000000   1622846   1620890   1618999   1617311   1615947  
  7990.000000   1614995   1614494   1614434   1614745   1615316  
  7980.000000   1616011   1616688   1617234   1617572   1617677  
  7970.000000   1617555   1617247   1616791   1616236   1615619  
  7960.000000   1614982   1614369   1613825   1613396   1613097  
  7950.000000   1612931   1612856   1612830   1612798   1612733  
  7940.000000   1612632   1612510   1612386   1612246   1612042  
  7930.000000   1611674   1611040   1610054   1608712   1607101  
  7920.000000   1605409   1603875   1602735   1602151   1602160  
  7910.000000   1602669   1603477   1604347   1605073   1605539  
  7900.000000   1605746   1605782   1605786   1605875   1606108  
  7890.000000   1606454   1606831   1607115   1607215   1607087  
  7880.000000   1606745   1606258   1605706   1605180   1604737  
  7870.000000   1604429   1604282   1604324   1604560   1604979  
  7860.000000   1605518   1606077   1606514   1606691   1606506  
  7850.000000   1605937   1605043   1603957   1602839   1601825  
  7840.000000   1600985   1600317   1599748   1599192   1598572  
  7830.000000   1597868   1597102   1596340   1595638   1595036  
  7820.000000   1594524   1594057   1593570   1593002   1592317  
  7810.000000   1591507   1590599   1589631   1588652   1587706  
  7800.000000   1586829   1586045   1585367   1584800   1584338  
  7790.000000   1583970   1583671   1583413   1583161   1582884  
  7780.000000   1582559   1582176   1581748   1581295   1580851  
  7770.000000   1580441   1580070   1579725   1579366   1578951  
  7760.000000   1578453   1577880   1577280   1576732   1576312  
  7750.000000   1576057   1575935   1575841   1575629   1575155  
  7740.000000   1574343   1573214   1571896   1570582   1569467  
  7730.000000   1568680   1568244   1568078   1568032   1567951  
  7720.000000   1567733   1567353   1566861   1566341   1565869  
  7710.000000   1565477   1565147   1564821   1564444   1563976  
  7700.000000   1563417   1562791   1562141   1561501   1560900  
  7690.000000   1560355   1559885   1559512   1559254   1559119  
  7680.000000   1559083   1559094   1559080   1558978   1558757  
  7670.000000   1558433   1558064   1557719   1557452   1557267  
  7660.000000   1557114   1556909   1556570   1556050   1555365  
  7650.000000   1554583   1553804   1553111   1552549   1552108  
  7640.000000   1551734   1551363   1550955   1550513   1550093  
  7630.000000   1549775   1549643   1549737   1550049   1550511  
  7620.000000   1551033   1551517   1551900   1552161   1552332  
  7610.000000   1552469   1552641   1552893   1553239   1553657  
  7600.000000   1554110   1554554   1554968   1555349   1555718  
  7590.000000   1556095   1556493   1556898   1557278   1557594  
  7580.000000   1557826   1557983   1558110   1558280   1558571  
  7570.000000   1559032   1559672   1560449   1561282   1562078  
  7560.000000   1562761   1563288   1563664   1563930   1564157  
  7550.000000   1564419   1564791   1565325   1566052   1566969  
  7540.000000   1568054   1569259   1570525   1571788   1573002  
  7530.000000   1574135   1575190   1576179   1577140   1578089  
  7520.000000   1579049   1580014   1580987   1581963   1582968  
  7510.000000   1584033   1585210   1586539   1588050   1589742  
  7500.000000   1591590   1593547   1595562   1597585   1599585  
  7490.000000   1601536   1603437   1605282   1607081   1608831  
  7480.000000   1610541   1612206   1613828   1615406   1616950  
  7470.000000   1618482   1620045   1621691   1623480   1625456  
  7460.000000   1627634   1629981   1632422   1634848   1637157  
  7450.000000   1639268   1641169   1642899   1644565   1646289  
  7440.000000   1648198   1650363   1652807   1655477   1658286  
  7430.000000   1661119   1663877   1666490   1668942   1671262  
  7420.000000   1673513   1675771   1678100   1680540   1683103  
  7410.000000   1685768   1688505   1691282   1694071   1696850  
  7400.000000   1699593   1702270   1704840   1707261   1709507  
  7390.000000   1711578   1713515   1715387   1717272   1719233  
  7380.000000   1721293   1723437   1725615   1727778   1729894  
  7370.000000   1731971   1734044   1736158   1738338   1740578  
  7360.000000   1742839   1745073   1747255   1749394   1751544  
  7350.000000   1753778   1756152   1758675   1761294   1763914  
  7340.000000   1766431   1768781   1770956   1773011   1775030  
  7330.000000   1777094   1779245   1781479   1783744   1785981  
  7320.000000   1788135   1790184   1792127   1793983   1795767  
  7310.000000   1797492   1799154   1800759   1802309   1803825  
  7300.000000   1805321   1806811   1808285   1809727   1811102  
  7290.000000   1812392   1813581   1814677   1815685   1816617  
  7280.000000   1817470   1818237   1818915   1819514   1820066  
  7270.000000   1820618   1821213   1821873   1822593   1823332  
  7260.000000   1824039   1824667   1825209   1825688   1826176  
  7250.000000   1826753   1827507   1828489   1829726   1831191  
  7240.000000   1832846   1834619   1836459   1838312   1840170  
  7230.000000   1842036   1843960   1845982   1848161   1850506  
  7220.000000   1853014   1855625   1858286   1860927   1863532  
  7210.000000   1866106   1868712   1871407   1874254   1877260  
  7200.000000   1880418   1883685   1887053   1890527   1894170  
  7190.000000   1898034   1902166   1906534   1911057   1915586  
  7180.000000   1919995   1924193   1928201   1932111   1936083  
  7170.000000   1940254   1944725   1949492   1954499   1959629  
  7160.000000   1964794   1969919   1974993   1980015   1985018  
  7150.000000   1990012   1995033   2000110   2005319   2010733  
  7140.000000   2016449   2022501   2028895   2035551   2042380  
  7130.000000   2049270   2056170   2063052   2069954   2076897  
  7120.000000   2083908   2090945   2097970   2104917   2111780  
  7110.000000   2118583   2125422   2132394   2139599   2147074  
  7100.000000   2154821   2162782   2170900   2179111   2187379  
  7090.000000   2195668   2203957   2212206   2220384   2228458  
  7080.000000   2236436   2244341   2252234   2260158   2268151  
  7070.000000   2276202   2284284   2292357   2300405   2308443  
  7060.000000   2316513   2324663   2332923   2341295   2349748  
  7050.000000   2358242   2366742   2375232   2383702   2392133  
  7040.000000   2400478   2408661   2416591   2424207   2431494  
  7030.000000   2438517   2445385   2452235   2459164   2466225  
  7020.000000   2473387   2480594   2487763   2494847   2501814  
  7010.000000   2508671   2515410   2522035   2528518   2534855  
  7000.000000   2541043   2547124   2553135   2559118   2565056  
  6990.000000   2570904   2576565   2581967   2587060   2591884  
  6980.000000   2596510   2601058   2605596   2610157   2614683  
  6970.000000   2619101   2623312   2627281   2631004   2634545  
  6960.000000   2637954   2641293   2644566   2647778   2650901  
  6950.000000   2653939   2656892   2659781   2662590   2665294  
  6940.000000   2667828   2670143   2672207   2674058   2675767  
  6930.000000   2677448   2679181   2681015   2682921   2684843  
  6920.000000   2686695   2688432   2690037   2691549   2693016  
  6910.000000   2694486   2695976   2697482   2698976   2700431  
  6900.000000   2701821   2703124   2704311   2705353   2706221  
  6890.000000   2706916   2707475   2707989   2708574   2709350  
  6880.000000   2710384   2711679   2713157   2714699   2716181  
  6870.000000   2717516   2718679   2719701   2720638   2721543  
  6860.000000   2722441   2723327   2724184   2725005   2725802  
  6850.000000   2726608   2727457   2728369   2729328   2730295  
  6840.000000   2731213   2732044   2732763   2733376   2733899  
  6830.000000   2734351   2734737   2735058   2735311   2735513  
  6820.000000   2735690   2735889   2736143   2736476   2736880  
  6810.000000   2737327   2737770   2738169   2738486   2738698  
  6800.000000   2738784   2738733   2738536   2738207   2737781  
  6790.000000   2737324   2736908   2736607   2736454   2736442  
  6780.000000   2736512   2736588   2736589   2736469   2736215  
  6770.000000   2735853   2735414   2734929   2734403   2733827  
  6760.000000   2733186   2732477   2731707   2730900   2730074  
  6750.000000   2729243   2728398   2727533   2726645   2725756  
  6740.000000   2724899   2724118   2723435   2722846   2722300  
  6730.000000   2721729   2721056   2720235   2719254   2718145  
  6720.000000   2716956   2715746   2714547   2713379   2712237  
  6710.000000   2711118   2710014   2708931   2707863   2706805  
  6700.000000   2705726   2704596   2703380   2702065   2700660  
  6690.000000   2699197   2697718   2696261   2694840   2693453  
  6680.000000   2692073   2690674   2689231   2687738   2686194  
  6670.000000   2684609   2682986   2681327   2679619   2677855  
  6660.000000   2676026   2674142   2672215   2670272   2668336  
  6650.000000   2666434   2664572   2662749   2660944   2659131  
  6640.000000   2657275   2655353   2653352   2651280   2649159  
  6630.000000   2647020   2644888   2642777   2640685   2638597  
  6620.000000   2636496   2634377   2632246   2630127   2628046  
  6610.000000   2626024   2624066   2622163   2620290   2618422  
  6600.000000   2616536   2614616   2612652   2610637   2608566  
  6590.000000   2606441   2604278   2602107   2599974   2597925  
  6580.000000   2595993   2594179   2592457   2590775   2589079  
  6570.000000   2587331   2585523   2583676   2581829   2580017  
  6560.000000   2578258   2576549   2574878   2573234   2571624  
  6550.000000   2570065   2568583   2567182   2565847   2564529  
  6540.000000   2563173   2561731   2560193   2558587   2556982  
  6530.000000   2555449   2554053   2552819   2551740   2550778  
  6520.000000   2549886   2549019   2548144   2547239   2546286  
  6510.000000   2545271   2544187   2543036   2541838   2540625  
  6500.000000   2539433   2538288   2537194   2536130   2535057  
  6490.000000   2533942   2532763   2531529   2530265   2529006  
  6480.000000   2527776   2526580   2525407   2524234   2523047  
  6470.000000   2521843   2520636   2519441   2518271   2517123  
  6460.000000   2515987   2514850   2513708   2512573   2511466  
  6450.000000   2510414   2509431   2508513   2507643   2506797  
  6440.000000   2505955   2505108   2504258   2503410   2502563  
  6430.000000   2501706   2500819   2499885   2498898   2497870  
  6420.000000   2496829   2495809   2494838   2493933   2493098  
  6410.000000   2492326   2491606   2490924   2490263   2489596  
  6400.000000   2488890   2488106   2487218   2486223   2485152  
  6390.000000   2484065   2483031   2482114   2481342   2480706  
  6380.000000   2480163   2479651   2479118   2478529   2477880  
  6370.000000   2477177   2476435   2475653   2474822   2473925  
  6360.000000   2472957   2471931   2470882   2469863   2468925  
  6350.000000   2468107   2467421   2466859   2466382   2465945  
  6340.000000   2465484   2464943   2464267   2463421   2462397  
  6330.000000   2461224   2459958   2458685   2457479   2456402  
  6320.000000   2455460   2454622   2453811   2452947   2451957  
  6310.000000   2450813   2449517   2448109   2446627   2445114  
  6300.000000   2443578   2442018   2440414   2438755   2437027  
  6290.000000   2435236   2433380   2431471   2429503   2427481  
  6280.000000   2425395   2423256   2421063   2418834   2416571  
  6270.000000   2414289   2411987   2409677   2407360   2405049  
  6260.000000   2402740   2400434   2398113   2395759   2393343  
  6250.000000   2390852   2388276   2385629   2382925   2380187  
  6240.000000   2377430   2374670   2371911   2369162   2366428  
  6230.000000   2363718   2361031   2358360   2355686   2352992  
  6220.000000   2350261   2347497   2344718   2341955   2339239  
  6210.000000   2336583   2333981   2331403   2328816   2326188  
  6200.000000   2323512   2320800   2318082   2315389   2312744  
  6190.000000   2310156   2307622   2305139   2302710   2300346  
  6180.000000   2298059   2295854   2293718   2291624   2289534  
  6170.000000   2287412   2285241   2283017   2280755   2278471  
  6160.000000   2276178   2273878   2271569   2269250   2266931  
  6150.000000   2264636   2262397   2260243   2258189   2256231  
  6140.000000   2254351   2252522   2250720   2248930   2247150  
  6130.000000   2245379   2243618   2241860   2240103   2238337  
  6120.000000   2236569   2234807   2233070   2231368   2229714  
  6110.000000   2228103   2226536   2225007   2223528   2222109  
  6100.000000   2220770   2219521   2218367   2217295   2216297  
  6090.000000   2215359   2214487   2213686   2212978   2212364  
  6080.000000   2211845   2211391   2210979   2210570   2210156  
  6070.000000   2209729   2209315   2208929   2208604   2208347  
  6060.000000   2208179   2208098   2208123   2208255   2208514  
  6050.000000   2208894   2209394   2209988   2210661   2211389  
  6040.000000   2212180   2213043   2214013   2215106   2216342  
  6030.000000   2217706   2219180   2220725   2222314   2223920  
  6020.000000   2225537   2227153   2228767   2230364   2231936  
  6010.000000   2233468   2234964   2236433   2237898   2239377  
  6000.000000   2240882   2242406   2243936   2245445   2246920  
  5990.000000   2248354   2249762   2251165   2252597   2254083  
  5980.000000   2255646   2257297   2259046   2260895   2262844  
  5970.000000   2264879   2266984   2269125   2271277   2273407  
  5960.000000   2275509   2277581   2279644   2281712   2283807  
  5950.000000   2285929   2288075   2290230   2292388   2294543  
  5940.000000   2296709   2298898   2301129   2303414   2305760  
  5930.000000   2308162   2310617   2313117   2315656   2318222  
  5920.000000   2320806   2323389   2325957   2328494   2330991  
  5910.000000   2333441   2335841   2338181   2340453   2342643  
  5900.000000   2344752   2346798   2348819   2350879   2353043  
  5890.000000   2355371   2357885   2360569   2363368   2366203  
  5880.000000   2368989   2371660   2374182   2376549   2378786  
  5870.000000   2380925   2383005   2385047   2387072   2389080  
  5860.000000   2391079   2393067   2395054   2397053   2399092  
  5850.000000   2401202   2403423   2405789   2408323   2411028  
  5840.000000   2413884   2416851   2419880   2422925   2425953  
  5830.000000   2428951   2431917   2434859   2437774   2440654  
  5820.000000   2443472   2446202   2448811   2451285   2453606  
  5810.000000   2455782   2457806   2459692   2461433   2463052  
  5800.000000   2464546   2465950   2467259   2468497   2469633  
  5790.000000   2470655   2471505   2472152   2472541   2472659  
  5780.000000   2472474   2471990   2471195   2470104   2468729  
  5770.000000   2467118   2465332   2463464   2461600   2459826  
  5760.000000   2458190   2456712   2455378   2454163   2453046  
  5750.000000   2452021   2451102   2450311   2449671   2449179  
  5740.000000   2448822   2448560   2448362   2448188   2448030  
  5730.000000   2447877   2447749   2447650   2447598   2447588  
  5720.000000   2447625   2447693   2447791   2447906   2448045  
  5710.000000   2448212   2448433   2448736   2449159   2449731  
  5700.000000   2450468   2451357   2452361   2453419   2454469  
  5690.000000   2455455   2456349   2457151   2457878   2458560  
  5680.000000   2459212   2459839   2460420   2460933   2461344  
  5670.000000   2461636   2461791   2461810   2461690   2461440  
  5660.000000   2461067   2460599   2460066   2459516   2458985  
  5650.000000   2458503   2458068   2457659   2457236   2456763  
  5640.000000   2456214   2455593   2454920   2454231   2453557  
  5630.000000   2452921   2452331   2451784   2451277   2450805  
  5620.000000   2450367   2449957   2449561   2449162   2448734  
  5610.000000   2448267   2447758   2447225   2446691   2446180  
  5600.000000   2445698   2445236   2444767   2444262   2443697  
  5590.000000   2443070   2442387   2441664   2440909   2440125  
  5580.000000   2439295   2438408   2437450   2436426   2435345  
  5570.000000   2434225   2433077   2431907   2430713   2429496  
  5560.000000   2428259   2427022   2425801   2424615   2423467  
  5550.000000   2422348   2421235   2420110   2418964   2417804  
  5540.000000   2416651   2415530   2414459   2413443   2412472  
  5530.000000   2411535   2410623   2409738   2408885   2408068  
  5520.000000   2407280   2406501   2405698   2404842   2403914  
  5510.000000   2402912   2401851   2400750   2399624   2398479  
  5500.000000   2397307   2396106   2394872   2393623   2392372  
  5490.000000   2391139   2389916   2388689   2387417   2386071  
  5480.000000   2384628   2383097   2381498   2379871   2378238  
  5470.000000   2376613   2374980   2373320   2371604   2369822  
  5460.000000   2367966   2366043   2364052   2361991   2359852  
  5450.000000   2357631   2355337   2352997   2350647   2348329  
  5440.000000   2346072   2343886   2341771   2339718   2337725  
  5430.000000   2335796   2333945   2332171   2330470   2328816  
  5420.000000   2327192   2325578   2324001   2322493   2321123  
  5410.000000   2319932   2318955   2318166   2317534   2316994  
  5400.000000   2316521   2316091   2315734   2315470   2315347  
  5390.000000   2315371   2315564   2315904   2316403   2317050  
  5380.000000   2317872   2318862   2320040   2321370   2322851  
  5370.000000   2324435   2326139   2327947   2329915   2332047  
  5360.000000   2334407   2336981   2339818   2342894   2346270  
  5350.000000   2349938   2353986   2358411   2363292   2368595  
  5340.000000   2374377   2380592   2387312   2394507   2402263  
  5330.000000   2410537   2419385   2428720   2438573   2448857  
  5320.000000   2459651   2470930   2482840   2495389   2508728  
  5310.000000   2522823   2537773   2553491   2570047   2587361  
  5300.000000   2605530   2624516   2644453   2665327   2687271  
  5290.000000   2710241   2734296   2759306   2785217   2811829  
  5280.000000   2839064   2866787   2895037   2923827   2953296  
  5270.000000   2983488   3014431   3045992   3077958   3110053  
  5260.000000   3142020   3173711   3205061   3236133   3266953  
  5250.000000   3297566   3327837   3357639   3386683   3414833  
  5240.000000   3441895   3467933   3492938   3517117   3540497  
  5230.000000   3563238   3585252   3606569   3626993   3646511  
  5220.000000   3664953   3682392   3698763   3714244   3728839  
  5210.000000   3742731   3755878   3768364   3780036   3790904  
  5200.000000   3800798   3809783   3817793   3824991   3831380  
  5190.000000   3837121   3842173   3846619   3850355   3853430  
  5180.000000   3855759   3857430   3858406   3858791   3858546  
  5170.000000   3857750   3856349   3854420   3851934   3848999  
  5160.000000   3845616   3841886   3837789   3833379   3828602  
  5150.000000   3823492   3818006   3812200   3806062   3799658  
  5140.000000   3792981   3786083   3778958   3771660   3764199  
  5130.000000   3756637   3748985   3741285   3733518   3725688  
  5120.000000   3717758   3709736   3701615   3693437   3685229  
  5110.000000   3677038   3668880   3660768   3652687   3644626  
  5100.000000   3636569   3628520   3620481   3612470   3604495  
  5090.000000   3596563   3588665   3580796   3572942   3565097  
  5080.000000   3557258   3549430   3541616   3533827   3526065  
  5070.000000   3518334   3510629   3502943   3495257   3487554  
  5060.000000   3479808   3472009   3464151   3456247   3448318  
  5050.000000   3440397   3432509   3424673   3416888   3409146  
  5040.000000   3401429   3393721   3386017   3378319   3370644  
  5030.000000   3363006   3355428   3347918   3340492   3333152  
  5020.000000   3325914   3318780   3311769   3304877   3298123  
  5010.000000   3291494   3285008   3278653   3272460   3266430  
  5000.000000   3260609   3255003   3249653   3244549   3239713  
  4990.000000   3235115   3230772   3226654   3222795   3219180  
  4980.000000   3215863   3212838   3210162   3207822   3205868  
  4970.000000   3204274   3203083   3202255   3201824   3201743  
  4960.000000   3202041   3202671   3203672   3205010   3206735  
  4950.000000   3208818   3211305   3214153   3217388   3220957  
  4940.000000   3224883   3229122   3233713   3238631   3243921  
  4930.000000   3249555   3255558   3261880   3268527   3275440  
  4920.000000   3282623   3290030   3297677   3305529   3313605  
  4910.000000   3321875   3330357   3339025   3347893   3356943  
  4900.000000   3366182   3375587   3385151   3394842   3404635  
  4890.000000   3414496   3424395   3434297   3444170   3453986  
  4880.000000   3463715   3473338   3482834   3492201   3501422  
  4870.000000   3510499   3519409   3528148   3536681   3545007  
  4860.000000   3553095   3560959   3568586   3576005   3583211  
  4850.000000   3590237   3597078   3603769   3610304   3616713  
  4840.000000   3622986   3629142   3635153   3641027   3646727  
  4830.000000   3652264   3657615   3662805   3667825   3672697  
  4820.000000   3677404   3681954   3686316   3690498   3694482  
  4810.000000   3698295   3701943   3705465   3708865   3712170  
  4800.000000   3715362   3718452   3721417   3724272   3727009  
  4790.000000   3729654   3732204   3734681   3737069   3739375  
  4780.000000   3741576   3743675   3745653   3747523   3749270  
  4770.000000   3750911   3752429   3753833   3755101   3756240  
  4760.000000   3757227   3758076   3758766   3759314   3759702  
  4750.000000   3759944   3760019   3759933   3759656   3759191  
  4740.000000   3758507   3757609   3756481   3755145   3753601  
  4730.000000   3751885   3750000   3747974   3745803   3743504  
  4720.000000   3741071   3738528   3735885   3733180   3730433  
  4710.000000   3727677   3724921   3722174   3719425   3716673  
  4700.000000   3713911   3711150   3708401   3705689   3703028  
  4690.000000   3700433   3697905   3695436   3693010   3690607  
  4680.000000   3688205   3685780   3683312   3680773   3678149  
  4670.000000   3675420   3672589   3669664   3666681   3663676  
  4660.000000   3660706   3657814   3655052   3652446   3650026  
  4650.000000   3647797   3645771   3643938   3642295   3640822  
  4640.000000   3639502   3638306   3637216   3636204   3635267  
  4630.000000   3634388   3633574   3632814   3632110   3631445  
  4620.000000   3630811   3630186   3629560   3628920   3628266  
  4610.000000   3627598   3626921   3626239   3625561   3624889  
  4600.000000   3624229   3623584   3622953   3622334   3621720  
  4590.000000   3621103   3620469   3619812   3619125   3618411  
  4580.000000   3617672   3616918   3616155   3615391   3614629  
  4570.000000   3613872   3613115   3612355   3611581   3610784  
  4560.000000   3609948   3609063   3608119   3607112   3606041  
  4550.000000   3604909   3603722   3602480   3601187   3599841  
  4540.000000   3598455   3597035   3595616   3594219   3592892  
  4530.000000   3591654   3590551   3589587   3588804   3588202  
  4520.000000   3587831   3587696   3587857   3588310   3589113  
  4510.000000   3590245   3591763   3593640   3595949   3598675  
  4500.000000   3601912   3605649   3609980   3614881   3620439  
  4490.000000   3626623   3633518   3641098   3649444   3658516  
  4480.000000   3668367   3678929   3690220   3702149   3714718  
  4470.000000   3727839   3741508   3755638   3770209   3785120  
  4460.000000   3800331   3815740   3831301   3846932   3862598  
  4450.000000   3878238   3893823   3909310   3924666   3939869  
  4440.000000   3954891   3969739   3984391   3998877   4013173  
  4430.000000   4027316   4041261   4055039   4068575   4081882  
  4420.000000   4094845   4107456   4119568   4131154   4142055  
  4410.000000   4152238   4161548   4169960   4177339   4183686  
  4400.000000   4188912   4193076   4196163   4198299   4199541  
  4390.000000   4200057   4199934   4199337   4198346   4197097  
  4380.000000   4195662   4194158   4192668   4191312   4190194  
  4370.000000   4189429   4189122   4189359   4190215   4191721  
  4360.000000   4193907   4196745   4200213   4204235   4208743  
  4350.000000   4213634   4218828   4224243   4229835   4235585  
  4340.000000   4241501   4247588   4253830   4260142   4266367  
  4330.000000   4272267   4277556   4281954   4285246   4287355  
  4320.000000   4288348   4288466   4288035   4287445   4287015  
  4310.000000   4287002   4287492   4288500   4289901   4291586  
  4300.000000   4293395   4295243   4297035   4298737   4300295  
  4290.000000   4301679   4302845   4303768   4304433   4304860  
  4280.000000   4305083   4305171   4305173   4305163   4305169  
  4270.000000   4305236   4305350   4305505   4305628   4305642  
  4260.000000   4305413   4304818   4303722   4302050   4299774  
  4250.000000   4296956   4293711   4290212   4286628   4283123  
  4240.000000   4279797   4276721   4273896   4271311   4268923  
  4230.000000   4266705   4264616   4262624   4260685   4258749  
  4220.000000   4256764   4254674   4252449   4250073   4247574  
  4210.000000   4244990   4242394   4239849   4237424   4235160  
  4200.000000   4233094   4231224   4229554   4228053   4226708  
  4190.000000   4225476   4224354   4223303   4222345   4221457  
  4180.000000   4220688   4220029   4219548   4219250   4219232  
  4170.000000   4219526   4220260   4221488   4223349   4225874  
  4160.000000   4229158   4233167   4237928   4243345   4249416  
  4150.000000   4256039   4263226   4270898   4279094   4287751  
  4140.000000   4296925   4306562   4316725   4327370   4338560  
  4130.000000   4350250   4362483   4375194   4388403   4402039  
  4120.000000   4416118   4430590   4445489   4460786   4476522  
  4110.000000   4492669   4509248   4526209   4543547   4561195  
  4100.000000   4579128   4597282   4615633   4634138   4652789  
  4090.000000   4671569   4690476   4709504   4728642   4747882  
  4080.000000   4767203   4786602   4806055   4825567   4845102  
  4070.000000   4864654   4884151   4903569   4922815   4941872  
  4060.000000   4960654   4979167   4997322   5015128   5032478  
  4050.000000   5049380   5065728   5081564   5096798   5111495  
  4040.000000   5125545   5138977   5151627   5163496   5174415  
  4030.000000   5184419   5193386   5201391   5208335   5214271  
  4020.000000   5219055   5222743   5225278   5226767   5227170  
  4010.000000   5226691   5225443   5223511   5220691   5217107  
  4000.000000   5213136  
##END= 
