##TITLE= Sample 014 By ssteindl date Montag, November 19 2018
##JCAMP-DX= 4.24
##DATA TYPE= INFRARED SPECTRUM
##ORIGIN= Exported PE Spectrum Data File
##OWNER= Sandra Steindl
##DATE= 18/11/19
##TIME= 17:39:56.00
##SPECTROMETER/DATA SYSTEM= PERKIN-ELMER Frontier FT-IR/NIR IR
##INSTRUMENT PARAMETERS=
  APODIZATION=stark
  DETECTOR=INGAAS
##RESOLUTION= 16.000000
##DELTAX= -2.000000
##XUNITS= 1/CM
##YUNITS= A
##XFACTOR= 1.00
##YFACTOR= 0.00000011920928955078
##FIRSTX= 10000.00
##LASTX= 4000.00
##NPOINTS= 3001
##FIRSTY= 0.208025
##MAXY= 0.573649
##MINY= 0.183190
##XYDATA= (X++(Y..Y))
 10000.000000   1745036   1750474   1755880   1760538   1762893  
  9990.000000   1761650   1756806   1749838   1742928   1738242  
  9980.000000   1737204   1739971   1745182   1750530   1753690  
  9970.000000   1753259   1749192   1742822   1736197   1731324  
  9960.000000   1729359   1730412   1733712   1738133   1742771  
  9950.000000   1747154   1751222   1754964   1758089   1759973  
  9940.000000   1759848   1757293   1752610   1746917   1741867  
  9930.000000   1739008   1739160   1742063   1746408   1750397  
  9920.000000   1752391   1751577   1748204   1743386   1738559  
  9910.000000   1734860   1732710   1731794   1731318   1730504  
  9900.000000   1728958   1726866   1724866   1723755   1724104  
  9890.000000   1726028   1729103   1732504   1735270   1736547  
  9880.000000   1735836   1733026   1728451   1722768   1716872  
  9870.000000   1711719   1708139   1706636   1707264   1709589  
  9860.000000   1712794   1715896   1717979   1718462   1717210  
  9850.000000   1714575   1711276   1708170   1706060   1705424  
  9840.000000   1706385   1708607   1711475   1714184   1716004  
  9830.000000   1716445   1715409   1713226   1710555   1708222  
  9820.000000   1706971   1707275   1709219   1712503   1716537  
  9810.000000   1720631   1724150   1726687   1728088   1728469  
  9800.000000   1728100   1727313   1726414   1725592   1724926  
  9790.000000   1724333   1723641   1722622   1721099   1719043  
  9780.000000   1716583   1714043   1711774   1710143   1709340  
  9770.000000   1709418   1710237   1711590   1713219   1714911  
  9760.000000   1716464   1717678   1718329   1718150   1716951  
  9750.000000   1714628   1711355   1707469   1703491   1699857  
  9740.000000   1696820   1694338   1692155   1690034   1687916  
  9730.000000   1686142   1685283   1686044   1688837   1693642  
  9720.000000   1699852   1706436   1712252   1716311   1718120  
  9710.000000   1717613   1715159   1711221   1706260   1700589  
  9700.000000   1694478   1688279   1682515   1677902   1675144  
  9690.000000   1674769   1676821   1680886   1686049   1691240  
  9680.000000   1695430   1697922   1698510   1697379   1695122  
  9670.000000   1692380   1689806   1687775   1686405   1685529  
  9660.000000   1684789   1683851   1682518   1680948   1679616  
  9650.000000   1679274   1680648   1684159   1689593   1696024  
  9640.000000   1701963   1705773   1706226   1702938   1696595  
  9630.000000   1688763   1681431   1676363   1674542   1675910  
  9620.000000   1679430   1683543   1686661   1687722   1686385  
  9610.000000   1683103   1678796   1674572   1671329   1669573  
  9600.000000   1669345   1670260   1671711   1672960   1673379  
  9590.000000   1672516   1670246   1666774   1662607   1658400  
  9580.000000   1654793   1652198   1650750   1650264   1650411  
  9570.000000   1650843   1651363   1651994   1652904   1654324  
  9560.000000   1656356   1658933   1661808   1664657   1667229  
  9550.000000   1669364   1671045   1672242   1672903   1672857  
  9540.000000   1671924   1669998   1667182   1663837   1660509  
  9530.000000   1657832   1656268   1656043   1657007   1658814  
  9520.000000   1660976   1663130   1665034   1666639   1667921  
  9510.000000   1668835   1669220   1668846   1667519   1665161  
  9500.000000   1661923   1658089   1654045   1650067   1646292  
  9490.000000   1642645   1638967   1635134   1631189   1627396  
  9480.000000   1624163   1621934   1621012   1621500   1623254  
  9470.000000   1625982   1629351   1633075   1636964   1640862  
  9460.000000   1644578   1647828   1650248   1651489   1651361  
  9450.000000   1649923   1647537   1644740   1642127   1640096  
  9440.000000   1638741   1637771   1636632   1634719   1631622  
  9430.000000   1627326   1622222   1617040   1612601   1609646  
  9420.000000   1608625   1609659   1612523   1616746   1621721  
  9410.000000   1626798   1631376   1634955   1637206   1638010  
  9400.000000   1637518   1636107   1634333   1632747   1631762  
  9390.000000   1631488   1631733   1632066   1632008   1631200  
  9380.000000   1629533   1627165   1624438   1621738   1619336  
  9370.000000   1617329   1615664   1614275   1613183   1612571  
  9360.000000   1612719   1613913   1616291   1619760   1623940  
  9350.000000   1628245   1632008   1634653   1635834   1635473  
  9340.000000   1633776   1631137   1628086   1625170   1622852  
  9330.000000   1621414   1620869   1620985   1621317   1621371  
  9320.000000   1620733   1619241   1617035   1614540   1612276  
  9310.000000   1610677   1609894   1609781   1609977   1610098  
  9300.000000   1609928   1609521   1609164   1609221   1609894  
  9290.000000   1611118   1612514   1613570   1613810   1613006  
  9280.000000   1611253   1608914   1606464   1604246   1602375  
  9270.000000   1600684   1598912   1596758   1594062   1590783  
  9260.000000   1587050   1583078   1579154   1575603   1572814  
  9250.000000   1571244   1571367   1573517   1577725   1583577  
  9240.000000   1590279   1596802   1602206   1605855   1607636  
  9230.000000   1607938   1607496   1607085   1607221   1608057  
  9220.000000   1609403   1610945   1612372   1613541   1614414  
  9210.000000   1615028   1615291   1614978   1613708   1611130  
  9200.000000   1607082   1601740   1595626   1589447   1583908  
  9190.000000   1579505   1576424   1574571   1573647   1573354  
  9180.000000   1573473   1573931   1574719   1575836   1577242  
  9170.000000   1578809   1580414   1581903   1583227   1584323  
  9160.000000   1585176   1585691   1585779   1585353   1584449  
  9150.000000   1583262   1582159   1581580   1581883   1583200  
  9140.000000   1585329   1587810   1590017   1591419   1591716  
  9130.000000   1590988   1589643   1588271   1587429   1587436  
  9120.000000   1588293   1589650   1590945   1591584   1591157  
  9110.000000   1589546   1586946   1583853   1580911   1578779  
  9100.000000   1577886   1578397   1580144   1582693   1585439  
  9090.000000   1587772   1589267   1589723   1589195   1587877  
  9080.000000   1586047   1583920   1581621   1579174   1576606  
  9070.000000   1574049   1571782   1570204   1569686   1570491  
  9060.000000   1572617   1575767   1579346   1582643   1585020  
  9050.000000   1586042   1585567   1583737   1580966   1577776  
  9040.000000   1574696   1572160   1570480   1569777   1569947  
  9030.000000   1570706   1571640   1572328   1572417   1571770  
  9020.000000   1570515   1569006   1567688   1566909   1566798  
  9010.000000   1567182   1567688   1567863   1567412   1566325  
  9000.000000   1564915   1563688   1563115   1563460   1564652  
  8990.000000   1566339   1568034   1569315   1570009   1570194  
  8980.000000   1570129   1570069   1570141   1570261   1570208  
  8970.000000   1569752   1568831   1567599   1566388   1565574  
  8960.000000   1565411   1565937   1566948   1568126   1569177  
  8950.000000   1569955   1570479   1570864   1571207   1571497  
  8940.000000   1571597   1571329   1570613   1569550   1568445  
  8930.000000   1567687   1567595   1568254   1569439   1570700  
  8920.000000   1571514   1571523   1570659   1569209   1567686  
  8910.000000   1566651   1566492   1567308   1568897   1570825  
  8900.000000   1572586   1573735   1574014   1573353   1571876  
  8890.000000   1569846   1567640   1565660   1564271   1563707  
  8880.000000   1564040   1565135   1566689   1568319   1569687  
  8870.000000   1570634   1571202   1571647   1572283   1573382  
  8860.000000   1575031   1577121   1579394   1581536   1583298  
  8850.000000   1584529   1585190   1585280   1584797   1583700  
  8840.000000   1581966   1579648   1576945   1574200   1571829  
  8830.000000   1570220   1569591   1569962   1571113   1572743  
  8820.000000   1574538   1576315   1578009   1579650   1581288  
  8810.000000   1582884   1584323   1585390   1585906   1585748  
  8800.000000   1584943   1583628   1582023   1580382   1578943  
  8790.000000   1577935   1577540   1577915   1579125   1581117  
  8780.000000   1583657   1586342   1588663   1590136   1590456  
  8770.000000   1589589   1587810   1585613   1583581   1582205  
  8760.000000   1581774   1582301   1583581   1585270   1587002  
  8750.000000   1588474   1589482   1589939   1589855   1589327  
  8740.000000   1588529   1587689   1587071   1586890   1587287  
  8730.000000   1588248   1589629   1591187   1592666   1593887  
  8720.000000   1594808   1595524   1596218   1597052   1598114  
  8710.000000   1599351   1600617   1601725   1602543   1603053  
  8700.000000   1603366   1603691   1604263   1605275   1606816  
  8690.000000   1608852   1611236   1613742   1616121   1618143  
  8680.000000   1619646   1620562   1620934   1620914   1620733  
  8670.000000   1620653   1620896   1621590   1622725   1624182  
  8660.000000   1625757   1627256   1628529   1629527   1630290  
  8650.000000   1630907   1631476   1632044   1632594   1633045  
  8640.000000   1633297   1633278   1632980   1632499   1632008  
  8630.000000   1631742   1631924   1632715   1634162   1636149  
  8620.000000   1638419   1640593   1642292   1643199   1643194  
  8610.000000   1642361   1641016   1639604   1638610   1638420  
  8600.000000   1639234   1641037   1643624   1646687   1649890  
  8590.000000   1652982   1655809   1658333   1660565   1662541  
  8580.000000   1664279   1665771   1667000   1667932   1668574  
  8570.000000   1668934   1669052   1668963   1668699   1668296  
  8560.000000   1667773   1667189   1666613   1666169   1665980  
  8550.000000   1666186   1666884   1668129   1669872   1671974  
  8540.000000   1674205   1676277   1677909   1678881   1679128  
  8530.000000   1678727   1677914   1676984   1676240   1675886  
  8520.000000   1675982   1676458   1677157   1677943   1678732  
  8510.000000   1679559   1680511   1681701   1683165   1684828  
  8500.000000   1686502   1687925   1688872   1689177   1688829  
  8490.000000   1687911   1686621   1685169   1683759   1682563  
  8480.000000   1681729   1681393   1681643   1682554   1684118  
  8470.000000   1686273   1688849   1691629   1694383   1696902  
  8460.000000   1699031   1700648   1701685   1702085   1701842  
  8450.000000   1700986   1699664   1698116   1696679   1695701  
  8440.000000   1695437   1695982   1697211   1698842   1700494  
  8430.000000   1701854   1702749   1703218   1703454   1703727  
  8420.000000   1704263   1705153   1706335   1707619   1708791  
  8410.000000   1709663   1710153   1710264   1710073   1709670  
  8400.000000   1709117   1708465   1707759   1707083   1706553  
  8390.000000   1706314   1706491   1707140   1708205   1709513  
  8380.000000   1710811   1711830   1712369   1712331   1711766  
  8370.000000   1710838   1709809   1708947   1708475   1708522  
  8360.000000   1709102   1710129   1711436   1712840   1714176  
  8350.000000   1715355   1716355   1717220   1718019   1718793  
  8340.000000   1719529   1720136   1720491   1720467   1719998  
  8330.000000   1719107   1717923   1716657   1715548   1714810  
  8320.000000   1714574   1714872   1715619   1716645   1717713  
  8310.000000   1718595   1719108   1719181   1718861   1718322  
  8300.000000   1717822   1717632   1717943   1718791   1720022  
  8290.000000   1721342   1722394   1722886   1722672   1721824  
  8280.000000   1720584   1719294   1718249   1717606   1717338  
  8270.000000   1717266   1717145   1716752   1715970   1714826  
  8260.000000   1713445   1712028   1710744   1709732   1709062  
  8250.000000   1708772   1708868   1709315   1710022   1710816  
  8240.000000   1711460   1711687   1711277   1710132   1708327  
  8230.000000   1706122   1703900   1702062   1700903   1700540  
  8220.000000   1700876   1701658   1702549   1703238   1703497  
  8210.000000   1703238   1702482   1701345   1699968   1698491  
  8200.000000   1697023   1695635   1694371   1693237   1692212  
  8190.000000   1691255   1690308   1689323   1688257   1687114  
  8180.000000   1685911   1684709   1683569   1682552   1681700  
  8170.000000   1681019   1680474   1679987   1679443   1678708  
  8160.000000   1677666   1676244   1674452   1672388   1670231  
  8150.000000   1668192   1666467   1665165   1664270   1663648  
  8140.000000   1663083   1662365   1661360   1660075   1658649  
  8130.000000   1657315   1656313   1655806   1655818   1656210  
  8120.000000   1656725   1657042   1656890   1656109   1654706  
  8110.000000   1652847   1650806   1648891   1647357   1646350  
  8100.000000   1645879   1645826   1645995   1646171   1646176  
  8090.000000   1645916   1645379   1644625   1643735   1642789  
  8080.000000   1641838   1640906   1639999   1639114   1638258  
  8070.000000   1637434   1636645   1635879   1635108   1634296  
  8060.000000   1633405   1632427   1631374   1630287   1629223  
  8050.000000   1628230   1627350   1626598   1625979   1625480  
  8040.000000   1625079   1624735   1624394   1623988   1623457  
  8030.000000   1622769   1621947   1621074   1620279   1619689  
  8020.000000   1619385   1619358   1619501   1619629   1619547  
  8010.000000   1619108   1618268   1617097   1615745   1614396  
  8000.000000   1613199   1612235   1611508   1610970   1610552  
  7990.000000   1610196   1609862   1609521   1609134   1608644  
  7980.000000   1607983   1607097   1605975   1604667   1603295  
  7970.000000   1602000   1600922   1600136   1599643   1599362  
  7960.000000   1599168   1598936   1598583   1598098   1597541  
  7950.000000   1597024   1596671   1596578   1596776   1597228  
  7940.000000   1597828   1598435   1598922   1599195   1599236  
  7930.000000   1599076   1598790   1598437   1598040   1597559  
  7920.000000   1596921   1596054   1594953   1593705   1592494  
  7910.000000   1591558   1591096   1591214   1591853   1592825  
  7900.000000   1593855   1594692   1595183   1595322   1595233  
  7890.000000   1595094   1595064   1595198   1595437   1595627  
  7880.000000   1595597   1595222   1594482   1593463   1592329  
  7870.000000   1591270   1590429   1589897   1589673   1589711  
  7860.000000   1589928   1590237   1590560   1590834   1591011  
  7850.000000   1591054   1590937   1590645   1590177   1589548  
  7840.000000   1588789   1587954   1587124   1586400   1585886  
  7830.000000   1585673   1585787   1586179   1586700   1587141  
  7820.000000   1587271   1586917   1586019   1584661   1583051  
  7810.000000   1581456   1580116   1579162   1578584   1578239  
  7800.000000   1577909   1577390   1576556   1575408   1574064  
  7790.000000   1572720   1571578   1570789   1570410   1570396  
  7780.000000   1570622   1570916   1571112   1571074   1570734  
  7770.000000   1570087   1569193   1568152   1567081   1566083  
  7760.000000   1565224   1564523   1563954   1563468   1563012  
  7750.000000   1562556   1562095   1561656   1561264   1560938  
  7740.000000   1560660   1560389   1560062   1559626   1559054  
  7730.000000   1558362   1557597   1556834   1556141   1555567  
  7720.000000   1555121   1554780   1554488   1554177   1553781  
  7710.000000   1553251   1552563   1551716   1550742   1549686  
  7700.000000   1548608   1547560   1546586   1545708   1544930  
  7690.000000   1544240   1543625   1543076   1542602   1542221  
  7680.000000   1541959   1541831   1541840   1541957   1542140  
  7670.000000   1542328   1542470   1542523   1542474   1542327  
  7660.000000   1542109   1541851   1541592   1541363   1541189  
  7650.000000   1541087   1541062   1541109   1541207   1541320  
  7640.000000   1541400   1541389   1541238   1540910   1540402  
  7630.000000   1539744   1539000   1538255   1537595   1537093  
  7620.000000   1536793   1536705   1536809   1537064   1537414  
  7610.000000   1537802   1538172   1538473   1538669   1538739  
  7600.000000   1538689   1538549   1538379   1538241   1538202  
  7590.000000   1538292   1538507   1538794   1539078   1539279  
  7580.000000   1539349   1539287   1539141   1538995   1538942  
  7570.000000   1539050   1539349   1539819   1540406   1541043  
  7560.000000   1541672   1542259   1542801   1543304   1543792  
  7550.000000   1544266   1544721   1545122   1545435   1545616  
  7540.000000   1545652   1545549   1545357   1545156   1545058  
  7530.000000   1545174   1545602   1546389   1547528   1548951  
  7520.000000   1550548   1552183   1553737   1555120   1556299  
  7510.000000   1557285   1558136   1558924   1559731   1560623  
  7500.000000   1561654   1562841   1564178   1565621   1567109  
  7490.000000   1568564   1569921   1571132   1572191   1573126  
  7480.000000   1573999   1574873   1575810   1576842   1577988  
  7470.000000   1579252   1580643   1582168   1583846   1585675  
  7460.000000   1587639   1589684   1591741   1593733   1595614  
  7450.000000   1597372   1599045   1600691   1602383   1604169  
  7440.000000   1606076   1608096   1610209   1612390   1614622  
  7430.000000   1616882   1619143   1621357   1623466   1625410  
  7420.000000   1627150   1628680   1630038   1631287   1632499  
  7410.000000   1633736   1635037   1636428   1637930   1639577  
  7400.000000   1641403   1643440   1645681   1648067   1650481  
  7390.000000   1652774   1654816   1656524   1657912   1659065  
  7380.000000   1660135   1661271   1662583   1664108   1665823  
  7370.000000   1667671   1669595   1671568   1673589   1675681  
  7360.000000   1677854   1680094   1682356   1684574   1686686  
  7350.000000   1688646   1690440   1692082   1693602   1695040  
  7340.000000   1696431   1697814   1699230   1700727   1702339  
  7330.000000   1704088   1705953   1707872   1709742   1711451  
  7320.000000   1712897   1714033   1714863   1715462   1715949  
  7310.000000   1716474   1717170   1718142   1719432   1721021  
  7300.000000   1722825   1724718   1726544   1728161   1729454  
  7290.000000   1730374   1730936   1731221   1731353   1731465  
  7280.000000   1731677   1732062   1732648   1733412   1734290  
  7270.000000   1735200   1736054   1736786   1737366   1737808  
  7260.000000   1738171   1738548   1739050   1739763   1740744  
  7250.000000   1741975   1743394   1744879   1746314   1747594  
  7240.000000   1748685   1749605   1750444   1751310   1752328  
  7230.000000   1753579   1755122   1756955   1759062   1761384  
  7220.000000   1763861   1766407   1768956   1771427   1773782  
  7210.000000   1775991   1778087   1780117   1782173   1784330  
  7200.000000   1786672   1789244   1792083   1795195   1798588  
  7190.000000   1802242   1806131   1810187   1814325   1818421  
  7180.000000   1822369   1826072   1829511   1832710   1835774  
  7170.000000   1838813   1841964   1845305   1848891   1852701  
  7160.000000   1856704   1860839   1865079   1869410   1873864  
  7150.000000   1878482   1883325   1888425   1893805   1899430  
  7140.000000   1905252   1911174   1917121   1923002   1928787  
  7130.000000   1934451   1940028   1945541   1951049   1956579  
  7120.000000   1962183   1967881   1973723   1979738   1985968  
  7110.000000   1992422   1999087   2005902   2012793   2019667  
  7100.000000   2026478   2033211   2039927   2046706   2053642  
  7090.000000   2060776   2068103   2075544   2083005   2090386  
  7080.000000   2097643   2104778   2111848   2118914   2126035  
  7070.000000   2133221   2140455   2147698   2154922   2162126  
  7060.000000   2169337   2176598   2183944   2191388   2198913  
  7050.000000   2206483   2214055   2221595   2229081   2236501  
  7040.000000   2243841   2251084   2258201   2265177   2272001  
  7030.000000   2278689   2285263   2291760   2298194   2304582  
  7020.000000   2310911   2317186   2323396   2329558   2335669  
  7010.000000   2341733   2347714   2353574   2359251   2364715  
  7000.000000   2369950   2374994   2379897   2384731   2389535  
  6990.000000   2394338   2399121   2403867   2408536   2413117  
  6980.000000   2417588   2421944   2426152   2430191   2434019  
  6970.000000   2437628   2441022   2444256   2447388   2450495  
  6960.000000   2453613   2456759   2459894   2462979   2465954  
  6950.000000   2468793   2471475   2474014   2476416   2478705  
  6940.000000   2480884   2482975   2484987   2486954   2488891  
  6930.000000   2490820   2492728   2494601   2496398   2498092  
  6920.000000   2499659   2501104   2502438   2503689   2504871  
  6910.000000   2506000   2507073   2508098   2509075   2510024  
  6900.000000   2510953   2511877   2512792   2513689   2514552  
  6890.000000   2515369   2516131   2516837   2517489   2518093  
  6880.000000   2518656   2519197   2519747   2520358   2521080  
  6870.000000   2521960   2523002   2524177   2525410   2526618  
  6860.000000   2527726   2528700   2529544   2530293   2530981  
  6850.000000   2531615   2532172   2532610   2532896   2533035  
  6840.000000   2533079   2533123   2533256   2533541   2533974  
  6830.000000   2534506   2535048   2535530   2535913   2536208  
  6820.000000   2536449   2536676   2536899   2537103   2537257  
  6810.000000   2537338   2537352   2537332   2537320   2537340  
  6800.000000   2537369   2537352   2537213   2536906   2536429  
  6790.000000   2535845   2535245   2534723   2534322   2534031  
  6780.000000   2533779   2533487   2533090   2532582   2531998  
  6770.000000   2531412   2530880   2530435   2530058   2529704  
  6760.000000   2529312   2528839   2528256   2527560   2526754  
  6750.000000   2525848   2524853   2523795   2522709   2521649  
  6740.000000   2520663   2519784   2519006   2518290   2517572  
  6730.000000   2516792   2515910   2514930   2513876   2512792  
  6720.000000   2511702   2510618   2509521   2508396   2507235  
  6710.000000   2506056   2504885   2503755   2502672   2501621  
  6700.000000   2500552   2499419   2498179   2496825   2495371  
  6690.000000   2493856   2492316   2490785   2489280   2487813  
  6680.000000   2486385   2484999   2483643   2482295   2480911  
  6670.000000   2479438   2477829   2476066   2474165   2472185  
  6660.000000   2470200   2468284   2466474   2464779   2463163  
  6650.000000   2461588   2460010   2458413   2456786   2455131  
  6640.000000   2453439   2451697   2449884   2447989   2446020  
  6630.000000   2444001   2441962   2439929   2437904   2435875  
  6620.000000   2433821   2431735   2429631   2427549   2425533  
  6610.000000   2423616   2421794   2420031   2418267   2416443  
  6600.000000   2414527   2412522   2410459   2408374   2406294  
  6590.000000   2404223   2402153   2400071   2397988   2395931  
  6580.000000   2393942   2392051   2390267   2388563   2386895  
  6570.000000   2385222   2383530   2381839   2380202   2378669  
  6560.000000   2377272   2375997   2374792   2373577   2372286  
  6550.000000   2370875   2369349   2367740   2366105   2364492  
  6540.000000   2362940   2361464   2360072   2358758   2357514  
  6530.000000   2356324   2355168   2354018   2352851   2351655  
  6520.000000   2350436   2349221   2348043   2346929   2345888  
  6510.000000   2344900   2343930   2342933   2341882   2340765  
  6500.000000   2339597   2338405   2337220   2336063   2334947  
  6490.000000   2333875   2332846   2331860   2330914   2330003  
  6480.000000   2329116   2328239   2327361   2326476   2325586  
  6470.000000   2324693   2323793   2322862   2321865   2320765  
  6460.000000   2319540   2318206   2316820   2315470   2314252  
  6450.000000   2313235   2312440   2311834   2311338   2310859  
  6440.000000   2310312   2309642   2308827   2307874   2306805  
  6430.000000   2305648   2304437   2303206   2301998   2300853  
  6420.000000   2299808   2298876   2298047   2297291   2296571  
  6410.000000   2295859   2295144   2294440   2293766   2293139  
  6400.000000   2292560   2292016   2291489   2290967   2290454  
  6390.000000   2289963   2289504   2289066   2288614   2288088  
  6380.000000   2287432   2286613   2285638   2284559   2283451  
  6370.000000   2282383   2281395   2280488   2279633   2278797  
  6360.000000   2277958   2277125   2276322   2275574   2274882  
  6350.000000   2274221   2273541   2272798   2271967   2271062  
  6340.000000   2270124   2269209   2268351   2267560   2266804  
  6330.000000   2266042   2265227   2264336   2263366   2262339  
  6320.000000   2261274   2260193   2259095   2257978   2256831  
  6310.000000   2255652   2254430   2253162   2251829   2250414  
  6300.000000   2248896   2247279   2245578   2243841   2242107  
  6290.000000   2240414   2238757   2237115   2235437   2233688  
  6280.000000   2231842   2229916   2227937   2225945   2223951  
  6270.000000   2221951   2219908   2217792   2215582   2213291  
  6260.000000   2210952   2208610   2206294   2204011   2201738  
  6250.000000   2199448   2197115   2194741   2192345   2189959  
  6240.000000   2187603   2185279   2182963   2180621   2178224  
  6230.000000   2175762   2173246   2170700   2168146   2165595  
  6220.000000   2163038   2160463   2157858   2155231   2152608  
  6210.000000   2150030   2147537   2145160   2142906   2140763  
  6200.000000   2138705   2136695   2134701   2132688   2130629  
  6190.000000   2128503   2126304   2124044   2121758   2119489  
  6180.000000   2117283   2115163   2113128   2111143   2109160  
  6170.000000   2107133   2105038   2102888   2100721   2098586  
  6160.000000   2096524   2094547   2092644   2090783   2088931  
  6150.000000   2087068   2085193   2083315   2081447   2079593  
  6140.000000   2077747   2075897   2074039   2072183   2070359  
  6130.000000   2068599   2066935   2065375   2063907   2062493  
  6120.000000   2061097   2059679   2058228   2056743   2055245  
  6110.000000   2053755   2052301   2050899   2049573   2048332  
  6100.000000   2047194   2046164   2045244   2044418   2043667  
  6090.000000   2042958   2042269   2041582   2040896   2040216  
  6080.000000   2039558   2038928   2038338   2037782   2037267  
  6070.000000   2036789   2036360   2035985   2035680   2035441  
  6060.000000   2035274   2035163   2035104   2035082   2035106  
  6050.000000   2035177   2035321   2035554   2035909   2036400  
  6040.000000   2037043   2037829   2038748   2039760   2040833  
  6030.000000   2041918   2042991   2044033   2045054   2046073  
  6020.000000   2047127   2048240   2049439   2050725   2052094  
  6010.000000   2053524   2054995   2056480   2057961   2059415  
  6000.000000   2060829   2062188   2063489   2064734   2065940  
  5990.000000   2067124   2068315   2069531   2070792   2072110  
  5980.000000   2073497   2074960   2076511   2078154   2079890  
  5970.000000   2081702   2083566   2085449   2087324   2089170  
  5960.000000   2090990   2092792   2094600   2096422   2098268  
  5950.000000   2100124   2101978   2103815   2105636   2107451  
  5940.000000   2109287   2111173   2113134   2115185   2117329  
  5930.000000   2119562   2121872   2124241   2126651   2129069  
  5920.000000   2131466   2133804   2136059   2138214   2140279  
  5910.000000   2142272   2144229   2146175   2148132   2150103  
  5900.000000   2152085   2154073   2156065   2158069   2160100  
  5890.000000   2162171   2164290   2166455   2168655   2170877  
  5880.000000   2173108   2175334   2177542   2179716   2181834  
  5870.000000   2183875   2185826   2187685   2189476   2191230  
  5860.000000   2192991   2194790   2196644   2198549   2200493  
  5850.000000   2202462   2204459   2206498   2208613   2210833  
  5840.000000   2213182   2215664   2218269   2220974   2223755  
  5830.000000   2226589   2229457   2232337   2235200   2238012  
  5820.000000   2240732   2243325   2245770   2248064   2250213  
  5810.000000   2252236   2254139   2255939   2257624   2259210  
  5800.000000   2260691   2262099   2263439   2264740   2265981  
  5790.000000   2267154   2268203   2269092   2269760   2270182  
  5780.000000   2270315   2270150   2269661   2268845   2267699  
  5770.000000   2266253   2264553   2262683   2260726   2258780  
  5760.000000   2256910   2255173   2253592   2252186   2250964  
  5750.000000   2249938   2249112   2248480   2248015   2247668  
  5740.000000   2247384   2247104   2246803   2246466   2246122  
  5730.000000   2245795   2245527   2245328   2245212   2245167  
  5720.000000   2245193   2245283   2245447   2245686   2246003  
  5710.000000   2246386   2246822   2247293   2247793   2248320  
  5700.000000   2248885   2249491   2250137   2250803   2251467  
  5690.000000   2252110   2252728   2253344   2253987   2254697  
  5680.000000   2255489   2256357   2257255   2258124   2258886  
  5670.000000   2259486   2259876   2260045   2259992   2259742  
  5660.000000   2259323   2258780   2258153   2257496   2256843  
  5650.000000   2256230   2255661   2255132   2254616   2254096  
  5640.000000   2253549   2252974   2252371   2251747   2251102  
  5630.000000   2250432   2249734   2249014   2248294   2247606  
  5620.000000   2246989   2246469   2246049   2245703   2245386  
  5610.000000   2245051   2244666   2244226   2243749   2243270  
  5600.000000   2242816   2242400   2242009   2241616   2241186  
  5590.000000   2240697   2240132   2239495   2238789   2238023  
  5580.000000   2237199   2236321   2235394   2234431   2233446  
  5570.000000   2232452   2231449   2230431   2229380   2228287  
  5560.000000   2227148   2225985   2224825   2223703   2222641  
  5550.000000   2221643   2220693   2219765   2218833   2217879  
  5540.000000   2216902   2215911   2214918   2213933   2212961  
  5530.000000   2212005   2211066   2210150   2209259   2208396  
  5520.000000   2207550   2206708   2205846   2204950   2204014  
  5510.000000   2203046   2202061   2201072   2200080   2199075  
  5500.000000   2198035   2196946   2195800   2194612   2193403  
  5490.000000   2192199   2191008   2189824   2188618   2187364  
  5480.000000   2186036   2184633   2183165   2181657   2180125  
  5470.000000   2178584   2177027   2175447   2173832   2172182  
  5460.000000   2170496   2168780   2167027   2165228   2163364  
  5450.000000   2161427   2159417   2157353   2155266   2153192  
  5440.000000   2151156   2149172   2147248   2145382   2143583  
  5430.000000   2141853   2140199   2138602   2137039   2135467  
  5420.000000   2133862   2132211   2130557   2128958   2127505  
  5410.000000   2126256   2125245   2124433   2123774   2123189  
  5400.000000   2122647   2122132   2121685   2121343   2121162  
  5390.000000   2121152   2121323   2121645   2122119   2122733  
  5380.000000   2123520   2124484   2125651   2126986   2128473  
  5370.000000   2130051   2131713   2133427   2135240   2137161  
  5360.000000   2139258   2141528   2144022   2146721   2149681  
  5350.000000   2152900   2156465   2160387   2164751   2169537  
  5340.000000   2174794   2180469   2186609   2193171   2200218  
  5330.000000   2207705   2215686   2224091   2232956   2242210  
  5320.000000   2251931   2262099   2272852   2284198   2296279  
  5310.000000   2309063   2322636   2336912   2351947   2367661  
  5300.000000   2384139   2401345   2419404   2438304   2458164  
  5290.000000   2478942   2500691   2523295   2546718   2570793  
  5280.000000   2595471   2620643   2646347   2672583   2699457  
  5270.000000   2726976   2755143   2783819   2812817   2841900  
  5260.000000   2870866   2899601   2928071   2956340   2984440  
  5250.000000   3012405   3040121   3067470   3094199   3120182  
  5240.000000   3145240   3169414   3192677   3215188   3236947  
  5230.000000   3258075   3278485   3298203   3317067   3335085  
  5220.000000   3352126   3368277   3383491   3397929   3411586  
  5210.000000   3424615   3436956   3448676   3459627   3469821  
  5200.000000   3479111   3487563   3495122   3501932   3507985  
  5190.000000   3513416   3518179   3522350   3525841   3528715  
  5180.000000   3530906   3532507   3533482   3533922   3533779  
  5170.000000   3533116   3531880   3530144   3527892   3525231  
  5160.000000   3522167   3518792   3515079   3511069   3506704  
  5150.000000   3502016   3496972   3491635   3486009   3480165  
  5140.000000   3474100   3467863   3461433   3454846   3448089  
  5130.000000   3441203   3434183   3427062   3419827   3412495  
  5120.000000   3405054   3397534   3389949   3382344   3374740  
  5110.000000   3367160   3359591   3352019   3344409   3336748  
  5100.000000   3329027   3321269   3313498   3305749   3298037  
  5090.000000   3290371   3282737   3275126   3267526   3259937  
  5080.000000   3252363   3244820   3237314   3229852   3222430  
  5070.000000   3215047   3207692   3200362   3193049   3185747  
  5060.000000   3178446   3171132   3163793   3156422   3149015  
  5050.000000   3141578   3134121   3126656   3119194   3111743  
  5040.000000   3104313   3096911   3089551   3082244   3075007  
  5030.000000   3067847   3060772   3053776   3046861   3040018  
  5020.000000   3033259   3026587   3020030   3013596   3007314  
  5010.000000   3001182   2995220   2989414   2983780   2978301  
  5000.000000   2973000   2967864   2962923   2958165   2953625  
  4990.000000   2949293   2945213   2941382   2937847   2934602  
  4980.000000   2931688   2929077   2926795   2924801   2923117  
  4970.000000   2921706   2920604   2919789   2919309   2919145  
  4960.000000   2919348   2919891   2920817   2922092   2923751  
  4950.000000   2925752   2928121   2930809   2933833   2937147  
  4940.000000   2940777   2944690   2948926   2953461   2958329  
  4930.000000   2963494   2968973   2974716   2980731   2986973  
  4920.000000   2993460   3000161   3007096   3014237   3021599  
  4910.000000   3029151   3036905   3044840   3052968   3061269  
  4900.000000   3069744   3078359   3087088   3095885   3104717  
  4890.000000   3113550   3122366   3131156   3139916   3148647  
  4880.000000   3157336   3165977   3174542   3183017   3191363  
  4870.000000   3199563   3207574   3215382   3222950   3230282  
  4860.000000   3237365   3244231   3250888   3257375   3263697  
  4850.000000   3269879   3275907   3281799   3287538   3293154  
  4840.000000   3298645   3304046   3309355   3314590   3319726  
  4830.000000   3324762   3329658   3334414   3338999   3343425  
  4820.000000   3347674   3351761   3355673   3359425   3363002  
  4810.000000   3366425   3369683   3372796   3375756   3378576  
  4800.000000   3381244   3383780   3386177   3388466   3390654  
  4790.000000   3392774   3394827   3396832   3398775   3400658  
  4780.000000   3402461   3404188   3405823   3407377   3408836  
  4770.000000   3410209   3411474   3412636   3413674   3414597  
  4760.000000   3415391   3416072   3416627   3417066   3417367  
  4750.000000   3417533   3417534   3417373   3417021   3416487  
  4740.000000   3415748   3414815   3413674   3412345   3410823  
  4730.000000   3409138   3407296   3405325   3403224   3401007  
  4720.000000   3398661   3396196   3393604   3390906   3388116  
  4710.000000   3385269   3382389   3379513   3376657   3373841  
  4700.000000   3371071   3368356   3365695   3363090   3360531  
  4690.000000   3358012   3355517   3353033   3350551   3348065  
  4680.000000   3345579   3343093   3340613   3338131   3335642  
  4670.000000   3333126   3330578   3327991   3325379   3322759  
  4660.000000   3320169   3317636   3315199   3312880   3310708  
  4650.000000   3308694   3306859   3305206   3303746   3302466  
  4640.000000   3301356   3300386   3299540   3298791   3298132  
  4630.000000   3297551   3297054   3296627   3296264   3295939  
  4620.000000   3295631   3295308   3294959   3294572   3294153  
  4610.000000   3293702   3293227   3292727   3292200   3291644  
  4600.000000   3291063   3290474   3289898   3289362   3288889  
  4590.000000   3288494   3288178   3287929   3287724   3287539  
  4580.000000   3287341   3287107   3286813   3286445   3285997  
  4570.000000   3285476   3284891   3284262   3283602   3282917  
  4560.000000   3282198   3281432   3280591   3279658   3278621  
  4550.000000   3277485   3276269   3274999   3273703   3272403  
  4540.000000   3271121   3269865   3268657   3267501   3266426  
  4530.000000   3265437   3264565   3263806   3263192   3262721  
  4520.000000   3262437   3262345   3262506   3262920   3263648  
  4510.000000   3264671   3266041   3267730   3269802   3272242  
  4500.000000   3275141   3278496   3282403   3286846   3291902  
  4490.000000   3297534   3303804   3310669   3318188   3326321  
  4480.000000   3335122   3344542   3354618   3365290   3376575  
  4470.000000   3388403   3400770   3413591   3426840   3440417  
  4460.000000   3454276   3468320   3482505   3496747   3511009  
  4450.000000   3525228   3539369   3553393   3567280   3581032  
  4440.000000   3594657   3608192   3621646   3635057   3648391  
  4430.000000   3661650   3674748   3687668   3700307   3712661  
  4420.000000   3724636   3736246   3747394   3758082   3768190  
  4410.000000   3777697   3786462   3794460   3801559   3807754  
  4400.000000   3812956   3817206   3820476   3822868   3824418  
  4390.000000   3825271   3825510   3825285   3824679   3823816  
  4380.000000   3822761   3821613   3820444   3819361   3818473  
  4370.000000   3817907   3817787   3818215   3819277   3821004  
  4360.000000   3823412   3826459   3830107   3834276   3838897  
  4350.000000   3843882   3849156   3854649   3860314   3866133  
  4340.000000   3872104   3878232   3884490   3890793   3896967  
  4330.000000   3902752   3907827   3911874   3914640   3916029  
  4320.000000   3916111   3915159   3913551   3911751   3910139  
  4310.000000   3909034   3908551   3908717   3909396   3910451  
  4300.000000   3911693   3913006   3914278   3915462   3916510  
  4290.000000   3917398   3918104   3918613   3918930   3919077  
  4280.000000   3919097   3919050   3918989   3918984   3919069  
  4270.000000   3919299   3919672   3920195   3920796   3921383  
  4260.000000   3921788   3921832   3921316   3920095   3918090  
  4250.000000   3915331   3911940   3908127   3904125   3900174  
  4240.000000   3896451   3893083   3890104   3887509   3885233  
  4230.000000   3883207   3881343   3879564   3877797   3875981  
  4220.000000   3874079   3872067   3869967   3867808   3865662  
  4210.000000   3863583   3861643   3859872   3858300   3856914  
  4200.000000   3855711   3854662   3853761   3852978   3852312  
  4190.000000   3851725   3851218   3850747   3850325   3849924  
  4180.000000   3849589   3849321   3849200   3849252   3849582  
  4170.000000   3850234   3851332   3852927   3855137   3857981  
  4160.000000   3861528   3865727   3870583   3875993   3881947  
  4150.000000   3888350   3895227   3902522   3910294   3918507  
  4140.000000   3927225   3936406   3946104   3956274   3966965  
  4130.000000   3978126   3989795   4001907   4014479   4027446  
  4120.000000   4040822   4054560   4068695   4083203   4098127  
  4110.000000   4113441   4129170   4145267   4161723   4178472  
  4100.000000   4195484   4212692   4230067   4247560   4265159  
  4090.000000   4282844   4300622   4318495   4336475   4354573  
  4080.000000   4372788   4391128   4409568   4428099   4446662  
  4070.000000   4465228   4483708   4502066   4520216   4538151  
  4060.000000   4555806   4573205   4590282   4607059   4623443  
  4050.000000   4639444   4654955   4670004   4684490   4698456  
  4040.000000   4711788   4724511   4736483   4747731   4758127  
  4030.000000   4767737   4776467   4784393   4791408   4797533  
  4020.000000   4802598   4806617   4809510   4811360   4812119  
  4010.000000   4811983   4811067   4809461   4806972   4803728  
  4000.000000   4800103  
##END= 
