##TITLE= Sample 004 By ssteindl date Montag, November 19 2018
##JCAMP-DX= 4.24
##DATA TYPE= INFRARED SPECTRUM
##ORIGIN= Exported PE Spectrum Data File
##OWNER= Sandra Steindl
##DATE= 18/11/19
##TIME= 15:42:47.00
##SPECTROMETER/DATA SYSTEM= PERKIN-ELMER Frontier FT-IR/NIR IR
##INSTRUMENT PARAMETERS=
  APODIZATION=stark
  DETECTOR=INGAAS
##RESOLUTION= 16.000000
##DELTAX= -2.000000
##XUNITS= 1/CM
##YUNITS= A
##XFACTOR= 1.00
##YFACTOR= 0.00000000023841857910
##FIRSTX= 10000.00
##LASTX= 4000.00
##NPOINTS= 3001
##FIRSTY= -0.101727
##MAXY= 0.309521
##MINY= -0.124623
##XYDATA= (X++(Y..Y))
 10000.000000  -0426672096  -0428610695  -0429863527  -0429792704  -0428823589  
  9990.000000  -0427901428  -0427493522  -0427535923  -0427954928  -0428791051  
  9980.000000  -0429943662  -0431227669  -0432495103  -0433678494  -0434670611  
  9970.000000  -0435403721  -0435913653  -0436351223  -0436925720  -0437814708  
  9960.000000  -0439073908  -0440530406  -0441843687  -0442578120  -0442409262  
  9950.000000  -0441269149  -0439397834  -0437311775  -0435578065  -0434690124  
  9940.000000  -0434860018  -0436070304  -0438078453  -0440592803  -0443315569  
  9930.000000  -0446004900  -0448424669  -0450280970  -0451246066  -0450963647  
  9920.000000  -0449261001  -0446184521  -0442132927  -0437713252  -0433597644  
  9910.000000  -0430310265  -0428065109  -0426820190  -0426362083  -0426571392  
  9900.000000  -0427512903  -0429461424  -0432695490  -0437242488  -0442685630  
  9890.000000  -0448120004  -0452409784  -0454505107  -0453912985  -0450850246  
  9880.000000  -0446295896  -0441612539  -0438155408  -0436815695  -0437799628  
  9870.000000  -0440683844  -0444614419  -0448714172  -0452259082  -0454906999  
  9860.000000  -0456563217  -0457380344  -0457557232  -0457339044  -0456952928  
  9850.000000  -0456602570  -0456449888  -0456501394  -0456601102  -0456359182  
  9840.000000  -0455303288  -0453012870  -0449359087  -0444627915  -0439496832  
  9830.000000  -0434870205  -0431549575  -0429999515  -0430160128  -0431555447  
  9820.000000  -0433500666  -0435413664  -0437040294  -0438467040  -0440030272  
  9810.000000  -0442010540  -0444476973  -0447123782  -0449417135  -0450762190  
  9800.000000  -0450808035  -0449591319  -0447581474  -0445536573  -0444261911  
  9790.000000  -0444384948  -0446156140  -0449437681  -0453719485  -0458289426  
  9780.000000  -0462341201  -0465161795  -0466226066  -0465330461  -0462632927  
  9770.000000  -0458652673  -0454195546  -0450149123  -0447311999  -0446113764  
  9760.000000  -0446536257  -0448063508  -0449867041  -0451073831  -0451040253  
  9750.000000  -0449604851  -0447108067  -0444336645  -0442252775  -0441724198  
  9740.000000  -0443252531  -0446806672  -0451861553  -0457508244  -0462767671  
  9730.000000  -0466782905  -0469078629  -0469594729  -0468682388  -0466949965  
  9720.000000  -0465070912  -0463611522  -0462911115  -0463059273  -0463963574  
  9710.000000  -0465435462  -0467284195  -0469359013  -0471506615  -0473568429  
  9700.000000  -0475291250  -0476419887  -0476708398  -0476102700  -0474756240  
  9690.000000  -0473093859  -0471644251  -0470925960  -0471215877  -0472490719  
  9680.000000  -0474408088  -0476426877  -0477994271  -0478654762  -0478185649  
  9670.000000  -0476511257  -0473709882  -0469875726  -0465179021  -0459855792  
  9660.000000  -0454330014  -0449201343  -0445211428  -0443088328  -0443340398  
  9650.000000  -0446118686  -0451086329  -0457536273  -0464500769  -0471063327  
  9640.000000  -0476535718  -0480618404  -0483378806  -0485110353  -0486189825  
  9630.000000  -0486882306  -0487333421  -0487515784  -0487353985  -0486735316  
  9620.000000  -0485592427  -0483901018  -0481666539  -0478960833  -0475867858  
  9610.000000  -0472582674  -0469326911  -0466417837  -0464129586  -0462690984  
  9600.000000  -0462163233  -0462462191  -0463347775  -0464522610  -0465690640  
  9590.000000  -0466630033  -0467217857  -0467406566  -0467229784  -0466732236  
  9580.000000  -0466008487  -0465125823  -0464179425  -0463217210  -0462288613  
  9570.000000  -0461396042  -0460535907  -0459695517  -0458886434  -0458167391  
  9560.000000  -0457646050  -0457464262  -0457749229  -0458555539  -0459834097  
  9550.000000  -0461419035  -0463081152  -0464577962  -0465734096  -0466469826  
  9540.000000  -0466831220  -0466950282  -0467027387  -0467249094  -0467769008  
  9530.000000  -0468639635  -0469829101  -0471198991  -0472556001  -0473678639  
  9520.000000  -0474386403  -0474598021  -0474363433  -0473887718  -0473454520  
  9510.000000  -0473383349  -0473891214  -0475073077  -0476836000  -0478974836  
  9500.000000  -0481205533  -0483266346  -0484956863  -0486159740  -0486832134  
  9490.000000  -0486952138  -0486517956  -0485513614  -0483964009  -0481940538  
  9480.000000  -0479603485  -0477182632  -0474946877  -0473160804  -0472029276  
  9470.000000  -0471691771  -0472185459  -0473476957  -0475422722  -0477806325  
  9460.000000  -0480318420  -0482620492  -0484404993  -0485475952  -0485833293  
  9450.000000  -0485658750  -0485291838  -0485080354  -0485274591  -0485900992  
  9440.000000  -0486766347  -0487519095  -0487819314  -0487476966  -0486552118  
  9430.000000  -0485322234  -0484165199  -0483412272  -0483204733  -0483468933  
  9420.000000  -0483947826  -0484352438  -0484501335  -0484423206  -0484352867  
  9410.000000  -0484617782  -0485489945  -0487039507  -0489100547  -0491299883  
  9400.000000  -0493212540  -0494479314  -0494950011  -0494696167  -0493974856  
  9390.000000  -0493138123  -0492497956  -0492300471  -0492647807  -0493575158  
  9380.000000  -0495024506  -0496907508  -0499074733  -0501317285  -0503359270  
  9370.000000  -0504865156  -0505515464  -0505062649  -0503435523  -0500748883  
  9360.000000  -0497306860  -0493530155  -0489875699  -0486782752  -0484587691  
  9350.000000  -0483539894  -0483719522  -0485088993  -0487423681  -0490383562  
  9340.000000  -0493509938  -0496313592  -0498357662  -0499317756  -0499091139  
  9330.000000  -0497758792  -0495621926  -0493044090  -0490418328  -0488030347  
  9320.000000  -0486072624  -0484634013  -0483749583  -0483455176  -0483766259  
  9310.000000  -0484704537  -0486193789  -0488094603  -0490143697  -0492050103  
  9300.000000  -0493540258  -0494453899  -0494797966  -0494705902  -0494397662  
  9290.000000  -0494034508  -0493688149  -0493278057  -0492662427  -0491685655  
  9280.000000  -0490300943  -0488594182  -0486787306  -0485151918  -0483913549  
  9270.000000  -0483191708  -0482973835  -0483166108  -0483642500  -0484329403  
  9260.000000  -0485217584  -0486363389  -0487806865  -0489538013  -0491454391  
  9250.000000  -0493395171  -0495197574  -0496732980  -0497965899  -0498890511  
  9240.000000  -0499541140  -0499896640  -0499894843  -0499413552  -0498338560  
  9230.000000  -0496659046  -0494518703  -0492245797  -0490254237  -0488969971  
  9220.000000  -0488689810  -0489528454  -0491350508  -0493806086  -0496395711  
  9210.000000  -0498601579  -0500016074  -0500405482  -0499773087  -0498332796  
  9200.000000  -0496498032  -0494740175  -0493495261  -0493034607  -0493444690  
  9190.000000  -0494603852  -0496244934  -0498031734  -0499665132  -0500974117  
  9180.000000  -0501933543  -0502646357  -0503254860  -0503883849  -0504594051  
  9170.000000  -0505378883  -0506192687  -0506986102  -0507740501  -0508478687  
  9160.000000  -0509233184  -0510024615  -0510820536  -0511556495  -0512150282  
  9150.000000  -0512542388  -0512706695  -0512647193  -0512376889  -0511896293  
  9140.000000  -0511186090  -0510228223  -0509044828  -0507748708  -0506543693  
  9130.000000  -0505688387  -0505397970  -0505777768  -0506756773  -0508106869  
  9120.000000  -0509495220  -0510612641  -0511271617  -0511465508  -0511336496  
  9110.000000  -0511106282  -0510977147  -0511054186  -0511327498  -0511685595  
  9100.000000  -0512009861  -0512202324  -0512249889  -0512164411  -0511971364  
  9090.000000  -0511650516  -0511148244  -0510397631  -0509382222  -0508199796  
  9080.000000  -0507079809  -0506335572  -0506257880  -0507037047  -0508676288  
  9070.000000  -0511002637  -0513674122  -0516319373  -0518611487  -0520374296  
  9060.000000  -0521565971  -0522268327  -0522609963  -0522705583  -0522612758  
  9050.000000  -0522324964  -0521801865  -0520990273  -0519850976  -0518370822  
  9040.000000  -0516566955  -0514482623  -0512192255  -0509805467  -0507483304  
  9030.000000  -0505410057  -0503759503  -0502638844  -0502040150  -0501848743  
  9020.000000  -0501867560  -0501919556  -0501933510  -0502012650  -0502427196  
  9010.000000  -0503493449  -0505443466  -0508271732  -0511691783  -0515141062  
  9000.000000  -0517945863  -0519520179  -0519606487  -0518348546  -0516269348  
  8990.000000  -0514084373  -0512476345  -0511871142  -0512304597  -0513458970  
  8980.000000  -0514797190  -0515789935  -0516075437  -0515581576  -0514479322  
  8970.000000  -0513111683  -0511819921  -0510859782  -0510329345  -0510190986  
  8960.000000  -0510334326  -0510620241  -0510943523  -0511211391  -0511354139  
  8950.000000  -0511309624  -0511040090  -0510567041  -0509973412  -0509417854  
  8940.000000  -0509074238  -0509085354  -0509496309  -0510240970  -0511167400  
  8930.000000  -0512093124  -0512868501  -0513420269  -0513736459  -0513834001  
  8920.000000  -0513689231  -0513239545  -0512401688  -0511144093  -0509549474  
  8910.000000  -0507829880  -0506294335  -0505230695  -0504791762  -0504900906  
  8900.000000  -0505261801  -0505458804  -0505120192  -0504063995  -0502381869  
  8890.000000  -0500412156  -0498627836  -0497465332  -0497177527  -0497768328  
  8880.000000  -0499022196  -0500610142  -0502209911  -0503594454  -0504667658  
  8870.000000  -0505440226  -0505978686  -0506342890  -0506558211  -0506617298  
  8860.000000  -0506513290  -0506245854  -0505836685  -0505303861  -0504670371  
  8850.000000  -0503948068  -0503156025  -0502339125  -0501565118  -0500926525  
  8840.000000  -0500478642  -0500233441  -0500118126  -0500023785  -0499839757  
  8830.000000  -0499529132  -0499158145  -0498882381  -0498880784  -0499260809  
  8820.000000  -0499986596  -0500857130  -0501564651  -0501801116  -0501387031  
  8810.000000  -0500344089  -0498901890  -0497421098  -0496256087  -0495644747  
  8800.000000  -0495607166  -0495985086  -0496490769  -0496845832  -0496863148  
  8790.000000  -0496503627  -0495863543  -0495100182  -0494353728  -0493672361  
  8780.000000  -0492994255  -0492175768  -0491061240  -0489558912  -0487706835  
  8770.000000  -0485682471  -0483778214  -0482317129  -0481558974  -0481615931  
  8760.000000  -0482398644  -0483632684  -0484916484  -0485839982  -0486101322  
  8750.000000  -0485599350  -0484469915  -0483041049  -0481738410  -0480936253  
  8740.000000  -0480847136  -0481442275  -0482480853  -0483578522  -0484339567  
  8730.000000  -0484467954  -0483850127  -0482584658  -0480928364  -0479225644  
  8720.000000  -0477785932  -0476820206  -0476391224  -0476421245  -0476740922  
  8710.000000  -0477131768  -0477406289  -0477425912  -0477137250  -0476552956  
  8700.000000  -0475736497  -0474773653  -0473752335  -0472759813  -0471887519  
  8690.000000  -0471235021  -0470907096  -0471002272  -0471575138  -0472613768  
  8680.000000  -0473996929  -0475519376  -0476914091  -0477929870  -0478386583  
  8670.000000  -0478226043  -0477516197  -0476425529  -0475154651  -0473881486  
  8660.000000  -0472703142  -0471645868  -0470678451  -0469767135  -0468891463  
  8650.000000  -0468060925  -0467280158  -0466530119  -0465733450  -0464773383  
  8640.000000  -0463526929  -0461922334  -0459996206  -0457897853  -0455874866  
  8630.000000  -0454183371  -0453021830  -0452464247  -0452450127  -0452812314  
  8620.000000  -0453333922  -0453827145  -0454183685  -0454390902  -0454506179  
  8610.000000  -0454610479  -0454767156  -0454984324  -0455217595  -0455377385  
  8600.000000  -0455375486  -0455136080  -0454632392  -0453877196  -0452930276  
  8590.000000  -0451872212  -0450786781  -0449743861  -0448784557  -0447919905  
  8580.000000  -0447131829  -0446392776  -0445681779  -0445004871  -0444391198  
  8570.000000  -0443895321  -0443567218  -0443442680  -0443516125  -0443746935  
  8560.000000  -0444065712  -0444397962  -0444681407  -0444877178  -0444965296  
  8550.000000  -0444936658  -0444778157  -0444475432  -0444013214  -0443394426  
  8540.000000  -0442639801  -0441799470  -0440924948  -0440063147  -0439218741  
  8530.000000  -0438368793  -0437459440  -0436443279  -0435294618  -0434031401  
  8520.000000  -0432705847  -0431383284  -0430104295  -0428875391  -0427659416  
  8510.000000  -0426411481  -0425100386  -0423751347  -0422451744  -0421329374  
  8500.000000  -0420511854  -0420067705  -0419977891  -0420110091  -0420255366  
  8490.000000  -0420172585  -0419679142  -0418687410  -0417259083  -0415573047  
  8480.000000  -0413903329  -0412518409  -0411616834  -0411264993  -0411393381  
  8470.000000  -0411819298  -0412310867  -0412662869  -0412765285  -0412628045  
  8460.000000  -0412356581  -0412103065  -0411989058  -0412058805  -0412254263  
  8450.000000  -0412448209  -0412505826  -0412340800  -0411954807  -0411428431  
  8440.000000  -0410877850  -0410397825  -0410005503  -0409630913  -0409148565  
  8430.000000  -0408433232  -0407434936  -0406191072  -0404831450  -0403516459  
  8420.000000  -0402382830  -0401497516  -0400837182  -0400333548  -0399916644  
  8410.000000  -0399580054  -0399391132  -0399464974  -0399907163  -0400744160  
  8400.000000  -0401892853  -0403145279  -0404234741  -0404893862  -0404969256  
  8390.000000  -0404433346  -0403425181  -0402171790  -0400955817  -0400011605  
  8380.000000  -0399487769  -0399418687  -0399741038  -0400336773  -0401065653  
  8370.000000  -0401825914  -0402559048  -0403277489  -0404018555  -0404836529  
  8360.000000  -0405753140  -0406746865  -0407750329  -0408646936  -0409322726  
  8350.000000  -0409672184  -0409657241  -0409285912  -0408620688  -0407748672  
  8340.000000  -0406767366  -0405773897  -0404855428  -0404104029  -0403611879  
  8330.000000  -0403475553  -0403755998  -0404462529  -0405511075  -0406746773  
  8320.000000  -0407962083  -0408960842  -0409615417  -0409903614  -0409924920  
  8310.000000  -0409838770  -0409814710  -0409946808  -0410239060  -0410598201  
  8300.000000  -0410891232  -0411003437  -0410895888  -0410630133  -0410336265  
  8290.000000  -0410171872  -0410242804  -0410584183  -0411136418  -0411788108  
  8280.000000  -0412409713  -0412899784  -0413213479  -0413351769  -0413355638  
  8270.000000  -0413263592  -0413111088  -0412908128  -0412662784  -0412378409  
  8260.000000  -0412077406  -0411792923  -0411573865  -0411472411  -0411538423  
  8250.000000  -0411817674  -0412340557  -0413121329  -0414140186  -0415340059  
  8240.000000  -0416627439  -0417881935  -0418991946  -0419869012  -0420488390  
  8230.000000  -0420872998  -0421100882  -0421253313  -0421406047  -0421590909  
  8220.000000  -0421813316  -0422056138  -0422310666  -0422592226  -0422938363  
  8210.000000  -0423404774  -0424029193  -0424827014  -0425770443  -0426809578  
  8200.000000  -0427885601  -0428950565  -0429980036  -0430957100  -0431870189  
  8190.000000  -0432685661  -0433360961  -0433849088  -0434130460  -0434232964  
  8180.000000  -0434233957  -0434251808  -0434403892  -0434781728  -0435419809  
  8170.000000  -0436293779  -0437335876  -0438448974  -0439539477  -0440514113  
  8160.000000  -0441299140  -0441827913  -0442060146  -0441989887  -0441672969  
  8150.000000  -0441239195  -0440886873  -0440850857  -0441337178  -0442466066  
  8140.000000  -0444212105  -0446411279  -0448783405  -0451018842  -0452849657  
  8130.000000  -0454122555  -0454823002  -0455054453  -0454992324  -0454814279  
  8120.000000  -0454658514  -0454593918  -0454627806  -0454732144  -0454865377  
  8110.000000  -0455008064  -0455150719  -0455314619  -0455513376  -0455769546  
  8100.000000  -0456083269  -0456446074  -0456831940  -0457197523  -0457495869  
  8090.000000  -0457668040  -0457675901  -0457497457  -0457158627  -0456722994  
  8080.000000  -0456294725  -0455992716  -0455926862  -0456173436  -0456754895  
  8070.000000  -0457642431  -0458759380  -0460007382  -0461281664  -0462491462  
  8060.000000  -0463571242  -0464479735  -0465207840  -0465761818  -0466169936  
  8050.000000  -0466460031  -0466663549  -0466800082  -0466883340  -0466924217  
  8040.000000  -0466938481  -0466961173  -0467037413  -0467228113  -0467573385  
  8030.000000  -0468091712  -0468744730  -0469457614  -0470122344  -0470641191  
  8020.000000  -0470953874  -0471058382  -0471012551  -0470903614  -0470819544  
  8010.000000  -0470808273  -0470867597  -0470948434  -0470984661  -0470928289  
  8000.000000  -0470775020  -0470575119  -0470413699  -0470385795  -0470557132  
  7990.000000  -0470945758  -0471513366  -0472177414  -0472839816  -0473406427  
  7980.000000  -0473819593  -0474056802  -0474140495  -0474119829  -0474060041  
  7970.000000  -0474027557  -0474074686  -0474238002  -0474531018  -0474952323  
  7960.000000  -0475485802  -0476109115  -0476790113  -0477490469  -0478156187  
  7950.000000  -0478723942  -0479122906  -0479293812  -0479208643  -0478887138  
  7940.000000  -0478403701  -0477873972  -0477423270  -0477154600  -0477108306  
  7930.000000  -0477262388  -0477531197  -0477813676  -0478018598  -0478107698  
  7920.000000  -0478091386  -0478020984  -0477949714  -0477905698  -0477875471  
  7910.000000  -0477810880  -0477656936  -0477378683  -0476983069  -0476517904  
  7900.000000  -0476053279  -0475657291  -0475371305  -0475205005  -0475140964  
  7890.000000  -0475149170  -0475201439  -0475270266  -0475331860  -0475350250  
  7880.000000  -0475289346  -0475111380  -0474807957  -0474406326  -0473980759  
  7870.000000  -0473633726  -0473463046  -0473533114  -0473844259  -0474345098  
  7860.000000  -0474948234  -0475572786  -0476170853  -0476732363  -0477274323  
  7850.000000  -0477796932  -0478267438  -0478597446  -0478679747  -0478419140  
  7840.000000  -0477792985  -0476871475  -0475818220  -0474850282  -0474173945  
  7830.000000  -0473935690  -0474172939  -0474826329  -0475750622  -0476773292  
  7820.000000  -0477727125  -0478489587  -0478992063  -0479217959  -0479194753  
  7810.000000  -0478975155  -0478633845  -0478245215  -0477885744  -0477607762  
  7800.000000  -0477445091  -0477396076  -0477437318  -0477529355  -0477631932  
  7790.000000  -0477719548  -0477782056  -0477829879  -0477880977  -0477958249  
  7780.000000  -0478079576  -0478259283  -0478505654  -0478823904  -0479213572  
  7770.000000  -0479666312  -0480165351  -0480682141  -0481185409  -0481639260  
  7760.000000  -0482015784  -0482288368  -0482439580  -0482452884  -0482322626  
  7750.000000  -0482055902  -0481684885  -0481271903  -0480901861  -0480672312  
  7740.000000  -0480659479  -0480903513  -0481384325  -0482032618  -0482745337  
  7730.000000  -0483417517  -0483971241  -0484366277  -0484603320  -0484701319  
  7720.000000  -0484687829  -0484581125  -0484401362  -0484175949  -0483954932  
  7710.000000  -0483809349  -0483813629  -0484024848  -0484450941  -0485048763  
  7700.000000  -0485727441  -0486382238  -0486925430  -0487310631  -0487539381  
  7690.000000  -0487642506  -0487658591  -0487608636  -0487494971  -0487311374  
  7680.000000  -0487069941  -0486817112  -0486633275  -0486610808  -0486812650  
  7670.000000  -0487246887  -0487845182  -0488490033  -0489043622  -0489404517  
  7660.000000  -0489534427  -0489472102  -0489307229  -0489144279  -0489058116  
  7650.000000  -0489073571  -0489162911  -0489269667  -0489337526  -0489332592  
  7640.000000  -0489252989  -0489117566  -0488949862  -0488761637  -0488544766  
  7630.000000  -0488282152  -0487957189  -0487575623  -0487165870  -0486781436  
  7620.000000  -0486481671  -0486320659  -0486329149  -0486510002  -0486835441  
  7610.000000  -0487250740  -0487683526  -0488050437  -0488274212  -0488294828  
  7600.000000  -0488087206  -0487669189  -0487103556  -0486489230  -0485940878  
  7590.000000  -0485564181  -0485427247  -0485543709  -0485864483  -0486294402  
  7580.000000  -0486711522  -0487003971  -0487088551  -0486934123  -0486558982  
  7570.000000  -0486027894  -0485431441  -0484864309  -0484403694  -0484090828  
  7560.000000  -0483927750  -0483878884  -0483884158  -0483876643  -0483795159  
  7550.000000  -0483605894  -0483300551  -0482906930  -0482469125  -0482044396  
  7540.000000  -0481680856  -0481413184  -0481251038  -0481180769  -0481164663  
  7530.000000  -0481150477  -0481079975  -0480903583  -0480590875  -0480137130  
  7520.000000  -0479564561  -0478913532  -0478233526  -0477566515  -0476939060  
  7510.000000  -0476358038  -0475815538  -0475302162  -0474813123  -0474362907  
  7500.000000  -0473973514  -0473676721  -0473487661  -0473406696  -0473404021  
  7490.000000  -0473434423  -0473441136  -0473373025  -0473193263  -0472883314  
  7480.000000  -0472444081  -0471887249  -0471231315  -0470496031  -0469700032  
  7470.000000  -0468865437  -0468011435  -0467163144  -0466337782  -0465557101  
  7460.000000  -0464831333  -0464174548  -0463587277  -0463068821  -0462600496  
  7450.000000  -0462155488  -0461690788  -0461157800  -0460509773  -0459715569  
  7440.000000  -0458773933  -0457712933  -0456587622  -0455460445  -0454387573  
  7430.000000  -0453402543  -0452510929  -0451696607  -0450930063  -0450188847  
  7420.000000  -0449460597  -0448753391  -0448081249  -0447461247  -0446897534  
  7410.000000  -0446381999  -0445892173  -0445397421  -0444865771  -0444268293  
  7400.000000  -0443586073  -0442808435  -0441936817  -0440984201  -0439975184  
  7390.000000  -0438944240  -0437924690  -0436945734  -0436019598  -0435143701  
  7380.000000  -0434299793  -0433465847  -0432625691  -0431775304  -0430921791  
  7370.000000  -0430074623  -0429235314  -0428390185  -0427513430  -0426578076  
  7360.000000  -0425575576  -0424527004  -0423487436  -0422529722  -0421721308  
  7350.000000  -0421096844  -0420641353  -0420289618  -0419946804  -0419519703  
  7340.000000  -0418951333  -0418233799  -0417406886  -0416532927  -0415673614  
  7330.000000  -0414866516  -0414120679  -0413420388  -0412743170  -0412071949  
  7320.000000  -0411404720  -0410749499  -0410115209  -0409502142  -0408896808  
  7310.000000  -0408278983  -0407628651  -0406940170  -0406222321  -0405498637  
  7300.000000  -0404793123  -0404124181  -0403496302  -0402904517  -0402339417  
  7290.000000  -0401794590  -0401266935  -0400752119  -0400234761  -0399685715  
  7280.000000  -0399062891  -0398326076  -0397453549  -0396459161  -0395398218  
  7270.000000  -0394355029  -0393417156  -0392644331  -0392042812  -0391565399  
  7260.000000  -0391120602  -0390612527  -0389965622  -0389161680  -0388235194  
  7250.000000  -0387269850  -0386355961  -0385568256  -0384929418  -0384411721  
  7240.000000  -0383939249  -0383420803  -0382773044  -0381948173  -0380935651  
  7230.000000  -0379766738  -0378488386  -0377159480  -0375819758  -0374500631  
  7220.000000  -0373209694  -0371951060  -0370717707  -0369507786  -0368313780  
  7210.000000  -0367131887  -0365944875  -0364733437  -0363463644  -0362106068  
  7200.000000  -0360634800  -0359045606  -0357357057  -0355613661  -0353873581  
  7190.000000  -0352197923  -0350625970  -0349171156  -0347804702  -0346477496  
  7180.000000  -0345126212  -0343710109  -0342217061  -0340678268  -0339144736  
  7170.000000  -0337674628  -0336293721  -0334991000  -0333703589  -0332351520  
  7160.000000  -0330854889  -0329177534  -0327327704  -0325366216  -0323368785  
  7150.000000  -0321411138  -0319524844  -0317702292  -0315883825  -0313997977  
  7140.000000  -0311973675  -0309781406  -0307427039  -0304960162  -0302437569  
  7130.000000  -0299919350  -0297434148  -0294995424  -0292585851  -0290190816  
  7120.000000  -0287787874  -0285374532  -0282947692  -0280520369  -0278096431  
  7110.000000  -0275684645  -0273278030  -0270870036  -0268440253  -0265968288  
  7100.000000  -0263423953  -0260781676  -0258018464  -0255130154  -0252129324  
  7090.000000  -0249053606  -0245951679  -0242878761  -0239873978  -0236957466  
  7080.000000  -0234117592  -0231326292  -0228542156  -0225735424  -0222890011  
  7070.000000  -0220015926  -0217136456  -0214282722  -0211476606  -0208725734  
  7060.000000  -0206020925  -0203340804  -0200661382  -0197961779  -0195232349  
  7050.000000  -0192472948  -0189693127  -0186906423  -0184128428  -0181372252  
  7040.000000  -0178649319  -0175965412  -0173323933  -0170721483  -0168151251  
  7030.000000  -0165601239  -0163057672  -0160507650  -0157943543  -0155364475  
  7020.000000  -0152782120  -0150214342  -0147689890  -0145230299  -0142852251  
  7010.000000  -0140548098  -0138295475  -0136048466  -0133762414  -0131397694  
  7000.000000  -0128950863  -0126449168  -0123959912  -0121560492  -0119325424  
  6990.000000  -0117291829  -0115457488  -0113773150  -0112173365  -0110588849  
  6980.000000  -0108983251  -0107347391  -0105708171  -0104093444  -0102527676  
  6970.000000  -0101002456  -0099497243  -0097975797  -0096424861  -0094848578  
  6960.000000  -0093285702  -0091780266  -0090374894  -0089082986  -0087893512  
  6950.000000  -0086771357  -0085682313  -0084601617  -0083528410  -0082472262  
  6940.000000  -0081447562  -0080452405  -0079472450  -0078479364  -0077454302  
  6930.000000  -0076392376  -0075316932  -0074261019  -0073260874  -0072328716  
  6920.000000  -0071454709  -0070602396  -0069733622  -0068819907  -0067862710  
  6910.000000  -0066886190  -0065931102  -0065031358  -0064206525  -0063453465  
  6900.000000  -0062758801  -0062105766  -0061489064  -0060910625  -0060378781  
  6890.000000  -0059891194  -0059434234  -0058978088  -0058493200  -0057957892  
  6880.000000  -0057373280  -0056758000  -0056144042  -0055558216  -0055015512  
  6870.000000  -0054511713  -0054032623  -0053561224  -0053090294  -0052620959  
  6860.000000  -0052162042  -0051715980  -0051277581  -0050828526  -0050349844  
  6850.000000  -0049828312  -0049268749  -0048692026  -0048132128  -0047621749  
  6840.000000  -0047186341  -0046835479  -0046567838  -0046372211  -0046234301  
  6830.000000  -0046134683  -0046050554  -0045950952  -0045805800  -0045588034  
  6820.000000  -0045292424  -0044934740  -0044557653  -0044209643  -0043932925  
  6810.000000  -0043740958  -0043618850  -0043526389  -0043421838  -0043279566  
  6800.000000  -0043105750  -0042933300  -0042805447  -0042752754  -0042776890  
  6790.000000  -0042847888  -0042918748  -0042945545  -0042910178  -0042824090  
  6780.000000  -0042723377  -0042646561  -0042616537  -0042628713  -0042654267  
  6770.000000  -0042656653  -0042609033  -0042507904  -0042372313  -0042233196  
  6760.000000  -0042117989  -0042037982  -0041985931  -0041941509  -0041882774  
  6750.000000  -0041794885  -0041673950  -0041523982  -0041351718  -0041163948  
  6740.000000  -0040967401  -0040775023  -0040606253  -0040488338  -0040444777  
  6730.000000  -0040486669  -0040601453  -0040753708  -0040893802  -0040973895  
  6720.000000  -0040964786  -0040863114  -0040691288  -0040482397  -0040268609  
  6710.000000  -0040065892  -0039876648  -0039691496  -0039504914  -0039318481  
  6700.000000  -0039147478  -0039010060  -0038922839  -0038888788  -0038900029  
  6690.000000  -0038938910  -0038990491  -0039046098  -0039110510  -0039194222  
  6680.000000  -0039312871  -0039475454  -0039687576  -0039946188  -0040247876  
  6670.000000  -0040584826  -0040950110  -0041329427  -0041706255  -0042056677  
  6660.000000  -0042361972  -0042608381  -0042800002  -0042951598  -0043091164  
  6650.000000  -0043242759  -0043426046  -0043643812  -0043891478  -0044156681  
  6640.000000  -0044433028  -0044719609  -0045025583  -0045361688  -0045739294  
  6630.000000  -0046162215  -0046631611  -0047142938  -0047694399  -0048281412  
  6620.000000  -0048901156  -0049542957  -0050194004  -0050834816  -0051451925  
  6610.000000  -0052037919  -0052601233  -0053158180  -0053731127  -0054333073  
  6600.000000  -0054966359  -0055615894  -0056261368  -0056881187  -0057467167  
  6590.000000  -0058022432  -0058563017  -0059105729  -0059663942  -0060240990  
  6580.000000  -0060834334  -0061439918  -0062059487  -0062701770  -0063380774  
  6570.000000  -0064107521  -0064884814  -0065702071  -0066538928  -0067369967  
  6560.000000  -0068173195  -0068934244  -0069648606  -0070318804  -0070952424  
  6550.000000  -0071559186  -0072151323  -0072743336  -0073350510  -0073985403  
  6540.000000  -0074651692  -0075340527  -0076030242  -0076692555  -0077302405  
  6530.000000  -0077848041  -0078335980  -0078788889  -0079236954  -0079706179  
  6520.000000  -0080211273  -0080751977  -0081320173  -0081905381  -0082503941  
  6510.000000  -0083118337  -0083754883  -0084416140  -0085096357  -0085782394  
  6500.000000  -0086458511  -0087116140  -0087758060  -0088399632  -0089061080  
  6490.000000  -0089757604  -0090491510  -0091248033  -0092001921  -0092723411  
  6480.000000  -0093390635  -0093990732  -0094523678  -0094994131  -0095411619  
  6470.000000  -0095786012  -0096132134  -0096471876  -0096834085  -0097252786  
  6460.000000  -0097754897  -0098356110  -0099049687  -0099814195  -0100615264  
  6450.000000  -0101422594  -0102212358  -0102974582  -0103703691  -0104395011  
  6440.000000  -0105035794  -0105608799  -0106096589  -0106493975  -0106811418  
  6430.000000  -0107078427  -0107329368  -0107596706  -0107891459  -0108207695  
  6420.000000  -0108518075  -0108795688  -0109017554  -0109181257  -0109296201  
  6410.000000  -0109382938  -0109456530  -0109525692  -0109586257  -0109632633  
  6400.000000  -0109659445  -0109673185  -0109687036  -0109721227  -0109791680  
  6390.000000  -0109907578  -0110066555  -0110257810  -0110464759  -0110668005  
  6380.000000  -0110848758  -0110987554  -0111069658  -0111084918  -0111036932  
  6370.000000  -0110943065  -0110837499  -0110761711  -0110756311  -0110846240  
  6360.000000  -0111036112  -0111306515  -0111624743  -0111953629  -0112265619  
  6350.000000  -0112545894  -0112794144  -0113016313  -0113222573  -0113419991  
  6340.000000  -0113618770  -0113828609  -0114066093  -0114344658  -0114674915  
  6330.000000  -0115051812  -0115458214  -0115863357  -0116237825  -0116561361  
  6320.000000  -0116835537  -0117080163  -0117328977  -0117612203  -0117949588  
  6310.000000  -0118340077  -0118770688  -0119220698  -0119677028  -0120134681  
  6300.000000  -0120599529  -0121076875  -0121569095  -0122068109  -0122564608  
  6290.000000  -0123049013  -0123524511  -0124000906  -0124496787  -0125022830  
  6280.000000  -0125581640  -0126159113  -0126737565  -0127300184  -0127846559  
  6270.000000  -0128390803  -0128960291  -0129579991  -0130262884  -0131000828  
  6260.000000  -0131769740  -0132538373  -0133284403  -0134001034  -0134700208  
  6250.000000  -0135401308  -0136120970  -0136860580  -0137605405  -0138329667  
  6240.000000  -0139009663  -0139633441  -0140207794  -0140753621  -0141298702  
  6230.000000  -0141865357  -0142462870  -0143086619  -0143720551  -0144346824  
  6220.000000  -0144950622  -0145527277  -0146081669  -0146626894  -0147178697  
  6210.000000  -0147752474  -0148357234  -0148994367  -0149653115  -0150315013  
  6200.000000  -0150956047  -0151555857  -0152102925  -0152602048  -0153072234  
  6190.000000  -0153542059  -0154036224  -0154566485  -0155124629  -0155684999  
  6180.000000  -0156213844  -0156682455  -0157078522  -0157410919  -0157704517  
  6170.000000  -0157991960  -0158300417  -0158646076  -0159031583  -0159451374  
  6160.000000  -0159898730  -0160368813  -0160860588  -0161370797  -0161891709  
  6150.000000  -0162407291  -0162898127  -0163347943  -0163753304  -0164126598  
  6140.000000  -0164495627  -0164893603  -0165350130  -0165879533  -0166477296  
  6130.000000  -0167122080  -0167782290  -0168426938  -0169030411  -0169579676  
  6120.000000  -0170071303  -0170513264  -0170918237  -0171304441  -0171688163  
  6110.000000  -0172083868  -0172495804  -0172919835  -0173338470  -0173730579  
  6100.000000  -0174071328  -0174347873  -0174555657  -0174709236  -0174827738  
  6090.000000  -0174937362  -0175053698  -0175186154  -0175328634  -0175471746  
  6080.000000  -0175598596  -0175698763  -0175759859  -0175778988  -0175750425  
  6070.000000  -0175678485  -0175565941  -0175428060  -0175278013  -0175136337  
  6060.000000  -0175010629  -0174903830  -0174796991  -0174667254  -0174480291  
  6050.000000  -0174216631  -0173863037  -0173431485  -0172937344  -0172407265  
  6040.000000  -0171852839  -0171281293  -0170679925  -0170037431  -0169336546  
  6030.000000  -0168575172  -0167752242  -0166880505  -0165964683  -0165015133  
  6020.000000  -0164028973  -0163012268  -0161964138  -0160899420  -0159826862  
  6010.000000  -0158765400  -0157717458  -0156685594  -0155650862  -0154597989  
  6000.000000  -0153499663  -0152343247  -0151111522  -0149803841  -0148412770  
  5990.000000  -0146943491  -0145391898  -0143767171  -0142071340  -0140321115  
  5980.000000  -0138523373  -0136693115  -0134827386  -0132925838  -0130970657  
  5970.000000  -0128954363  -0126862839  -0124702429  -0122476313  -0120205049  
  5960.000000  -0117897951  -0115572917  -0113232167  -0110885673  -0108532372  
  5950.000000  -0106180560  -0103828909  -0101477927  -0099114014  -0096718740  
  5940.000000  -0094265549  -0091730965  -0089101099  -0086376777  -0083577896  
  5930.000000  -0080734608  -0077886235  -0075066984  -0072308690  -0069632367  
  5920.000000  -0067056509  -0064592869  -0062252687  -0060039319  -0057951538  
  5910.000000  -0055975835  -0054096253  -0052288373  -0050536761  -0048822704  
  5900.000000  -0047142689  -0045484041  -0043844185  -0042203028  -0040550466  
  5890.000000  -0038865929  -0037150493  -0035408098  -0033668091  -0031960883  
  5880.000000  -0030327541  -0028795783  -0027386416  -0026100929  -0024931862  
  5870.000000  -0023860491  -0022866413  -0021926096  -0021019081  -0020124555  
  5860.000000  -0019227900  -0018316773  -0017388106  -0016439960  -0015475408  
  5850.000000  -0014491536  -0013483928  -0012440410  -0011349884  -0010204760  
  5840.000000  -0009008010  -0007775042  -0006528309  -0005294305  -0004091384  
  5830.000000  -0002929709  -0001804972  -0000707260   0000377891   0001460124  
  5820.000000   0002546228   0003638465   0004739757   0005854646   0006987965  
  5810.000000   0008144228   0009318269   0010502303   0011675193   0012824937  
  5800.000000   0013934091   0015009597   0016053862   0017090848   0018124494  
  5790.000000   0019165356   0020191060   0021180641   0022083362   0022857315  
  5780.000000   0023442952   0023799299   0023880390   0023668903   0023156112  
  5770.000000   0022371567   0021358622   0020192898   0018945841   0017695306  
  5760.000000   0016487432   0015356380   0014299988   0013314864   0012382046  
  5750.000000   0011500085   0010665253   0009887870   0009169296   0008508476  
  5740.000000   0007891929   0007300997   0006717578   0006126623   0005524348  
  5730.000000   0004909490   0004288122   0003661071   0003030744   0002394571  
  5720.000000   0001754606   0001113611   0000480042  -0000139336  -0000738724  
  5710.000000  -0001319356  -0001885591  -0002444611  -0003000286  -0003551782  
  5700.000000  -0004093393  -0004616696  -0005116695  -0005590757  -0006044312  
  5690.000000  -0006480478  -0006906514  -0007319846  -0007722212  -0008108427  
  5680.000000  -0008485912  -0008862432  -0009261590  -0009705682  -0010225419  
  5670.000000  -0010842942  -0011581027  -0012451072  -0013462371  -0014612176  
  5660.000000  -0015892539  -0017280649  -0018747290  -0020251871  -0021756909  
  5650.000000  -0023226654  -0024640929  -0025988578  -0027272801  -0028498628  
  5640.000000  -0029673863  -0030800922  -0031880147  -0032911042  -0033893579  
  5630.000000  -0034833293  -0035733699  -0036602853  -0037440440  -0038250255  
  5620.000000  -0039028169  -0039779213  -0040504233  -0041213421  -0041909509  
  5610.000000  -0042596653  -0043267088  -0043912033  -0044516817  -0045073554  
  5600.000000  -0045577785  -0046035152  -0046453311  -0046843012  -0047211091  
  5590.000000  -0047564021  -0047906825  -0048248799  -0048601496  -0048979218  
  5580.000000  -0049391628  -0049841358  -0050320138  -0050812840  -0051303006  
  5570.000000  -0051780091  -0052244248  -0052704291  -0053174035  -0053662638  
  5560.000000  -0054172109  -0054693743  -0055215488  -0055725954  -0056222514  
  5550.000000  -0056710492  -0057201628  -0057706196  -0058229033  -0058766357  
  5540.000000  -0059309373  -0059848394  -0060377811  -0060896607  -0061406857  
  5530.000000  -0061908950  -0062401038  -0062877988  -0063337793  -0063783002  
  5520.000000  -0064224463  -0064675703  -0065148362  -0065644070  -0066154107  
  5510.000000  -0066661903  -0067153881  -0067626498  -0068093023  -0068577207  
  5500.000000  -0069106341  -0069694270  -0070337161  -0071007885  -0071671817  
  5490.000000  -0072295921  -0072868361  -0073396994  -0073910190  -0074439167  
  5480.000000  -0075011691  -0075638798  -0076320657  -0077046452  -0077807596  
  5470.000000  -0078595599  -0079406971  -0080232954  -0081062570  -0081878644  
  5460.000000  -0082669230  -0083431563  -0084179049  -0084936925  -0085733408  
  5450.000000  -0086587258  -0087499120  -0088450383  -0089412050  -0090357552  
  5440.000000  -0091272119  -0092156078  -0093012394  -0093840399  -0094620937  
  5430.000000  -0095328281  -0095935784  -0096443245  -0096877754  -0097299836  
  5420.000000  -0097772105  -0098345214  -0099018785  -0099748469  -0100441991  
  5410.000000  -0101009758  -0101384779  -0101565315  -0101593998  -0101554199  
  5400.000000  -0101514800  -0101526480  -0101584883  -0101662580  -0101703216  
  5390.000000  -0101672427  -0101547521  -0101344044  -0101074739  -0100759378  
  5380.000000  -0100383906  -0099930627  -0099358881  -0098652782  -0097800758  
  5370.000000  -0096830997  -0095767191  -0094653249  -0093499860  -0092326064  
  5360.000000  -0091111638  -0089858616  -0088538398  -0087155571  -0085679838  
  5350.000000  -0084110137  -0082401444  -0080541078  -0078478804  -0076215303  
  5340.000000  -0073723324  -0071031971  -0068128733  -0065045545  -0061755517  
  5330.000000  -0058273833  -0054556374  -0050614598  -0046408412  -0041960453  
  5320.000000  -0037234248  -0032251752  -0026964544  -0021384897  -0015453108  
  5310.000000  -0009182707  -0002522374   0004498963   0011917400   0019695292  
  5300.000000   0027864255   0036390287   0045311594   0054603045   0064307752  
  5290.000000   0074400888   0084913855   0095803712   0107070251   0118645460  
  5280.000000   0130509903   0142601029   0154920225   0167443565   0180206233  
  5270.000000   0193209060   0206474671   0219974236   0233671451   0247497064  
  5260.000000   0261385097   0275281429   0289151417   0302986607   0316774646  
  5250.000000   0330510136   0344148781   0357652645   0370939704   0383970200  
  5240.000000   0396676003   0409062417   0421103608   0432846195   0444286178  
  5230.000000   0455477844   0466406558   0477105183   0487528057   0497680896  
  5220.000000   0507497989   0516984752   0526090541   0534851018   0543249031  
  5210.000000   0551346449   0559134560   0566662449   0573891435   0580840004  
  5200.000000   0587449336   0593740325   0599672547   0605290693   0610571739  
  5190.000000   0615560762   0620223863   0624588695   0628612126   0632324682  
  5180.000000   0635698204   0638779751   0641551124   0644053285   0646252844  
  5170.000000   0648170934   0649766773   0651067869   0652056069   0652783226  
  5160.000000   0653248749   0653502668   0653528512   0653349741   0652931564  
  5150.000000   0652289991   0651403060   0650304958   0648994907   0647514526  
  5140.000000   0645862827   0644070043   0642127530   0640060348   0637865702  
  5130.000000   0635574591   0633191844   0630746070   0628237330   0625683350  
  5120.000000   0623079791   0620441910   0617771024   0615083913   0612381639  
  5110.000000   0609669975   0606938261   0604180466   0601386412   0598561039  
  5100.000000   0595716481   0592879655   0590077162   0587334060   0584659991  
  5090.000000   0582053448   0579498288   0576976696   0574469797   0571968802  
  5080.000000   0569469472   0566975944   0564489968   0562013957   0559542089  
  5070.000000   0557068210   0554579537   0552067298   0549519295   0546930773  
  5060.000000   0544294679   0541613481   0538886910   0536124265   0533328679  
  5050.000000   0530508797   0527661953   0524787357   0521873397   0518914298  
  5040.000000   0515901454   0512838915   0509732636   0506599145   0503451911  
  5030.000000   0500305301   0497165488   0494035152   0490913202   0487798653  
  5020.000000   0484694403   0481604539   0478538215   0475500515   0472499913  
  5010.000000   0469537251   0466620360   0463750985   0460943421   0458204617  
  5000.000000   0455553132   0452992462   0450533761   0448167987   0445897183  
  4990.000000   0443706422   0441601123   0439572727   0437636806   0435789459  
  4980.000000   0434047893   0432402361   0430864891   0429420523   0428083582  
  4970.000000   0426844716   0425728609   0424733233   0423887639   0423186906  
  4960.000000   0422654834   0422279132   0422080686   0422046703   0422202247  
  4950.000000   0422536798   0423076145   0423804129   0424739193   0425856216  
  4940.000000   0427170027   0428656303   0430337183   0432196524   0434263193  
  4930.000000   0436522346   0438998689   0441670670   0444555937   0447630822  
  4920.000000   0450913599   0454386498   0458070820   0461952145   0466046646  
  4910.000000   0470335362   0474823070   0479485425   0484318088   0489296072  
  4900.000000   0494409140   0499633450   0504951566   0510339035   0515768609  
  4890.000000   0521213784   0526636687   0532009051   0537284332   0542436199  
  4880.000000   0547415773   0552205432   0556760260   0561073240   0565101891  
  4870.000000   0568843654   0572253708   0575331520   0578035282   0580376047  
  4860.000000   0582327993   0583922463   0585152801   0586064831   0586661493  
  4850.000000   0586991766   0587061878   0586921580   0586582777   0586097456  
  4840.000000   0585482459   0584785821   0584020800   0583222300   0582395549  
  4830.000000   0581563051   0580728363   0579909490   0579114025   0578356758  
  4820.000000   0577645146   0576985187   0576379153   0575824725   0575323918  
  4810.000000   0574875334   0574488765   0574168407   0573929223   0573773519  
  4800.000000   0573710246   0573730949   0573833833   0574002037   0574230233  
  4790.000000   0574503705   0574823202   0575183278   0575592839   0576053396  
  4780.000000   0576575396   0577158843   0577807125   0578511606   0579264746  
  4770.000000   0580049532   0580852737   0581657310   0582453528   0583231383  
  4760.000000   0583987868   0584718649   0585422782   0586096435   0586738152  
  4750.000000   0587346517   0587924995   0588480804   0589025399   0589572321  
  4740.000000   0590133390   0590716833   0591324157   0591951409   0592591071  
  4730.000000   0593233659   0593873065   0594503372   0595125844   0595738743  
  4720.000000   0596347487   0596950475   0597555744   0598163835   0598789282  
  4710.000000   0599439157   0600135768   0600890549   0601726150   0602650270  
  4700.000000   0603678711   0604812641   0606061817   0607424959   0608910837  
  4690.000000   0610518113   0612253242   0614109261   0616084006   0618157640  
  4680.000000   0620314735   0622521677   0624754855   0626976289   0629165293  
  4670.000000   0631292872   0633353971   0635340661   0637269813   0639156681  
  4660.000000   0641036327   0642939602   0644907099   0646969279   0649154185  
  4650.000000   0651474535   0653932042   0656513978   0659196275   0661949559  
  4640.000000   0664740280   0667542445   0670332435   0673101141   0675839434  
  4630.000000   0678549909   0681225617   0683865918   0686452561   0688972787  
  4620.000000   0691393519   0693692715   0695830161   0697785626   0699524365  
  4610.000000   0701041766   0702322484   0703388304   0704247399   0704942795  
  4600.000000   0705492729   0705941181   0706295240   0706581592   0706787459  
  4590.000000   0706921466   0706958639   0706899363   0706717288   0706411682  
  4580.000000   0705959899   0705363785   0704609931   0703710529   0702669819  
  4570.000000   0701517273   0700275476   0698984329   0697668978   0696360186  
  4560.000000   0695067162   0693799594   0692548406   0691308955   0690067748  
  4550.000000   0688821032   0687563394   0686298065   0685027817   0683758540  
  4540.000000   0682495821   0681243922   0680009180   0678793663   0677603857  
  4530.000000   0676438194   0675300770   0674184227   0673090374   0672009169  
  4520.000000   0670947115   0669899243   0668884515   0667906529   0666996469  
  4510.000000   0666161510   0665437841   0664828513   0664368297   0664052755  
  4500.000000   0663914758   0663945487   0664181258   0664616364   0665297865  
  4490.000000   0666228957   0667467979   0669021479   0670945772   0673233736  
  4480.000000   0675921953   0678978765   0682419054   0686196393   0690320117  
  4470.000000   0694747613   0699495617   0704530588   0709872217   0715486546  
  4460.000000   0721384226   0727522748   0733899284   0740464864   0747207675  
  4450.000000   0754080568   0761070970   0768143255   0775291710   0782497496  
  4440.000000   0789761175   0797074304   0804431886   0811822097   0819222955  
  4430.000000   0826613904   0833958850   0841237184   0848410597   0855466909  
  4420.000000   0862370604   0869115541   0875665713   0882015315   0888126767  
  4410.000000   0893995028   0899585059   0904897059   0909903057   0914613018  
  4400.000000   0919011245   0923124428   0926957963   0930563570   0933972913  
  4390.000000   0937260022   0940469759   0943674083   0946899409   0950182941  
  4380.000000   0953509451   0956873752   0960232451   0963567253   0966844448  
  4370.000000   0970065155   0973222732   0976334476   0979399236   0982423292  
  4360.000000   0985385918   0988277407   0991063948   0993745756   0996297131  
  4350.000000   0998746244   1001077963   1003338216   1005511910   1007645953  
  4340.000000   1009718346   1011755391   1013699328   1015502287   1017012440  
  4330.000000   1018061896   1018407108   1017835575   1016164426   1013341950  
  4320.000000   1009443839   1004708777   0999471905   0994129188   0989034563  
  4310.000000   0984467407   0980570252   0977378028   0974822569   0972797555  
  4300.000000   0971187716   0969903413   0968895673   0968134180   0967621350  
  4290.000000   0967339572   0967294243   0967456880   0967829807   0968390355  
  4280.000000   0969143286   0970073846   0971171120   0972409588   0973750160  
  4270.000000   0975152869   0976559822   0977916555   0979140634   0980141092  
  4260.000000   0980792818   0980968305   0980535773   0979408958   0977552014  
  4250.000000   0975021005   0971935844   0968491953   0964892057   0961348578  
  4240.000000   0958008885   0954980933   0952284670   0949906935   0947781784  
  4230.000000   0945844757   0944023428   0942263477   0940526761   0938786598  
  4220.000000   0937043623   0935297408   0933582990   0931922768   0930373528  
  4210.000000   0928963944   0927743104   0926719302   0925910520   0925296043  
  4200.000000   0924867825   0924591322   0924454116   0924423992   0924495120  
  4190.000000   0924639500   0924858124   0925127517   0925458079   0925835698  
  4180.000000   0926282711   0926793931   0927396847   0928087350   0928891766  
  4170.000000   0929806962   0930863371   0932065646   0933451608   0935027800  
  4160.000000   0936825113   0938832430   0941058435   0943469924   0946063908  
  4150.000000   0948806550   0951707591   0954750579   0957963505   0961339782  
  4140.000000   0964909344   0968657896   0972604948   0976725677   0981034137  
  4130.000000   0985504985   0990155213   0994965162   0999956173   1005114417  
  4120.000000   1010464537   1015999233   1021747801   1027709699   1033915098  
  4110.000000   1040361630   1047067484   1054014636   1061197437   1068577951  
  4100.000000   1076131007   1083811904   1091593341   1099442724   1107344886  
  4090.000000   1115285828   1123257818   1131254865   1139263342   1147275649  
  4080.000000   1155266414   1163225398   1171117442   1178930941   1186621254  
  4070.000000   1194173970   1201536919   1208699155   1215612406   1222279698  
  4060.000000   1228662002   1234771701   1240568552   1246063739   1251214974  
  4050.000000   1256044249   1260528685   1264719047   1268615002   1272276383  
  4040.000000   1275691159   1278892020   1281836392   1284535976   1286946754  
  4030.000000   1289096031   1290965388   1292600047   1293994634   1295184912  
  4020.000000   1296147393   1296912453   1297481646   1297889800   1298123186  
  4010.000000   1298226354   1298217159   1298073582   1297681705   1297037554  
  4000.000000   1296264674  
##END= 
