##TITLE= Sample 024 By ssteindl date Dienstag, November 20 2018
##JCAMP-DX= 4.24
##DATA TYPE= INFRARED SPECTRUM
##ORIGIN= Exported PE Spectrum Data File
##OWNER= Sandra Steindl
##DATE= 18/11/20
##TIME= 14:47:59.00
##SPECTROMETER/DATA SYSTEM= PERKIN-ELMER Frontier FT-IR/NIR IR
##INSTRUMENT PARAMETERS=
  APODIZATION=stark
  DETECTOR=INGAAS
##RESOLUTION= 16.000000
##DELTAX= -2.000000
##XUNITS= 1/CM
##YUNITS= A
##XFACTOR= 1.00
##YFACTOR= 0.00000011920928955078
##FIRSTX= 10000.00
##LASTX= 4000.00
##NPOINTS= 3001
##FIRSTY= 0.209860
##MAXY= 0.575756
##MINY= 0.188564
##XYDATA= (X++(Y..Y))
 10000.000000   1760435   1756441   1752449   1748831   1746360  
  9990.000000   1745632   1746535   1748448   1750747   1753093  
  9980.000000   1755446   1757941   1760864   1764287   1767969  
  9970.000000   1771197   1773127   1772942   1770278   1765335  
  9960.000000   1758977   1752488   1747241   1744357   1744350  
  9950.000000   1747127   1751983   1757975   1764091   1769587  
  9940.000000   1773956   1777001   1778669   1779031   1778243  
  9930.000000   1776524   1774231   1771696   1769246   1766959  
  9920.000000   1764707   1762137   1758835   1754581   1749438  
  9910.000000   1743948   1738888   1735182   1733497   1734135  
  9900.000000   1736915   1741281   1746480   1751687   1756160  
  9890.000000   1759220   1760355   1759198   1755738   1750344  
  9880.000000   1743895   1737608   1732780   1730403   1730781  
  9870.000000   1733463   1737348   1741156   1743890   1745171  
  9860.000000   1745298   1744932   1744725   1744863   1744984  
  9850.000000   1744320   1742153   1738293   1733316   1728531  
  9840.000000   1725489   1725481   1728981   1735516   1743784  
  9830.000000   1752074   1758750   1762563   1762898   1759688  
  9820.000000   1753418   1744947   1735463   1726349   1719010  
  9810.000000   1714653   1713948   1716869   1722563   1729643  
  9800.000000   1736486   1741802   1744848   1745599   1744514  
  9790.000000   1742248   1739388   1736259   1733045   1729850  
  9780.000000   1726892   1724461   1722785   1721885   1721420  
  9770.000000   1720840   1719545   1717248   1714105   1710694  
  9760.000000   1707744   1705748   1704716   1704103   1703121  
  9750.000000   1701089   1697871   1693947   1690275   1687856  
  9740.000000   1687284   1688505   1690837   1693332   1695214  
  9730.000000   1696190   1696556   1696892   1697787   1699379  
  9720.000000   1701368   1703009   1703560   1702512   1699895  
  9710.000000   1696227   1692338   1689146   1687334   1687376  
  9700.000000   1689384   1693337   1698976   1705900   1713474  
  9690.000000   1720851   1727067   1731177   1732477   1730631  
  9680.000000   1725789   1718527   1709786   1700676   1692325  
  9670.000000   1685718   1681509   1679999   1680944   1683707  
  9660.000000   1687226   1690390   1692228   1692260   1690587  
  9650.000000   1687811   1684805   1682289   1680650   1679708  
  9640.000000   1678984   1677845   1675944   1673298   1670337  
  9630.000000   1667656   1665744   1664793   1664667   1665052  
  9620.000000   1665690   1666495   1667634   1669329   1671729  
  9610.000000   1674731   1677964   1680946   1683239   1684694  
  9600.000000   1685493   1686120   1687169   1689093   1692021  
  9590.000000   1695661   1699381   1702372   1703853   1703264  
  9580.000000   1700397   1695476   1689135   1682351   1676222  
  9570.000000   1671776   1669660   1670034   1672440   1676000  
  9560.000000   1679595   1682260   1683391   1682932   1681277  
  9550.000000   1679090   1677033   1675520   1674655   1674198  
  9540.000000   1673776   1672969   1671522   1669356   1666616  
  9530.000000   1663589   1660631   1658081   1656173   1655001  
  9520.000000   1654501   1654497   1654781   1655210   1655768  
  9510.000000   1656591   1657867   1659747   1662204   1664962  
  9500.000000   1667585   1669542   1670489   1670305   1669203  
  9490.000000   1667541   1665681   1663810   1661917   1659919  
  9480.000000   1657828   1655921   1654702   1654804   1656637  
  9470.000000   1660213   1664927   1669765   1673599   1675617  
  9460.000000   1675650   1674134   1671933   1669852   1668362  
  9450.000000   1667384   1666445   1664953   1662550   1659360  
  9440.000000   1655976   1653295   1652107   1652846   1655360  
  9430.000000   1659064   1663113   1666713   1669301   1670611  
  9420.000000   1670660   1669648   1667883   1665737   1663575  
  9410.000000   1661759   1660542   1660029   1660099   1660450  
  9400.000000   1660671   1660402   1659405   1657637   1655177  
  9390.000000   1652158   1648704   1644879   1640784   1636565  
  9380.000000   1632509   1628980   1626320   1624727   1624144  
  9370.000000   1624315   1624888   1625615   1626445   1627529  
  9360.000000   1629102   1631272   1633917   1636577   1638657  
  9350.000000   1639572   1639068   1637260   1634641   1631843  
  9340.000000   1629445   1627802   1626999   1626953   1627492  
  9330.000000   1628515   1629941   1631717   1633661   1635487  
  9320.000000   1636832   1637410   1637145   1636193   1634908  
  9310.000000   1633612   1632480   1631420   1630162   1628407  
  9300.000000   1626014   1623164   1620318   1618108   1617037  
  9290.000000   1617308   1618731   1620819   1623011   1624812  
  9280.000000   1625958   1626340   1626007   1625027   1623488  
  9270.000000   1621511   1619326   1617351   1616130   1616243  
  9260.000000   1618028   1621482   1626123   1631184   1635781  
  9250.000000   1639186   1640981   1641092   1639739   1637246  
  9240.000000   1633934   1630011   1625620   1620911   1616139  
  9230.000000   1611701   1608082   1605737   1604896   1605516  
  9220.000000   1607189   1609286   1611063   1611915   1611561  
  9210.000000   1610070   1607900   1605679   1604131   1603729  
  9200.000000   1604615   1606475   1608714   1610649   1611749  
  9190.000000   1611857   1611195   1610399   1610206   1611246  
  9180.000000   1613736   1617443   1621791   1625948   1629100  
  9170.000000   1630534   1629870   1627012   1622160   1615738  
  9160.000000   1608401   1601054   1594751   1590535   1589132  
  9150.000000   1590831   1595298   1601668   1608634   1614900  
  9140.000000   1619485   1621977   1622509   1621619   1620034  
  9130.000000   1618358   1616938   1615769   1614695   1613502  
  9120.000000   1612080   1610427   1608586   1606620   1604503  
  9110.000000   1602199   1599653   1596952   1594342   1592180  
  9100.000000   1590811   1590397   1590848   1591799   1592737  
  9090.000000   1593176   1592868   1591874   1590575   1589498  
  9080.000000   1589159   1589820   1591411   1593525   1595584  
  9070.000000   1597024   1597506   1597001   1595802   1594400  
  9060.000000   1593317   1592916   1593309   1594321   1595605  
  9050.000000   1596731   1597352   1597283   1596545   1595324  
  9040.000000   1593893   1592573   1591676   1591474   1592147  
  9030.000000   1593750   1596182   1599151   1602204   1604818  
  9020.000000   1606544   1607142   1606662   1605460   1604084  
  9010.000000   1603098   1602844   1603380   1604462   1605703  
  9000.000000   1606705   1607246   1607327   1607117   1606805  
  8990.000000   1606457   1605984   1605128   1603628   1601322  
  8980.000000   1598309   1594918   1591640   1588996   1587378  
  8970.000000   1587021   1587923   1589976   1592942   1596570  
  8960.000000   1600532   1604466   1607971   1610658   1612246  
  8950.000000   1612584   1611727   1609835   1607179   1603975  
  8940.000000   1600426   1596664   1592853   1589222   1586043  
  8930.000000   1583636   1582192   1581787   1582269   1583400  
  8920.000000   1584901   1586592   1588398   1590316   1592313  
  8910.000000   1594213   1595706   1596388   1595984   1594444  
  8900.000000   1592085   1589452   1587178   1585714   1585185  
  8890.000000   1585350   1585725   1585838   1585423   1584554  
  8880.000000   1583553   1582860   1582790   1583442   1584654  
  8870.000000   1586119   1587539   1588717   1589627   1590308  
  8860.000000   1590813   1591081   1590975   1590331   1589104  
  8850.000000   1587422   1585612   1584097   1583299   1583471  
  8840.000000   1584645   1586627   1589077   1591616   1593903  
  8830.000000   1595701   1596916   1597601   1597958   1598296  
  8820.000000   1598973   1600294   1602405   1605217   1608395  
  8810.000000   1611444   1613883   1615392   1615938   1615761  
  8800.000000   1615250   1614767   1614477   1614310   1614025  
  8790.000000   1613398   1612383   1611218   1610347   1610256  
  8780.000000   1611232   1613234   1615856   1618487   1620519  
  8770.000000   1621578   1621650   1621052   1620287   1619839  
  8760.000000   1620007   1620844   1622200   1623818   1625455  
  8750.000000   1626921   1628106   1628922   1629284   1629112  
  8740.000000   1628370   1627130   1625589   1624049   1622846  
  8730.000000   1622250   1622397   1623253   1624640   1626314  
  8720.000000   1628036   1629637   1631030   1632192   1633144  
  8710.000000   1633911   1634528   1635026   1635449   1635850  
  8700.000000   1636290   1636837   1637563   1638534   1639802  
  8690.000000   1641379   1643212   1645160   1647005   1648485  
  8680.000000   1649375   1649551   1649060   1648116   1647063  
  8670.000000   1646269   1646021   1646453   1647517   1649050  
  8660.000000   1650823   1652642   1654362   1655919   1657293  
  8650.000000   1658486   1659501   1660334   1661014   1661575  
  8640.000000   1662092   1662601   1663114   1663569   1663878  
  8630.000000   1663962   1663819   1663558   1663381   1663549  
  8620.000000   1664278   1665697   1667792   1670426   1673373  
  8610.000000   1676384   1679236   1681753   1683811   1685328  
  8600.000000   1686287   1686726   1686766   1686585   1686405  
  8590.000000   1686410   1686704   1687275   1688016   1688792  
  8580.000000   1689497   1690127   1690762   1691551   1692611  
  8570.000000   1693983   1695586   1697249   1698770   1699999  
  8560.000000   1700895   1701528   1702047   1702607   1703321  
  8550.000000   1704215   1705224   1706223   1707064   1707635  
  8540.000000   1707867   1707780   1707473   1707125   1706960  
  8530.000000   1707191   1707964   1709272   1710937   1712618  
  8520.000000   1713929   1714534   1714294   1713322   1711992  
  8510.000000   1710819   1710296   1710746   1712230   1714544  
  8500.000000   1717298   1720058   1722484   1724398   1725786  
  8490.000000   1726753   1727451   1728005   1728486   1728902  
  8480.000000   1729250   1729524   1729756   1729994   1730306  
  8470.000000   1730757   1731387   1732221   1733252   1734460  
  8460.000000   1735788   1737161   1738479   1739660   1740643  
  8450.000000   1741443   1742125   1742805   1743586   1744529  
  8440.000000   1745617   1746752   1747782   1748536   1748880  
  8430.000000   1748738   1748120   1747099   1745802   1744395  
  8420.000000   1743074   1742043   1741481   1741526   1742221  
  8410.000000   1743514   1745236   1747158   1749041   1750702  
  8400.000000   1752046   1753067   1753825   1754388   1754802  
  8390.000000   1755062   1755150   1755055   1754817   1754529  
  8380.000000   1754308   1754261   1754421   1754750   1755116  
  8370.000000   1755388   1755461   1755336   1755095   1754895  
  8360.000000   1754883   1755141   1755633   1756210   1756657  
  8350.000000   1756766   1756423   1755623   1754494   1753237  
  8340.000000   1752072   1751178   1750635   1750442   1750522  
  8330.000000   1750788   1751167   1751634   1752193   1752856  
  8320.000000   1753607   1754370   1755014   1755369   1755299  
  8310.000000   1754740   1753752   1752503   1751239   1750211  
  8300.000000   1749600   1749480   1749778   1750344   1750982  
  8290.000000   1751537   1751925   1752145   1752248   1752286  
  8280.000000   1752270   1752145   1751817   1751189   1750220  
  8270.000000   1748963   1747554   1746206   1745131   1744504  
  8260.000000   1744385   1744728   1745376   1746109   1746693  
  8250.000000   1746919   1746642   1745797   1744412   1742603  
  8240.000000   1740560   1738519   1736719   1735367   1734582  
  8230.000000   1734383   1734666   1735247   1735892   1736393  
  8220.000000   1736596   1736437   1735925   1735128   1734126  
  8210.000000   1732993   1731784   1730552   1729365   1728310  
  8200.000000   1727477   1726932   1726662   1726564   1726429  
  8190.000000   1726008   1725067   1723483   1721297   1718710  
  8180.000000   1716037   1713600   1711639   1710238   1709315  
  8170.000000   1708668   1708061   1707307   1706342   1705221  
  8160.000000   1704079   1703061   1702255   1701662   1701206  
  8150.000000   1700770   1700265   1699657   1698992   1698363  
  8140.000000   1697862   1697538   1697364   1697248   1697061  
  8130.000000   1696679   1696028   1695085   1693890   1692509  
  8120.000000   1691018   1689491   1687987   1686570   1685301  
  8110.000000   1684249   1683468   1682980   1682755   1682697  
  8100.000000   1682662   1682478   1682000   1681140   1679913  
  8090.000000   1678425   1676866   1675445   1674347   1673679  
  8080.000000   1673445   1673562   1673877   1674232   1674493  
  8070.000000   1674591   1674516   1674303   1673997   1673622  
  8060.000000   1673173   1672601   1671851   1670872   1669655  
  8050.000000   1668234   1666683   1665111   1663628   1662347  
  8040.000000   1661351   1660698   1660399   1660419   1660661  
  8030.000000   1660986   1661223   1661207   1660822   1660026  
  8020.000000   1658876   1657498   1656073   1654761   1653677  
  8010.000000   1652850   1652232   1651729   1651239   1650697  
  8000.000000   1650092   1649472   1648909   1648481   1648228  
  7990.000000   1648143   1648175   1648239   1648245   1648112  
  7980.000000   1647790   1647263   1646554   1645712   1644813  
  7970.000000   1643933   1643141   1642482   1641970   1641587  
  7960.000000   1641294   1641050   1640819   1640595   1640388  
  7950.000000   1640223   1640120   1640074   1640059   1640015  
  7940.000000   1639880   1639591   1639117   1638456   1637638  
  7930.000000   1636725   1635790   1634922   1634205   1633724  
  7920.000000   1633542   1633691   1634156   1634858   1635666  
  7910.000000   1636401   1636885   1636958   1636543   1635637  
  7900.000000   1634345   1632833   1631315   1630005   1629080  
  7890.000000   1628662   1628792   1629449   1630536   1631919  
  7880.000000   1633428   1634896   1636171   1637140   1637748  
  7870.000000   1637986   1637903   1637564   1637058   1636460  
  7860.000000   1635838   1635242   1634705   1634254   1633898  
  7850.000000   1633643   1633471   1633364   1633290   1633228  
  7840.000000   1633164   1633103   1633056   1633031   1633025  
  7830.000000   1633009   1632944   1632788   1632523   1632169  
  7820.000000   1631779   1631438   1631217   1631170   1631295  
  7810.000000   1631551   1631861   1632145   1632340   1632405  
  7800.000000   1632324   1632080   1631651   1631000   1630093  
  7790.000000   1628920   1627520   1625994   1624496   1623199  
  7780.000000   1622256   1621757   1621706   1622012   1622515  
  7770.000000   1623024   1623357   1623388   1623073   1622461  
  7760.000000   1621679   1620903   1620313   1620047   1620158  
  7750.000000   1620592   1621202   1621778   1622104   1622011  
  7740.000000   1621424   1620370   1618965   1617378   1615779  
  7730.000000   1614317   1613091   1612169   1611577   1611327  
  7720.000000   1611393   1611727   1612222   1612742   1613129  
  7710.000000   1613241   1612998   1612383   1611464   1610341  
  7700.000000   1609134   1607927   1606773   1605695   1604710  
  7690.000000   1603861   1603212   1602849   1602825   1603143  
  7680.000000   1603717   1604398   1605004   1605371   1605406  
  7670.000000   1605095   1604511   1603760   1602965   1602212  
  7660.000000   1601555   1601007   1600568   1600232   1600000  
  7650.000000   1599876   1599859   1599939   1600086   1600269  
  7640.000000   1600453   1600613   1600739   1600828   1600883  
  7630.000000   1600903   1600888   1600831   1600730   1600590  
  7620.000000   1600420   1600235   1600055   1599897   1599782  
  7610.000000   1599716   1599693   1599686   1599650   1599531  
  7600.000000   1599290   1598922   1598471   1598033   1597737  
  7590.000000   1597707   1598022   1598681   1599599   1600624  
  7580.000000   1601586   1602344   1602833   1603061   1603108  
  7570.000000   1603079   1603076   1603156   1603333   1603577  
  7560.000000   1603846   1604099   1604318   1604504   1604680  
  7550.000000   1604876   1605126   1605456   1605877   1606377  
  7540.000000   1606926   1607471   1607965   1608373   1608705  
  7530.000000   1609008   1609367   1609863   1610550   1611412  
  7520.000000   1612377   1613321   1614133   1614742   1615170  
  7510.000000   1615509   1615901   1616469   1617286   1618339  
  7500.000000   1619552   1620818   1622052   1623228   1624380  
  7490.000000   1625578   1626887   1628332   1629878   1631435  
  7480.000000   1632900   1634179   1635237   1636084   1636787  
  7470.000000   1637418   1638056   1638747   1639521   1640381  
  7460.000000   1641332   1642375   1643524   1644799   1646215  
  7450.000000   1647787   1649514   1651384   1653374   1655446  
  7440.000000   1657562   1659673   1661746   1663743   1665645  
  7430.000000   1667428   1669076   1670569   1671900   1673073  
  7420.000000   1674121   1675107   1676119   1677251   1678574  
  7410.000000   1680114   1681843   1683686   1685545   1687336  
  7400.000000   1689012   1690583   1692096   1693616   1695199  
  7390.000000   1696868   1698616   1700410   1702217   1704012  
  7380.000000   1705785   1707527   1709226   1710852   1712365  
  7370.000000   1713733   1714950   1716054   1717121   1718252  
  7360.000000   1719540   1721044   1722767   1724665   1726657  
  7350.000000   1728659   1730607   1732476   1734276   1736044  
  7340.000000   1737815   1739608   1741413   1743191   1744887  
  7330.000000   1746445   1747831   1749041   1750105   1751079  
  7320.000000   1752020   1752978   1753965   1754970   1755955  
  7310.000000   1756885   1757744   1758553   1759363   1760238  
  7300.000000   1761222   1762322   1763488   1764639   1765687  
  7290.000000   1766576   1767313   1767962   1768630   1769422  
  7280.000000   1770396   1771545   1772798   1774044   1775179  
  7270.000000   1776138   1776923   1777593   1778246   1778977  
  7260.000000   1779851   1780878   1782025   1783217   1784378  
  7250.000000   1785438   1786368   1787171   1787895   1788613  
  7240.000000   1789418   1790386   1791576   1792994   1794618  
  7230.000000   1796377   1798202   1800017   1801788   1803503  
  7220.000000   1805195   1806900   1808669   1810530   1812509  
  7210.000000   1814605   1816826   1819159   1821603   1824133  
  7200.000000   1826734   1829371   1832025   1834680   1837351  
  7190.000000   1840063   1842863   1845777   1848823   1851970  
  7180.000000   1855178   1858380   1861537   1864625   1867666  
  7170.000000   1870695   1873768   1876921   1880187   1883558  
  7160.000000   1887032   1890582   1894201   1897872   1901601  
  7150.000000   1905376   1909207   1913083   1917021   1921018  
  7140.000000   1925099   1929269   1933555   1937960   1942514  
  7130.000000   1947231   1952150   1957286   1962660   1968238  
  7120.000000   1973976   1979779   1985567   1991261   1996846  
  7110.000000   2002338   2007808   2013316   2018922   2024626  
  7100.000000   2030406   2036195   2041953   2047649   2053307  
  7090.000000   2058970   2064707   2070565   2076574   2082726  
  7080.000000   2089002   2095370   2101813   2108319   2114893  
  7070.000000   2121534   2128240   2134993   2141770   2148538  
  7060.000000   2155269   2161932   2168507   2174972   2181323  
  7050.000000   2187565   2193718   2199811   2205871   2211921  
  7040.000000   2217960   2223986   2229984   2235955   2241910  
  7030.000000   2247883   2253897   2259970   2266078   2272171  
  7020.000000   2278168   2283997   2289605   2294986   2300166  
  7010.000000   2305202   2310144   2315030   2319860   2324629  
  7000.000000   2329310   2333904   2338411   2342865   2347283  
  6990.000000   2351694   2356088   2360456   2364753   2368948  
  6980.000000   2372998   2376882   2380582   2384107   2387468  
  6970.000000   2390706   2393849   2396940   2399986   2402990  
  6960.000000   2405915   2408735   2411411   2413949   2416361  
  6950.000000   2418695   2420980   2423241   2425452   2427581  
  6940.000000   2429581   2431442   2433181   2434864   2436554  
  6930.000000   2438310   2440127   2441964   2443733   2445359  
  6920.000000   2446789   2448037   2449155   2450224   2451308  
  6910.000000   2452441   2453612   2454788   2455929   2457019  
  6900.000000   2458058   2459065   2460052   2461021   2461950  
  6890.000000   2462819   2463613   2464349   2465061   2465798  
  6880.000000   2466593   2467457   2468365   2469279   2470156  
  6870.000000   2470978   2471750   2472503   2473268   2474069  
  6860.000000   2474901   2475744   2476562   2477329   2478030  
  6850.000000   2478674   2479279   2479867   2480452   2481039  
  6840.000000   2481618   2482170   2482669   2483089   2483406  
  6830.000000   2483616   2483731   2483794   2483862   2484010  
  6820.000000   2484291   2484739   2485339   2486044   2486779  
  6810.000000   2487474   2488068   2488534   2488863   2489063  
  6800.000000   2489140   2489096   2488933   2488663   2488313  
  6790.000000   2487930   2487563   2487256   2487023   2486856  
  6780.000000   2486719   2486579   2486408   2486204   2485973  
  6770.000000   2485735   2485495   2485251   2484991   2484705  
  6760.000000   2484396   2484084   2483790   2483530   2483293  
  6750.000000   2483045   2482737   2482331   2481814   2481214  
  6740.000000   2480589   2480009   2479524   2479156   2478879  
  6730.000000   2478642   2478382   2478046   2477603   2477048  
  6720.000000   2476392   2475659   2474870   2474056   2473243  
  6710.000000   2472464   2471745   2471107   2470546   2470047  
  6700.000000   2469574   2469091   2468562   2467971   2467303  
  6690.000000   2466558   2465730   2464816   2463814   2462732  
  6680.000000   2461586   2460410   2459233   2458080   2456956  
  6670.000000   2455853   2454747   2453618   2452454   2451260  
  6660.000000   2450045   2448821   2447589   2446349   2445091  
  6650.000000   2443817   2442534   2441263   2440019   2438809  
  6640.000000   2437617   2436419   2435181   2433886   2432528  
  6630.000000   2431121   2429678   2428202   2426679   2425085  
  6620.000000   2423398   2421630   2419820   2418048   2416392  
  6610.000000   2414912   2413616   2412453   2411329   2410139  
  6600.000000   2408796   2407261   2405547   2403702   2401796  
  6590.000000   2399889   2398030   2396250   2394566   2392989  
  6580.000000   2391524   2390164   2388894   2387687   2386515  
  6570.000000   2385356   2384200   2383042   2381877   2380684  
  6560.000000   2379430   2378066   2376561   2374913   2373173  
  6550.000000   2371433   2369805   2368383   2367208   2366256  
  6540.000000   2365444   2364663   2363813   2362840   2361742  
  6530.000000   2360561   2359356   2358178   2357052   2355974  
  6520.000000   2354922   2353870   2352800   2351706   2350591  
  6510.000000   2349458   2348310   2347153   2345992   2344841  
  6500.000000   2343719   2342644   2341623   2340657   2339732  
  6490.000000   2338833   2337948   2337076   2336217   2335373  
  6480.000000   2334536   2333683   2332782   2331801   2330716  
  6470.000000   2329524   2328240   2326892   2325518   2324154  
  6460.000000   2322834   2321585   2320428   2319374   2318422  
  6450.000000   2317556   2316744   2315951   2315146   2314310  
  6440.000000   2313449   2312579   2311722   2310889   2310082  
  6430.000000   2309288   2308501   2307725   2306988   2306327  
  6420.000000   2305775   2305337   2304981   2304642   2304247  
  6410.000000   2303738   2303105   2302380   2301633   2300940  
  6400.000000   2300354   2299887   2299512   2299182   2298853  
  6390.000000   2298501   2298129   2297755   2297397   2297057  
  6380.000000   2296717   2296344   2295905   2295382   2294772  
  6370.000000   2294093   2293369   2292626   2291887   2291175  
  6360.000000   2290513   2289926   2289429   2289022   2288677  
  6350.000000   2288341   2287947   2287434   2286764   2285940  
  6340.000000   2284995   2283992   2282994   2282055   2281206  
  6330.000000   2280462   2279817   2279259   2278762   2278294  
  6320.000000   2277804   2277242   2276552   2275709   2274712  
  6310.000000   2273601   2272433   2271272   2270154   2269084  
  6300.000000   2268026   2266932   2265748   2264452   2263043  
  6290.000000   2261554   2260019   2258473   2256926   2255377  
  6280.000000   2253805   2252199   2250547   2248853   2247120  
  6270.000000   2245360   2243574   2241770   2239948   2238120  
  6260.000000   2236293   2234485   2232699   2230938   2229192  
  6250.000000   2227451   2225700   2223929   2222126   2220281  
  6240.000000   2218383   2216427   2214413   2212361   2210305  
  6230.000000   2208289   2206352   2204512   2202751   2201026  
  6220.000000   2199275   2197446   2195514   2193495   2191437  
  6210.000000   2189407   2187459   2185619   2183875   2182182  
  6200.000000   2180488   2178747   2176941   2175074   2173171  
  6190.000000   2171264   2169380   2167534   2165734   2163982  
  6180.000000   2162283   2160642   2159063   2157547   2156087  
  6170.000000   2154668   2153275   2151892   2150510   2149125  
  6160.000000   2147739   2146347   2144945   2143523   2142071  
  6150.000000   2140587   2139079   2137565   2136077   2134647  
  6140.000000   2133305   2132064   2130917   2129834   2128766  
  6130.000000   2127655   2126454   2125133   2123697   2122182  
  6120.000000   2120655   2119184   2117833   2116628   2115568  
  6110.000000   2114612   2113708   2112802   2111863   2110883  
  6100.000000   2109882   2108893   2107954   2107087   2106306  
  6090.000000   2105604   2104974   2104396   2103865   2103367  
  6080.000000   2102905   2102470   2102068   2101691   2101344  
  6070.000000   2101021   2100729   2100461   2100232   2100044  
  6060.000000   2099920   2099875   2099941   2100134   2100476  
  6050.000000   2100966   2101605   2102377   2103277   2104288  
  6040.000000   2105411   2106629   2107936   2109299   2110694  
  6030.000000   2112082   2113448   2114778   2116096   2117424  
  6020.000000   2118803   2120253   2121792   2123410   2125097  
  6010.000000   2126826   2128586   2130362   2132158   2133968  
  6000.000000   2135800   2137648   2139523   2141424   2143368  
  5990.000000   2145361   2147419   2149540   2151725   2153963  
  5980.000000   2156253   2158594   2161000   2163479   2166045  
  5970.000000   2168686   2171391   2174125   2176867   2179598  
  5960.000000   2182325   2185061   2187833   2190654   2193533  
  5950.000000   2196456   2199411   2202382   2205372   2208390  
  5940.000000   2211456   2214581   2217766   2220995   2224240  
  5930.000000   2227478   2230691   2233878   2237048   2240211  
  5920.000000   2243368   2246505   2249600   2252629   2255572  
  5910.000000   2258426   2261195   2263890   2266517   2269076  
  5900.000000   2271565   2273987   2276353   2278696   2281052  
  5890.000000   2283463   2285950   2288521   2291151   2293809  
  5880.000000   2296450   2299039   2301545   2303952   2306248  
  5870.000000   2308427   2310493   2312458   2314346   2316194  
  5860.000000   2318042   2319927   2321871   2323883   2325957  
  5850.000000   2328086   2330262   2332489   2334773   2337116  
  5840.000000   2339515   2341951   2344400   2346839   2349259  
  5830.000000   2351665   2354076   2356511   2358976   2361460  
  5820.000000   2363927   2366337   2368647   2370839   2372906  
  5810.000000   2374872   2376755   2378586   2380370   2382118  
  5800.000000   2383811   2385456   2387032   2388556   2390008  
  5790.000000   2391400   2392695   2393880   2394887   2395667  
  5780.000000   2396131   2396213   2395832   2394957   2393582  
  5770.000000   2391765   2389599   2387222   2384765   2382352  
  5760.000000   2380055   2377919   2375938   2374110   2372419  
  5750.000000   2370875   2369485   2368264   2367205   2366286  
  5740.000000   2365473   2364722   2364013   2363330   2362692  
  5730.000000   2362107   2361596   2361154   2360775   2360437  
  5720.000000   2360133   2359855   2359615   2359420   2359280  
  5710.000000   2359188   2359136   2359104   2359086   2359075  
  5700.000000   2359075   2359087   2359105   2359113   2359092  
  5690.000000   2359030   2358928   2358811   2358707   2358654  
  5680.000000   2358660   2358722   2358800   2358848   2358807  
  5670.000000   2358634   2358287   2357746   2356985   2355996  
  5660.000000   2354774   2353337   2351720   2349989   2348210  
  5650.000000   2346455   2344766   2343167   2341644   2340182  
  5640.000000   2338755   2337357   2335991   2334673   2333413  
  5630.000000   2332215   2331074   2329980   2328931   2327927  
  5620.000000   2326983   2326104   2325292   2324525   2323775  
  5610.000000   2323004   2322191   2321327   2320432   2319533  
  5600.000000   2318664   2317846   2317086   2316378   2315707  
  5590.000000   2315058   2314415   2313767   2313098   2312392  
  5580.000000   2311630   2310802   2309907   2308958   2307977  
  5570.000000   2306989   2306005   2305027   2304037   2303017  
  5560.000000   2301950   2300833   2299675   2298499   2297325  
  5550.000000   2296174   2295053   2293967   2292913   2291890  
  5540.000000   2290895   2289925   2288968   2288013   2287046  
  5530.000000   2286059   2285055   2284045   2283047   2282077  
  5520.000000   2281138   2280226   2279326   2278424   2277507  
  5510.000000   2276573   2275620   2274646   2273639   2272585  
  5500.000000   2271467   2270281   2269038   2267767   2266501  
  5490.000000   2265270   2264074   2262902   2261715   2260485  
  5480.000000   2259187   2257824   2256410   2254976   2253536  
  5470.000000   2252099   2250652   2249179   2247663   2246098  
  5460.000000   2244481   2242816   2241100   2239328   2237493  
  5450.000000   2235597   2233658   2231709   2229789   2227930  
  5440.000000   2226141   2224408   2222700   2220986   2219252  
  5430.000000   2217498   2215749   2214025   2212348   2210714  
  5420.000000   2209127   2207581   2206102   2204715   2203472  
  5410.000000   2202391   2201486   2200720   2200059   2199453  
  5400.000000   2198894   2198384   2197969   2197679   2197556  
  5390.000000   2197591   2197779   2198079   2198486   2198989  
  5380.000000   2199619   2200387   2201323   2202404   2203621  
  5370.000000   2204921   2206300   2207728   2209240   2210838  
  5360.000000   2212574   2214444   2216494   2218716   2221177  
  5350.000000   2223898   2226976   2230439   2234368   2238736  
  5340.000000   2243570   2248798   2254435   2260421   2266799  
  5330.000000   2273524   2280652   2288131   2296013   2304249  
  5320.000000   2312926   2322033   2331698   2341923   2352830  
  5310.000000   2364382   2376650   2389553   2403144   2417351  
  5300.000000   2432257   2447831   2464191   2481329   2499362  
  5290.000000   2518256   2538070   2558697   2580105   2602128  
  5280.000000   2624713   2647739   2671243   2695220   2719789  
  5270.000000   2744973   2770808   2797180   2823939   2850864  
  5260.000000   2877775   2904559   2931197   2957748   2984260  
  5250.000000   3010761   3037141   3063258   3088851   3113761  
  5240.000000   3137808   3161025   3183419   3205170   3226335  
  5230.000000   3247057   3267276   3287003   3306059   3324400  
  5220.000000   3341868   3358506   3374266   3389296   3403607  
  5210.000000   3417348   3430470   3443026   3454869   3465990  
  5200.000000   3476250   3485706   3494318   3502232   3509457  
  5190.000000   3516127   3522199   3527736   3532645   3536972  
  5180.000000   3540649   3543760   3546278   3548298   3549785  
  5170.000000   3550808   3551319   3551386   3550978   3550178  
  5160.000000   3548960   3547382   3545384   3542983   3540111  
  5150.000000   3536802   3533041   3528916   3524455   3519751  
  5140.000000   3514813   3509691   3504361   3498854   3493158  
  5130.000000   3487324   3481362   3475329   3469231   3463099  
  5120.000000   3456926   3450730   3444506   3438273   3432027  
  5110.000000   3425769   3419479   3413140   3406734   3400266  
  5100.000000   3393755   3387242   3380769   3374372   3368061  
  5090.000000   3361827   3355644   3349489   3343343   3337210  
  5080.000000   3331101   3325037   3319025   3313067   3307149  
  5070.000000   3301253   3295359   3289455   3283531   3277582  
  5060.000000   3271595   3265558   3259451   3253265   3246993  
  5050.000000   3240648   3234247   3227818   3221378   3214942  
  5040.000000   3208508   3202072   3195625   3189164   3182694  
  5030.000000   3176222   3169762   3163326   3156928   3150578  
  5020.000000   3144294   3138087   3131982   3125988   3120126  
  5010.000000   3114393   3108801   3103336   3098010   3092810  
  5000.000000   3087759   3082850   3078112   3073535   3069151  
  4990.000000   3064950   3060971   3057210   3053713   3050474  
  4980.000000   3047532   3044863   3042488   3040369   3038527  
  4970.000000   3036934   3035627   3034592   3033875   3033452  
  4960.000000   3033356   3033547   3034049   3034822   3035902  
  4950.000000   3037263   3038954   3040949   3043290   3045942  
  4940.000000   3048937   3052240   3055889   3059856   3064182  
  4930.000000   3068834   3073841   3079153   3084787   3090695  
  4920.000000   3096899   3103366   3110130   3117165   3124500  
  4910.000000   3132104   3139993   3148135   3156537   3165172  
  4900.000000   3174033   3183084   3192297   3201621   3211013  
  4890.000000   3220427   3229822   3239171   3248444   3257624  
  4880.000000   3266674   3275573   3284269   3292737   3300918  
  4870.000000   3308797   3316326   3323505   3330303   3336742  
  4860.000000   3342805   3348527   3353896   3358950   3363675  
  4850.000000   3368106   3372235   3376106   3379724   3383151  
  4840.000000   3386401   3389534   3392556   3395500   3398350  
  4830.000000   3401120   3403785   3406355   3408819   3411193  
  4820.000000   3413477   3415693   3417842   3419942   3421992  
  4810.000000   3424003   3425970   3427894   3429765   3431581  
  4800.000000   3433336   3435038   3436698   3438343   3439992  
  4790.000000   3441672   3443393   3445159   3446954   3448766  
  4780.000000   3450568   3452348   3454085   3455773   3457390  
  4770.000000   3458929   3460365   3461690   3462885   3463956  
  4760.000000   3464900   3465737   3466467   3467106   3467644  
  4750.000000   3468085   3468408   3468619   3468703   3468676  
  4740.000000   3468534   3468300   3467972   3467568   3467083  
  4730.000000   3466526   3465888   3465172   3464370   3463481  
  4720.000000   3462501   3461440   3460308   3459126   3457921  
  4710.000000   3456719   3455546   3454417   3453342   3452324  
  4700.000000   3451368   3450477   3449665   3448950   3448353  
  4690.000000   3447890   3447572   3447393   3447339   3447378  
  4680.000000   3447479   3447597   3447701   3447750   3447726  
  4670.000000   3447606   3447398   3447104   3446763   3446407  
  4660.000000   3446091   3445859   3445768   3445852   3446146  
  4650.000000   3446658   3447392   3448329   3449445   3450705  
  4640.000000   3452077   3453530   3455046   3456616   3458238  
  4630.000000   3459910   3461627   3463370   3465108   3466800  
  4620.000000   3468402   3469876   3471193   3472339   3473312  
  4610.000000   3474124   3474785   3475322   3475752   3476107  
  4600.000000   3476407   3476686   3476956   3477235   3477512  
  4590.000000   3477782   3478009   3478174   3478242   3478201  
  4580.000000   3478030   3477735   3477313   3476782   3476151  
  4570.000000   3475447   3474681   3473878   3473043   3472183  
  4560.000000   3471284   3470339   3469326   3468240   3467079  
  4550.000000   3465854   3464580   3463274   3461946   3460599  
  4540.000000   3459234   3457846   3456447   3455049   3453686  
  4530.000000   3452382   3451176   3450076   3449109   3448263  
  4520.000000   3447562   3446993   3446597   3446368   3446362  
  4510.000000   3446571   3447052   3447794   3448866   3450264  
  4500.000000   3452080   3454321   3457088   3460375   3464264  
  4490.000000   3468728   3473831   3479533   3485899   3492895  
  4480.000000   3500588   3508938   3517999   3527715   3538114  
  4470.000000   3549120   3560739   3572878   3585521   3598564  
  4460.000000   3611971   3625633   3639503   3653483   3667532  
  4450.000000   3681579   3695603   3709571   3723487   3737355  
  4440.000000   3751189   3765009   3778809   3792598   3806334  
  4430.000000   3820003   3833528   3846888   3859991   3872822  
  4420.000000   3885288   3897386   3909023   3920201   3930825  
  4410.000000   3940890   3950296   3959035   3967014   3974241  
  4400.000000   3980651   3986294   3991155   3995330   3998852  
  4390.000000   4001848   4004382   4006589   4008542   4010363  
  4380.000000   4012116   4013896   4015753   4017757   4019947  
  4370.000000   4022378   4025083   4028091   4031420   4035064  
  4360.000000   4039012   4043234   4047697   4052371   4057215  
  4350.000000   4062212   4067311   4072510   4077764   4083094  
  4340.000000   4088470   4093914   4099354   4104701   4109718  
  4330.000000   4114105   4117450   4119366   4119523   4117799  
  4320.000000   4114281   4109334   4103474   4097330   4091452  
  4310.000000   4086288   4082045   4078783   4076370   4074647  
  4300.000000   4073411   4072530   4071903   4071484   4071246  
  4290.000000   4071155   4071193   4071320   4071533   4071820  
  4280.000000   4072203   4072695   4073311   4074057   4074918  
  4270.000000   4075892   4076943   4078046   4079115   4080036  
  4260.000000   4080615   4080639   4079868   4078125   4075318  
  4250.000000   4071500   4066844   4061645   4056221   4050905  
  4240.000000   4045932   4041463   4037525   4034084   4031025  
  4230.000000   4028234   4025590   4023002   4020407   4017764  
  4220.000000   4015071   4012324   4009571   4006840   4004212  
  4210.000000   4001736   3999490   3997507   3995828   3994441  
  4200.000000   3993341   3992477   3991823   3991316   3990936  
  4190.000000   3990627   3990388   3990178   3990017   3989880  
  4180.000000   3989811   3989803   3989924   3990191   3990689  
  4170.000000   3991447   3992558   3994045   3995987   3998385  
  4160.000000   4001292   4004680   4008585   4012962   4017842  
  4150.000000   4023176   4028998   4035255   4041980   4049116  
  4140.000000   4056705   4064694   4073134   4081985   4091302  
  4130.000000   4101043   4111253   4121885   4132971   4144466  
  4120.000000   4156405   4168752   4181546   4194761   4208429  
  4110.000000   4222521   4237053   4251979   4267281   4282881  
  4100.000000   4298727   4314718   4330797   4346890   4362980  
  4090.000000   4379060   4395160   4411320   4427576   4443962  
  4080.000000   4460481   4477141   4493906   4510762   4527634  
  4070.000000   4544484   4561201   4577731   4593956   4609844  
  4060.000000   4625311   4640370   4654961   4669121   4682784  
  4050.000000   4695989   4708667   4720880   4732568   4743803  
  4040.000000   4754500   4764697   4774262   4783208   4791402  
  4030.000000   4798890   4805582   4811548   4816711   4821106  
  4020.000000   4824606   4827234   4828937   4829795   4829783  
  4010.000000   4829077   4827786   4825981   4823493   4820405  
  4000.000000   4817008  
##END= 
