##TITLE= Sample 028 By ssteindl date Dienstag, November 20 2018
##JCAMP-DX= 4.24
##DATA TYPE= INFRARED SPECTRUM
##ORIGIN= Exported PE Spectrum Data File
##OWNER= Sandra Steindl
##DATE= 18/11/20
##TIME= 14:53:12.00
##SPECTROMETER/DATA SYSTEM= PERKIN-ELMER Frontier FT-IR/NIR IR
##INSTRUMENT PARAMETERS=
  APODIZATION=stark
  DETECTOR=INGAAS
##RESOLUTION= 16.000000
##DELTAX= -2.000000
##XUNITS= 1/CM
##YUNITS= A
##XFACTOR= 1.00
##YFACTOR= 0.00000011920928955078
##FIRSTX= 10000.00
##LASTX= 4000.00
##NPOINTS= 3001
##FIRSTY= 0.200589
##MAXY= 0.606687
##MINY= 0.176738
##XYDATA= (X++(Y..Y))
 10000.000000   1682665   1680543   1678580   1676918   1675527  
  9990.000000   1674258   1673046   1672053   1671540   1671900  
  9980.000000   1673501   1676602   1681197   1686967   1693354  
  9970.000000   1699586   1704811   1708171   1708954   1706737  
  9960.000000   1701553   1694013   1685272   1676868   1670317  
  9950.000000   1666736   1666445   1668899   1672796   1676508  
  9940.000000   1678525   1677899   1674460   1668778   1661957  
  9930.000000   1655235   1649692   1645972   1644260   1644334  
  9920.000000   1645759   1648057   1650833   1653848   1656951  
  9910.000000   1660077   1663106   1665858   1668060   1669346  
  9900.000000   1669432   1668117   1665530   1662015   1658156  
  9890.000000   1654507   1651437   1648993   1646945   1644979  
  9880.000000   1642919   1640927   1639476   1639235   1640696  
  9870.000000   1643993   1648656   1653837   1658539   1662085  
  9860.000000   1664341   1665738   1667003   1668724   1671010  
  9850.000000   1673327   1674703   1674108   1670904   1665122  
  9840.000000   1657460   1649062   1641090   1634446   1629513  
  9830.000000   1626288   1624456   1623663   1623539   1623758  
  9820.000000   1623940   1623683   1622620   1620581   1617724  
  9810.000000   1614520   1611657   1609692   1608913   1609084  
  9800.000000   1609671   1609959   1609464   1608036   1605960  
  9790.000000   1603733   1601865   1600640   1600083   1600046  
  9780.000000   1600425   1601286   1602889   1605526   1609311  
  9770.000000   1614026   1619100   1623806   1627483   1629787  
  9760.000000   1630797   1630915   1630732   1630709   1631074  
  9750.000000   1631685   1632170   1632056   1630977   1628819  
  9740.000000   1625744   1622228   1618883   1616453   1615515  
  9730.000000   1616502   1619414   1623927   1629333   1634776  
  9720.000000   1639436   1642704   1644305   1644218   1642598  
  9710.000000   1639569   1635221   1629568   1622783   1615281  
  9700.000000   1607841   1601460   1597069   1595236   1595887  
  9690.000000   1598367   1601648   1604746   1607061   1608523  
  9680.000000   1609515   1610572   1612086   1614104   1616347  
  9670.000000   1618415   1620045   1621285   1622488   1624104  
  9660.000000   1626401   1629271   1632152   1634244   1634732  
  9650.000000   1633124   1629364   1623863   1617333   1610589  
  9640.000000   1604366   1599208   1595411   1593028   1591831  
  9630.000000   1591378   1591033   1590181   1588376   1585597  
  9620.000000   1582259   1579165   1577205   1577020   1578752  
  9610.000000   1581882   1585475   1588369   1589686   1588945  
  9600.000000   1586265   1582112   1577177   1572077   1567325  
  9590.000000   1563304   1560367   1558899   1559221   1561527  
  9580.000000   1565658   1571160   1577282   1583268   1588500  
  9570.000000   1592669   1595746   1597822   1598993   1599165  
  9560.000000   1598170   1595803   1592084   1587315   1582063  
  9550.000000   1577020   1572715   1569453   1567179   1565735  
  9540.000000   1564915   1564684   1565104   1566238   1567992  
  9530.000000   1569965   1571537   1571981   1570799   1567877  
  9520.000000   1563645   1558917   1554718   1551934   1551137  
  9510.000000   1552448   1555584   1559979   1564903   1569607  
  9500.000000   1573396   1575751   1576415   1575507   1573523  
  9490.000000   1571261   1569588   1569158   1570178   1572326  
  9480.000000   1574873   1576958   1577871   1577325   1575450  
  9470.000000   1572733   1569702   1566742   1563960   1561261  
  9460.000000   1558541   1555811   1553296   1551284   1549990  
  9450.000000   1549382   1549147   1548820   1547978   1546484  
  9440.000000   1544594   1542902   1542133   1542817   1545088  
  9430.000000   1548580   1552593   1556302   1559051   1560473  
  9420.000000   1560591   1559689   1558239   1556711   1555498  
  9410.000000   1554839   1554804   1555340   1556248   1557304  
  9400.000000   1558226   1558860   1559144   1559252   1559473  
  9390.000000   1560114   1561324   1562915   1564401   1565046  
  9380.000000   1564134   1561159   1556044   1549241   1541689  
  9370.000000   1534656   1529401   1526888   1527495   1530972  
  9360.000000   1536457   1542723   1548409   1552366   1553924  
  9350.000000   1553035   1550279   1546597   1543055   1540467  
  9340.000000   1539266   1539369   1540307   1541410   1542065  
  9330.000000   1541983   1541212   1540146   1539234   1538872  
  9320.000000   1539188   1540067   1541157   1541989   1542127  
  9310.000000   1541263   1539317   1536419   1532871   1529056  
  9300.000000   1525362   1522104   1519481   1517524   1516142  
  9290.000000   1515132   1514288   1513432   1512483   1511447  
  9280.000000   1510416   1509527   1508943   1508807   1509247  
  9270.000000   1510336   1512095   1514445   1517197   1520058  
  9260.000000   1522687   1524781   1526172   1526851   1526976  
  9250.000000   1526765   1526406   1525937   1525242   1524108  
  9240.000000   1522375   1520047   1517355   1514728   1512665  
  9230.000000   1511558   1511538   1512441   1513863   1515335  
  9220.000000   1516440   1516973   1516958   1516665   1516487  
  9210.000000   1516822   1517949   1519960   1522745   1525937  
  9200.000000   1528990   1531222   1532066   1531177   1528591  
  9190.000000   1524717   1520257   1516052   1512816   1511002  
  9180.000000   1510665   1511608   1513478   1515986   1518894  
  9170.000000   1522049   1525225   1528088   1530150   1530881  
  9160.000000   1529931   1527294   1523452   1519171   1515311  
  9150.000000   1512478   1510884   1510271   1510053   1509634  
  9140.000000   1508650   1507147   1505459   1504089   1503449  
  9130.000000   1503728   1504835   1506467   1508293   1510004  
  9120.000000   1511392   1512265   1512451   1511781   1510204  
  9110.000000   1507870   1505203   1502829   1501407   1501372  
  9100.000000   1502734   1505052   1507551   1509448   1510207  
  9090.000000   1509781   1508547   1507158   1506214   1506036  
  9080.000000   1506568   1507430   1508147   1508313   1507749  
  9070.000000   1506465   1504587   1502247   1499551   1496607  
  9060.000000   1493613   1490907   1488939   1488110   1488581  
  9050.000000   1490153   1492276   1494249   1495463   1495670  
  9040.000000   1495090   1494309   1494047   1494802   1496665  
  9030.000000   1499227   1501772   1503520   1503940   1502924  
  9020.000000   1500831   1498330   1496150   1494867   1494724  
  9010.000000   1495630   1497211   1498962   1500407   1501207  
  9000.000000   1501241   1500595   1499507   1498299   1497249  
  8990.000000   1496558   1496264   1496311   1496580   1496999  
  8980.000000   1497573   1498395   1499566   1501091   1502789  
  8970.000000   1504254   1504974   1504457   1502465   1499095  
  8960.000000   1494829   1490379   1486507   1483812   1482581  
  8950.000000   1482792   1484160   1486317   1488890   1491601  
  8940.000000   1494214   1496538   1498378   1499563   1500011  
  8930.000000   1499766   1499060   1498197   1497515   1497169  
  8920.000000   1497145   1497192   1496998   1496279   1494940  
  8910.000000   1493120   1491170   1489529   1488578   1488563  
  8900.000000   1489558   1491506   1494260   1497654   1501502  
  8890.000000   1505602   1509669   1513391   1516461   1518685  
  8880.000000   1520043   1520696   1520965   1521154   1521470  
  8870.000000   1521868   1522096   1521759   1520485   1518113  
  8860.000000   1514768   1510924   1507233   1504418   1503010  
  8850.000000   1503293   1505178   1508281   1511982   1515602  
  8840.000000   1518555   1520439   1521122   1520700   1519507  
  8830.000000   1517952   1516466   1515332   1514710   1514560  
  8820.000000   1514759   1515128   1515544   1515986   1516521  
  8810.000000   1517292   1518409   1519935   1521824   1523972  
  8800.000000   1526235   1528499   1530708   1532843   1534905  
  8790.000000   1536841   1538560   1539890   1540682   1540810  
  8780.000000   1540281   1539205   1537796   1536301   1534939  
  8770.000000   1533903   1533318   1533324   1534028   1535558  
  8760.000000   1537961   1541180   1544962   1548879   1552396  
  8750.000000   1554992   1556331   1556332   1555237   1553485  
  8740.000000   1551626   1550114   1549230   1549018   1549352  
  8730.000000   1550032   1550888   1551850   1552924   1554163  
  8720.000000   1555588   1557165   1558811   1560425   1561951  
  8710.000000   1563377   1564750   1566115   1567510   1568929  
  8700.000000   1570367   1571827   1573369   1575082   1577045  
  8690.000000   1579259   1581611   1583885   1585839   1587307  
  8680.000000   1588280   1588936   1589560   1590463   1591819  
  8670.000000   1593637   1595743   1597890   1599868   1601591  
  8660.000000   1603105   1604508   1605852   1607041   1607852  
  8650.000000   1608015   1607380   1606018   1604270   1602659  
  8640.000000   1601731   1601875   1603173   1605426   1608230  
  8630.000000   1611174   1613962   1616484   1618789   1620960  
  8620.000000   1623034   1624907   1626399   1627311   1627581  
  8610.000000   1627325   1626847   1626551   1626807   1627856  
  8600.000000   1629724   1632265   1635188   1638173   1640911  
  8590.000000   1643162   1644778   1645702   1645983   1645762  
  8580.000000   1645279   1644814   1644641   1644936   1645738  
  8570.000000   1646937   1648331   1649713   1650943   1652011  
  8560.000000   1652994   1654031   1655214   1656564   1658013  
  8550.000000   1659452   1660815   1662101   1663400   1664816  
  8540.000000   1666412   1668122   1669753   1671048   1671797  
  8530.000000   1671942   1671636   1671218   1671118   1671705  
  8520.000000   1673141   1675337   1677964   1680585   1682785  
  8510.000000   1684328   1685212   1685666   1686036   1686664  
  8500.000000   1687751   1689297   1691111   1692869   1694243  
  8490.000000   1694988   1695032   1694461   1693480   1692353  
  8480.000000   1691333   1690624   1690353   1690592   1691379  
  8470.000000   1692712   1694535   1696733   1699115   1701458  
  8460.000000   1703538   1705211   1706454   1707375   1708181  
  8450.000000   1709089   1710263   1711724   1713368   1714985  
  8440.000000   1716363   1717355   1717916   1718117   1718086  
  8430.000000   1717970   1717873   1717863   1717988   1718304  
  8420.000000   1718877   1719769   1720990   1722465   1724003  
  8410.000000   1725379   1726379   1726933   1727128   1727224  
  8400.000000   1727551   1728398   1729873   1731843   1733952  
  8390.000000   1735724   1736730   1736696   1735602   1733664  
  8380.000000   1731276   1728882   1726852   1725419   1724638  
  8370.000000   1724449   1724701   1725249   1725978   1726848  
  8360.000000   1727858   1729034   1730363   1731783   1733159  
  8350.000000   1734301   1735019   1735162   1734701   1733741  
  8340.000000   1732534   1731392   1730614   1730382   1730712  
  8330.000000   1731428   1732207   1732691   1732602   1731849  
  8320.000000   1730549   1729007   1727613   1726760   1726706  
  8310.000000   1727528   1729093   1731117   1733253   1735174  
  8300.000000   1736637   1737521   1737821   1737630   1737074  
  8290.000000   1736289   1735385   1734455   1733580   1732848  
  8280.000000   1732338   1732112   1732165   1732426   1732726  
  8270.000000   1732850   1732566   1731721   1730285   1728399  
  8260.000000   1726331   1724418   1722959   1722150   1722022  
  8250.000000   1722461   1723227   1724051   1724683   1724960  
  8240.000000   1724804   1724230   1723304   1722128   1720817  
  8230.000000   1719475   1718181   1716967   1715811   1714651  
  8220.000000   1713401   1712005   1710448   1708811   1707229  
  8210.000000   1705886   1704920   1704388   1704219   1704242  
  8200.000000   1704231   1703982   1703369   1702374   1701079  
  8190.000000   1699622   1698149   1696766   1695519   1694405  
  8180.000000   1693386   1692420   1691466   1690505   1689519  
  8170.000000   1688520   1687521   1686568   1685698   1684944  
  8160.000000   1684290   1683674   1682983   1682088   1680880  
  8150.000000   1679318   1677445   1675383   1673291   1671311  
  8140.000000   1669522   1667926   1666466   1665058   1663635  
  8130.000000   1662160   1660635   1659075   1657492   1655888  
  8120.000000   1654271   1652670   1651158   1649834   1648799  
  8110.000000   1648098   1647695   1647461   1647225   1646814  
  8100.000000   1646142   1645218   1644158   1643111   1642210  
  8090.000000   1641499   1640932   1640404   1639819   1639156  
  8080.000000   1638483   1637945   1637679   1637761   1638132  
  8070.000000   1638622   1638984   1638986   1638481   1637446  
  8060.000000   1635987   1634278   1632508   1630812   1629252  
  8050.000000   1627817   1626456   1625122   1623787   1622466  
  8040.000000   1621189   1620008   1618957   1618060   1617319  
  8030.000000   1616716   1616216   1615757   1615267   1614659  
  8020.000000   1613871   1612875   1611719   1610513   1609423  
  8010.000000   1608621   1608232   1608290   1608718   1609344  
  8000.000000   1609955   1610348   1610402   1610083   1609464  
  7990.000000   1608657   1607793   1606954   1606173   1605439  
  7980.000000   1604725   1604035   1603413   1602958   1602773  
  7970.000000   1602947   1603490   1604329   1605307   1606214  
  7960.000000   1606833   1606978   1606544   1605504   1603935  
  7950.000000   1601987   1599875   1597835   1596096   1594828  
  7940.000000   1594117   1593937   1594157   1594577   1594978  
  7930.000000   1595187   1595127   1594831   1594430   1594093  
  7920.000000   1593977   1594160   1594628   1595284   1595989  
  7910.000000   1596616   1597085   1597381   1597540   1597614  
  7900.000000   1597641   1597612   1597479   1597155   1596564  
  7890.000000   1595657   1594443   1593007   1591491   1590092  
  7880.000000   1589011   1588429   1588450   1589081   1590212  
  7870.000000   1591636   1593088   1594301   1595075   1595322  
  7860.000000   1595082   1594501   1593792   1593157   1592753  
  7850.000000   1592639   1592790   1593102   1593438   1593653  
  7840.000000   1593630   1593303   1592659   1591761   1590720  
  7830.000000   1589694   1588838   1588285   1588090   1588232  
  7820.000000   1588599   1589042   1589405   1589584   1589546  
  7810.000000   1589324   1588985   1588585   1588135   1587594  
  7800.000000   1586891   1585965   1584816   1583520   1582216  
  7790.000000   1581073   1580220   1579715   1579512   1579492  
  7780.000000   1579496   1579382   1579065   1578524   1577801  
  7770.000000   1576963   1576083   1575210   1574376   1573596  
  7760.000000   1572882   1572251   1571721   1571308   1571016  
  7750.000000   1570834   1570735   1570683   1570637   1570563  
  7740.000000   1570425   1570199   1569873   1569449   1568954  
  7730.000000   1568426   1567915   1567458   1567063   1566696  
  7720.000000   1566287   1565752   1565030   1564107   1563033  
  7710.000000   1561913   1560870   1560008   1559372   1558944  
  7700.000000   1558651   1558407   1558151   1557871   1557610  
  7690.000000   1557432   1557386   1557472   1557625   1557737  
  7680.000000   1557702   1557450   1556992   1556397   1555775  
  7670.000000   1555216   1554756   1554365   1553970   1553495  
  7660.000000   1552914   1552270   1551672   1551243   1551069  
  7650.000000   1551154   1551406   1551675   1551804   1551697  
  7640.000000   1551356   1550882   1550437   1550182   1550217  
  7630.000000   1550547   1551087   1551694   1552230   1552594  
  7620.000000   1552757   1552744   1552615   1552429   1552232  
  7610.000000   1552037   1551855   1551685   1551547   1551465  
  7600.000000   1551472   1551592   1551836   1552203   1552684  
  7590.000000   1553271   1553955   1554733   1555589   1556498  
  7580.000000   1557421   1558312   1559131   1559851   1560464  
  7570.000000   1560970   1561372   1561655   1561798   1561775  
  7560.000000   1561580   1561236   1560812   1560403   1560116  
  7550.000000   1560036   1560205   1560607   1561188   1561874  
  7540.000000   1562611   1563373   1564181   1565073   1566096  
  7530.000000   1567272   1568591   1570004   1571455   1572884  
  7520.000000   1574264   1575591   1576893   1578190   1579497  
  7510.000000   1580796   1582054   1583221   1584269   1585190  
  7500.000000   1586020   1586815   1587650   1588581   1589648  
  7490.000000   1590856   1592191   1593631   1595160   1596776  
  7480.000000   1598489   1600318   1602273   1604348   1606519  
  7470.000000   1608734   1610932   1613035   1614980   1616708  
  7460.000000   1618198   1619452   1620524   1621496   1622484  
  7450.000000   1623594   1624913   1626479   1628279   1630253  
  7440.000000   1632316   1634391   1636426   1638417   1640393  
  7430.000000   1642403   1644499   1646710   1649049   1651494  
  7420.000000   1654020   1656579   1659125   1661595   1663928  
  7410.000000   1666063   1667967   1669647   1671171   1672652  
  7400.000000   1674228   1676019   1678088   1680424   1682936  
  7390.000000   1685498   1687985   1690320   1692486   1694534  
  7380.000000   1696536   1698564   1700652   1702791   1704943  
  7370.000000   1707063   1709117   1711092   1712993   1714824  
  7360.000000   1716584   1718266   1719867   1721405   1722918  
  7350.000000   1724463   1726091   1727825   1729640   1731476  
  7340.000000   1733259   1734946   1736540   1738102   1739719  
  7330.000000   1741474   1743402   1745474   1747601   1749676  
  7320.000000   1751610   1753369   1754979   1756510   1758042  
  7310.000000   1759634   1761293   1762983   1764637   1766200  
  7300.000000   1767639   1768968   1770230   1771490   1772796  
  7290.000000   1774182   1775637   1777127   1778589   1779958  
  7280.000000   1781172   1782189   1782997   1783616   1784100  
  7270.000000   1784526   1784973   1785502   1786150   1786914  
  7260.000000   1787764   1788657   1789562   1790464   1791386  
  7250.000000   1792369   1793471   1794735   1796197   1797841  
  7240.000000   1799641   1801521   1803417   1805244   1806963  
  7230.000000   1808549   1810047   1811521   1813088   1814846  
  7220.000000   1816891   1819256   1821934   1824853   1827922  
  7210.000000   1831039   1834137   1837181   1840186   1843183  
  7200.000000   1846221   1849327   1852522   1855791   1859125  
  7190.000000   1862484   1865844   1869151   1872368   1875444  
  7180.000000   1878356   1881106   1883748   1886369   1889096  
  7170.000000   1892036   1895281   1898842   1902685   1906708  
  7160.000000   1910808   1914883   1918893   1922839   1926790  
  7150.000000   1930829   1935072   1939590   1944442   1949604  
  7140.000000   1955019   1960557   1966092   1971487   1976678  
  7130.000000   1981650   1986493   1991332   1996348   2001679  
  7120.000000   2007423   2013563   2020017   2026621   2033215  
  7110.000000   2039659   2045899   2051950   2057906   2063887  
  7100.000000   2070029   2076424   2083132   2090131   2097357  
  7090.000000   2104688   2111994   2119145   2126053   2132685  
  7080.000000   2139081   2145335   2151582   2157947   2164529  
  7070.000000   2171361   2178424   2185641   2192916   2200151  
  7060.000000   2207277   2214251   2221068   2227751   2234348  
  7050.000000   2240921   2247534   2254239   2261060   2267989  
  7040.000000   2274977   2281965   2288884   2295704   2302419  
  7030.000000   2309064   2315679   2322297   2328910   2335472  
  7020.000000   2341905   2348136   2354106   2359809   2365262  
  7010.000000   2370525   2375649   2380698   2385712   2390753  
  7000.000000   2395863   2401103   2406491   2412026   2417631  
  6990.000000   2423196   2428566   2433615   2438251   2442474  
  6980.000000   2446335   2449942   2453394   2456781   2460138  
  6970.000000   2463488   2466819   2470148   2473475   2476822  
  6960.000000   2480171   2483507   2486763   2489892   2492840  
  6950.000000   2495603   2498195   2500665   2503045   2505359  
  6940.000000   2507591   2509724   2511727   2513606   2515380  
  6930.000000   2517103   2518824   2520590   2522409   2524275  
  6920.000000   2526147   2527984   2529728   2531342   2532787  
  6910.000000   2534053   2535150   2536123   2537043   2537998  
  6900.000000   2539062   2540278   2541627   2543046   2544431  
  6890.000000   2545688   2546754   2547631   2548366   2549046  
  6880.000000   2549750   2550529   2551389   2552302   2553217  
  6870.000000   2554087   2554875   2555568   2556167   2556688  
  6860.000000   2557148   2557583   2558031   2558538   2559136  
  6850.000000   2559836   2560611   2561401   2562133   2562741  
  6840.000000   2563192   2563502   2563724   2563934   2564197  
  6830.000000   2564555   2565015   2565563   2566173   2566833  
  6820.000000   2567527   2568256   2569002   2569748   2570460  
  6810.000000   2571110   2571675   2572151   2572535   2572821  
  6800.000000   2572982   2572979   2572768   2572334   2571703  
  6790.000000   2570958   2570209   2569578   2569143   2568935  
  6780.000000   2568911   2568998   2569100   2569145   2569080  
  6770.000000   2568889   2568563   2568101   2567499   2566758  
  6760.000000   2565898   2564961   2564012   2563111   2562302  
  6750.000000   2561591   2560952   2560346   2559740   2559136  
  6740.000000   2558566   2558089   2557755   2557588   2557566  
  6730.000000   2557629   2557698   2557694   2557566   2557290  
  6720.000000   2556870   2556323   2555673   2554943   2554156  
  6710.000000   2553340   2552520   2551722   2550957   2550227  
  6700.000000   2549509   2548787   2548039   2547265   2546472  
  6690.000000   2545679   2544895   2544124   2543349   2542554  
  6680.000000   2541720   2540842   2539922   2538971   2537990  
  6670.000000   2536977   2535920   2534814   2533661   2532488  
  6660.000000   2531322   2530197   2529115   2528058   2526977  
  6650.000000   2525819   2524539   2523128   2521611   2520039  
  6640.000000   2518471   2516949   2515488   2514071   2512662  
  6630.000000   2511218   2509707   2508114   2506443   2504720  
  6620.000000   2502980   2501271   2499636   2498119   2496736  
  6610.000000   2495480   2494306   2493143   2491902   2490508  
  6600.000000   2488912   2487110   2485136   2483054   2480932  
  6590.000000   2478830   2476787   2474825   2472953   2471178  
  6580.000000   2469500   2467920   2466424   2464990   2463586  
  6570.000000   2462185   2460769   2459337   2457904   2456483  
  6560.000000   2455082   2453687   2452274   2450811   2449284  
  6550.000000   2447698   2446092   2444517   2443028   2441665  
  6540.000000   2440438   2439333   2438316   2437342   2436373  
  6530.000000   2435376   2434330   2433218   2432032   2430767  
  6520.000000   2429436   2428060   2426678   2425334   2424073  
  6510.000000   2422929   2421921   2421042   2420265   2419547  
  6500.000000   2418832   2418064   2417196   2416199   2415072  
  6490.000000   2413842   2412559   2411281   2410061   2408925  
  6480.000000   2407873   2406874   2405887   2404871   2403799  
  6470.000000   2402674   2401511   2400342   2399196   2398098  
  6460.000000   2397063   2396096   2395192   2394332   2393481  
  6450.000000   2392592   2391610   2390493   2389232   2387862  
  6440.000000   2386462   2385136   2383985   2383064   2382373  
  6430.000000   2381839   2381360   2380823   2380158   2379347  
  6420.000000   2378437   2377501   2376623   2375856   2375221  
  6410.000000   2374705   2374282   2373928   2373630   2373384  
  6400.000000   2373181   2373003   2372812   2372568   2372235  
  6390.000000   2371799   2371272   2370687   2370086   2369501  
  6380.000000   2368948   2368424   2367912   2367394   2366856  
  6370.000000   2366299   2365726   2365152   2364584   2364032  
  6360.000000   2363500   2362993   2362510   2362047   2361591  
  6350.000000   2361124   2360622   2360067   2359446   2358762  
  6340.000000   2358026   2357259   2356478   2355698   2354923  
  6330.000000   2354159   2353403   2352656   2351909   2351157  
  6320.000000   2350375   2349543   2348634   2347637   2346549  
  6310.000000   2345387   2344171   2342928   2341664   2340380  
  6300.000000   2339061   2337700   2336293   2334856   2333407  
  6290.000000   2331973   2330557   2329156   2327740   2326281  
  6280.000000   2324747   2323131   2321437   2319690   2317916  
  6270.000000   2316144   2314386   2312649   2310922   2309193  
  6260.000000   2307438   2305635   2303760   2301799   2299748  
  6250.000000   2297627   2295466   2293316   2291216   2289199  
  6240.000000   2287265   2285396   2283554   2281700   2279808  
  6230.000000   2277873   2275901   2273912   2271919   2269922  
  6220.000000   2267908   2265860   2263760   2261606   2259409  
  6210.000000   2257193   2254989   2252823   2250715   2248669  
  6200.000000   2246683   2244742   2242832   2240932   2239028  
  6190.000000   2237112   2235191   2233283   2231420   2229636  
  6180.000000   2227961   2226407   2224969   2223619   2222326  
  6170.000000   2221054   2219779   2218483   2217155   2215783  
  6160.000000   2214355   2212853   2211270   2209610   2207898  
  6150.000000   2206175   2204487   2202870   2201341   2199889  
  6140.000000   2198486   2197101   2195712   2194315   2192927  
  6130.000000   2191569   2190263   2189012   2187807   2186621  
  6120.000000   2185431   2184218   2182983   2181735   2180497  
  6110.000000   2179287   2178125   2177020   2175979   2175001  
  6100.000000   2174091   2173244   2172462   2171736   2171061  
  6090.000000   2170418   2169801   2169194   2168598   2168008  
  6080.000000   2167443   2166917   2166466   2166113   2165891  
  6070.000000   2165808   2165864   2166027   2166266   2166532  
  6060.000000   2166801   2167057   2167322   2167620   2168000  
  6050.000000   2168487   2169106   2169848   2170707   2171659  
  6040.000000   2172703   2173832   2175062   2176391   2177832  
  6030.000000   2179369   2180994   2182686   2184440   2186248  
  6020.000000   2188119   2190051   2192050   2194103   2196206  
  6010.000000   2198338   2200498   2202675   2204873   2207082  
  6000.000000   2209299   2211504   2213686   2215830   2217946  
  5990.000000   2220047   2222169   2224344   2226608   2228974  
  5980.000000   2231454   2234037   2236722   2239495   2242358  
  5970.000000   2245300   2248320   2251401   2254532   2257690  
  5960.000000   2260871   2264063   2267274   2270500   2273750  
  5950.000000   2277012   2280284   2283556   2286833   2290126  
  5940.000000   2293463   2296873   2300386   2304015   2307758  
  5930.000000   2311596   2315494   2319415   2323318   2327170  
  5920.000000   2330945   2334624   2338193   2341648   2344992  
  5910.000000   2348232   2351384   2354462   2357477   2360441  
  5900.000000   2363356   2366229   2369064   2371880   2374691  
  5890.000000   2377524   2380392   2383313   2386280   2389286  
  5880.000000   2392302   2395298   2398234   2401071   2403774  
  5870.000000   2406320   2408702   2410932   2413041   2415070  
  5860.000000   2417065   2419066   2421098   2423175   2425300  
  5850.000000   2427477   2429711   2432012   2434390   2436854  
  5840.000000   2439397   2442002   2444642   2447288   2449920  
  5830.000000   2452525   2455106   2457671   2460227   2462778  
  5820.000000   2465317   2467832   2470305   2472721   2475058  
  5810.000000   2477309   2479455   2481500   2483430   2485269  
  5800.000000   2487017   2488713   2490359   2491984   2493566  
  5790.000000   2495100   2496529   2497815   2498879   2499662  
  5780.000000   2500073   2500049   2499513   2498442   2496832  
  5770.000000   2494752   2492304   2489644   2486920   2484280  
  5760.000000   2481814   2479578   2477568   2475770   2474145  
  5750.000000   2472673   2471333   2470116   2469014   2468012  
  5740.000000   2467097   2466246   2465455   2464708   2464009  
  5730.000000   2463343   2462712   2462097   2461501   2460919  
  5720.000000   2460371   2459870   2459439   2459077   2458777  
  5710.000000   2458511   2458258   2458003   2457752   2457530  
  5700.000000   2457365   2457277   2457262   2457295   2457331  
  5690.000000   2457331   2457269   2457149   2456989   2456823  
  5680.000000   2456671   2456545   2456423   2456280   2456071  
  5670.000000   2455759   2455299   2454658   2453797   2452697  
  5660.000000   2451349   2449779   2448031   2446184   2444311  
  5650.000000   2442480   2440721   2439037   2437400   2435782  
  5640.000000   2434160   2432538   2430936   2429386   2427914  
  5630.000000   2426534   2425243   2424033   2422894   2421821  
  5620.000000   2420817   2419876   2418991   2418139   2417302  
  5610.000000   2416459   2415612   2414773   2413964   2413201  
  5600.000000   2412483   2411785   2411071   2410302   2409453  
  5590.000000   2408525   2407540   2406533   2405531   2404550  
  5580.000000   2403586   2402629   2401665   2400692   2399710  
  5570.000000   2398726   2397738   2396738   2395709   2394639  
  5560.000000   2393524   2392374   2391209   2390052   2388911  
  5550.000000   2387785   2386657   2385511   2384341   2383157  
  5540.000000   2381982   2380845   2379760   2378725   2377720  
  5530.000000   2376717   2375691   2374635   2373558   2372480  
  5520.000000   2371422   2370395   2369394   2368406   2367407  
  5510.000000   2366381   2365312   2364196   2363027   2361807  
  5500.000000   2360537   2359233   2357912   2356606   2355334  
  5490.000000   2354110   2352918   2351730   2350498   2349187  
  5480.000000   2347774   2346262   2344669   2343026   2341351  
  5470.000000   2339653   2337924   2336156   2334340   2332486  
  5460.000000   2330601   2328698   2326774   2324819   2322809  
  5450.000000   2320731   2318585   2316394   2314197   2312037  
  5440.000000   2309943   2307925   2305979   2304087   2302243  
  5430.000000   2300438   2298680   2296960   2295270   2293581  
  5420.000000   2291882   2290166   2288470   2286847   2285379  
  5410.000000   2284120   2283101   2282294   2281658   2281124  
  5400.000000   2280663   2280253   2279921   2279682   2279568  
  5390.000000   2279564   2279664   2279831   2280070   2280384  
  5380.000000   2280831   2281445   2282282   2283332   2284592  
  5370.000000   2285996   2287517   2289099   2290757   2292476  
  5360.000000   2294310   2296263   2298401   2300733   2303343  
  5350.000000   2306248   2309543   2313233   2317383   2321948  
  5340.000000   2326953   2332329   2338115   2344267   2350856  
  5330.000000   2357850   2365316   2373196   2381540   2390289  
  5320.000000   2399525   2409236   2419558   2430501   2442199  
  5310.000000   2454617   2467830   2481743   2496403   2511721  
  5300.000000   2527779   2544542   2562142   2580579   2599988  
  5290.000000   2620335   2641677   2663890   2686921   2710580  
  5280.000000   2734798   2759449   2784576   2810190   2836422  
  5270.000000   2863309   2890884   2919026   2947564   2976261  
  5260.000000   3004918   3033423   3061754   3089979   3118147  
  5250.000000   3146290   3174287   3201993   3229132   3255546  
  5240.000000   3281049   3305681   3329449   3352540   3375000  
  5230.000000   3396973   3418383   3439231   3459322   3478611  
  5220.000000   3496931   3514339   3530793   3546469   3561397  
  5210.000000   3575757   3589513   3602728   3615242   3627034  
  5200.000000   3637933   3647988   3657143   3665552   3673225  
  5190.000000   3680310   3686765   3692653   3697871   3702460  
  5180.000000   3706341   3709604   3712223   3714302   3715807  
  5170.000000   3716809   3717250   3717195   3716606   3715571  
  5160.000000   3714076   3712196   3709892   3707201   3704061  
  5150.000000   3700515   3696537   3692208   3687545   3682632  
  5140.000000   3677471   3672112   3666532   3660766   3654801  
  5130.000000   3648684   3642418   3636042   3629545   3622945  
  5120.000000   3616227   3609416   3602526   3595609   3588695  
  5110.000000   3581821   3574987   3568187   3561395   3554601  
  5100.000000   3547801   3541019   3534278   3527608   3521017  
  5090.000000   3514498   3508027   3501582   3495142   3488706  
  5080.000000   3482280   3475874   3469490   3463121   3456747  
  5070.000000   3450350   3443911   3437427   3430901   3424346  
  5060.000000   3417765   3411167   3404543   3397894   3391216  
  5050.000000   3384517   3377804   3371091   3364379   3357667  
  5040.000000   3350943   3344197   3337421   3330617   3323800  
  5030.000000   3316988   3310203   3303462   3296781   3290164  
  5020.000000   3283627   3277176   3270830   3264598   3258498  
  5010.000000   3252527   3246694   3240983   3235404   3229945  
  5000.000000   3224632   3219465   3214485   3209692   3205125  
  4990.000000   3200775   3196673   3192803   3189192   3185818  
  4980.000000   3182705   3179824   3177203   3174814   3172701  
  4970.000000   3170852   3169331   3168134   3167324   3166878  
  4960.000000   3166834   3167145   3167833   3168851   3170230  
  4950.000000   3171939   3174025   3176461   3179291   3182475  
  4940.000000   3186042   3189941   3194194   3198751   3203636  
  4930.000000   3208802   3214280   3220032   3226101   3232464  
  4920.000000   3239173   3246209   3253608   3261335   3269396  
  4910.000000   3277737   3286351   3295192   3304262   3313533  
  4900.000000   3323012   3332671   3342497   3352452   3362504  
  4890.000000   3372613   3382744   3392867   3402941   3412941  
  4880.000000   3422811   3432521   3442006   3451239   3460155  
  4870.000000   3468735   3476922   3484707   3492044   3498948  
  4860.000000   3505394   3511425   3517040   3522297   3527194  
  4850.000000   3531781   3536044   3540025   3543713   3547161  
  4840.000000   3550381   3553441   3556361   3559202   3561969  
  4830.000000   3564691   3567351   3569955   3572473   3574905  
  4820.000000   3577232   3579462   3581591   3583641   3585624  
  4810.000000   3587565   3589478   3591378   3593266   3595145  
  4800.000000   3597006   3598853   3600683   3602510   3604340  
  4790.000000   3606188   3608054   3609942   3611841   3613745  
  4780.000000   3615640   3617527   3619394   3621242   3623054  
  4770.000000   3624818   3626508   3628108   3629593   3630963  
  4760.000000   3632210   3633349   3634380   3635317   3636153  
  4750.000000   3636889   3637505   3637999   3638350   3638564  
  4740.000000   3638632   3638574   3638393   3638117   3637755  
  4730.000000   3637328   3636833   3636274   3635633   3634905  
  4720.000000   3634076   3633152   3632150   3631098   3630031  
  4710.000000   3628983   3627980   3627035   3626154   3625335  
  4700.000000   3624582   3623898   3623303   3622813   3622453  
  4690.000000   3622237   3622179   3622273   3622512   3622868  
  4680.000000   3623318   3623814   3624322   3624790   3625192  
  4670.000000   3625495   3625706   3625831   3625915   3625990  
  4660.000000   3626114   3626320   3626652   3627131   3627786  
  4650.000000   3628629   3629676   3630929   3632384   3634020  
  4640.000000   3635809   3637714   3639701   3641742   3643816  
  4630.000000   3645910   3648010   3650100   3652154   3654142  
  4620.000000   3656025   3657770   3659342   3660726   3661900  
  4610.000000   3662864   3663611   3664157   3664506   3664692  
  4600.000000   3664736   3664684   3664559   3664405   3664233  
  4590.000000   3664067   3663898   3663729   3663534   3663297  
  4580.000000   3662981   3662561   3662000   3661286   3660406  
  4570.000000   3659375   3658210   3656948   3655612   3654232  
  4560.000000   3652815   3651370   3649891   3648383   3646844  
  4550.000000   3645283   3643703   3642106   3640491   3638855  
  4540.000000   3637203   3635542   3633902   3632305   3630791  
  4530.000000   3629371   3628070   3626872   3625794   3624818  
  4520.000000   3623985   3623303   3622839   3622607   3622672  
  4510.000000   3623019   3623698   3624680   3626028   3627736  
  4500.000000   3629901   3632533   3635736   3639497   3643895  
  4490.000000   3648889   3654549   3660836   3667840   3675541  
  4480.000000   3684029   3693273   3703325   3714111   3725637  
  4470.000000   3737797   3750574   3763859   3777633   3791798  
  4460.000000   3806332   3821143   3836201   3851415   3866746  
  4450.000000   3882113   3897478   3912787   3928021   3943168  
  4440.000000   3958228   3973219   3988136   4002998   4017765  
  4430.000000   4032437   4046939   4061259   4075307   4089079  
  4420.000000   4102482   4115519   4128089   4140187   4151692  
  4410.000000   4162576   4172709   4182058   4190510   4198074  
  4400.000000   4204699   4210463   4215395   4219636   4223264  
  4390.000000   4226436   4229236   4231801   4234191   4236511  
  4380.000000   4238798   4241128   4243531   4246065   4248764  
  4370.000000   4251680   4254851   4258318   4262110   4266243  
  4360.000000   4270722   4275536   4280660   4286064   4291685  
  4350.000000   4297480   4303356   4309270   4315130   4320932  
  4340.000000   4326625   4332233   4337694   4342945   4347772  
  4330.000000   4351903   4354939   4356508   4356282   4354143  
  4320.000000   4350186   4344788   4338484   4331930   4325697  
  4310.000000   4320252   4315809   4312426   4309960   4308235  
  4300.000000   4307034   4306211   4305663   4305344   4305234  
  4290.000000   4305304   4305539   4305894   4306361   4306911  
  4280.000000   4307557   4308301   4309151   4310116   4311182  
  4270.000000   4312356   4313604   4314899   4316140   4317198  
  4260.000000   4317856   4317878   4317015   4315092   4312028  
  4250.000000   4307902   4302908   4297359   4291581   4285907  
  4240.000000   4280566   4275720   4271400   4267591   4264198  
  4230.000000   4261129   4258266   4255508   4252760   4249944  
  4220.000000   4247016   4243947   4240774   4237539   4234348  
  4210.000000   4231281   4228444   4225888   4223663   4221761  
  4200.000000   4220173   4218849   4217755   4216828   4216037  
  4190.000000   4215320   4214661   4214010   4213384   4212759  
  4180.000000   4212190   4211681   4211316   4211117   4211182  
  4170.000000   4211544   4212307   4213506   4215239   4217520  
  4160.000000   4220417   4223901   4228001   4232644   4237838  
  4150.000000   4243497   4249632   4256171   4263145   4270503  
  4140.000000   4278306   4286524   4295237   4304419   4314139  
  4130.000000   4324347   4335073   4346239   4357850   4369834  
  4120.000000   4382215   4394961   4408133   4421733   4435829  
  4110.000000   4450417   4465534   4481136   4497208   4513659  
  4100.000000   4530431   4547414   4564540   4581726   4598943  
  4090.000000   4616168   4633419   4650719   4668098   4685590  
  4080.000000   4703204   4720959   4738829   4756809   4774825  
  4070.000000   4792832   4810704   4828371   4845692   4862624  
  4060.000000   4879065   4895029   4910449   4925362   4939695  
  4050.000000   4953486   4966655   4979264   4991255   5002717  
  4040.000000   5013587   5023931   5033639   5042739   5051095  
  4030.000000   5058738   5065549   5071577   5076726   5081038  
  4020.000000   5084403   5086885   5088467   5089261   5089248  
  4010.000000   5088595   5087389   5085668   5083218   5080111  
  4000.000000   5076667  
##END= 
