##TITLE= Sample 006 By ssteindl date Montag, November 26 2018
##JCAMP-DX= 4.24
##DATA TYPE= INFRARED SPECTRUM
##ORIGIN= Exported PE Spectrum Data File
##OWNER= Sandra Steindl
##DATE= 18/11/26
##TIME= 13:34:02.00
##SPECTROMETER/DATA SYSTEM= PERKIN-ELMER Frontier FT-IR/NIR IR
##INSTRUMENT PARAMETERS=
  APODIZATION=stark
  DETECTOR=INGAAS
##RESOLUTION= 16.000000
##DELTAX= -2.000000
##XUNITS= 1/CM
##YUNITS= A
##XFACTOR= 1.00
##YFACTOR= 0.00000011920928955078
##FIRSTX= 10000.00
##LASTX= 4000.00
##NPOINTS= 3001
##FIRSTY= 0.226222
##MAXY= 0.609637
##MINY= 0.200194
##XYDATA= (X++(Y..Y))
 10000.000000   1897684   1896198   1894132   1890878   1886674  
  9990.000000   1882290   1878343   1875263   1873588   1873773  
  9980.000000   1875730   1878706   1881556   1883060   1882340  
  9970.000000   1879204   1874300   1868862   1864195   1861190  
  9960.000000   1860039   1860263   1861105   1861878   1862320  
  9950.000000   1862511   1862693   1862886   1862770   1861725  
  9940.000000   1859230   1855189   1850228   1845537   1842525  
  9930.000000   1842257   1845020   1850238   1856668   1862970  
  9920.000000   1868153   1871942   1874673   1877004   1879446  
  9910.000000   1882100   1884588   1886281   1886628   1885389  
  9900.000000   1882770   1879255   1875405   1871623   1868012  
  9890.000000   1864469   1860755   1856755   1852525   1848352  
  9880.000000   1844664   1841895   1840378   1840241   1841349  
  9870.000000   1843319   1845559   1847421   1848405   1848336  
  9860.000000   1847520   1846661   1846665   1848253   1851622  
  9850.000000   1856251   1861009   1864518   1865693   1864147  
  9840.000000   1860387   1855589   1851141   1848086   1846750  
  9830.000000   1846699   1847024   1846812   1845541   1843310  
  9820.000000   1840692   1838489   1837298   1837361   1838491  
  9810.000000   1840274   1842295   1844251   1846019   1847455  
  9800.000000   1848365   1848374   1847148   1844524   1840771  
  9790.000000   1836555   1832791   1830311   1829569   1830525  
  9780.000000   1832700   1835491   1838396   1841267   1844213  
  9770.000000   1847494   1851203   1855141   1858767   1861387  
  9760.000000   1862437   1861701   1859465   1856327   1853000  
  9750.000000   1849951   1847295   1844793   1842068   1838863  
  9740.000000   1835185   1831378   1827938   1825422   1824172  
  9730.000000   1824337   1825784   1828275   1831503   1835196  
  9720.000000   1839080   1842818   1845993   1848089   1848681  
  9710.000000   1847512   1844699   1840653   1836014   1831403  
  9700.000000   1827258   1823740   1820767   1818190   1815944  
  9690.000000   1814188   1813239   1813458   1814944   1817439  
  9680.000000   1820229   1822427   1823260   1822439   1820336  
  9670.000000   1817860   1816152   1816079   1817880   1820976  
  9660.000000   1824154   1825950   1825212   1821504   1815299  
  9650.000000   1807810   1800566   1794910   1791563   1790525  
  9640.000000   1791187   1792670   1794164   1795145   1795454  
  9630.000000   1795177   1794499   1793575   1792495   1791334  
  9620.000000   1790223   1789363   1788996   1789278   1790215  
  9610.000000   1791628   1793213   1794675   1795808   1796543  
  9600.000000   1796897   1796866   1796377   1795243   1793280  
  9590.000000   1790405   1786790   1782867   1779253   1776561  
  9580.000000   1775206   1775284   1776558   1778585   1780847  
  9570.000000   1782934   1784589   1785745   1786464   1786889  
  9560.000000   1787197   1787577   1788177   1789090   1790271  
  9550.000000   1791536   1792570   1793033   1792694   1791535  
  9540.000000   1789778   1787764   1785798   1783953   1782029  
  9530.000000   1779602   1776252   1771812   1766569   1761275  
  9520.000000   1756945   1754543   1754611   1757102   1761376  
  9510.000000   1766454   1771329   1775256   1777898   1779303  
  9500.000000   1779762   1779643   1779253   1778811   1778457  
  9490.000000   1778298   1778402   1778746   1779167   1779340  
  9480.000000   1778862   1777369   1774666   1770792   1766017  
  9470.000000   1760738   1755397   1750365   1745931   1742314  
  9460.000000   1739709   1738331   1738347   1739846   1742700  
  9450.000000   1746587   1751018   1755476   1759556   1763007  
  9440.000000   1765770   1767818   1769148   1769643   1769184  
  9430.000000   1767685   1765254   1762209   1759045   1756327  
  9420.000000   1754495   1753782   1754105   1755172   1756538  
  9410.000000   1757786   1758591   1758783   1758329   1757310  
  9400.000000   1755890   1754287   1752751   1751532   1750843  
  9390.000000   1750803   1751424   1752582   1754083   1755692  
  9380.000000   1757185   1758365   1759021   1758955   1757988  
  9370.000000   1756100   1753493   1750652   1748233   1746901  
  9360.000000   1747063   1748703   1751293   1753919   1755570  
  9350.000000   1755466   1753351   1749516   1744696   1739728  
  9340.000000   1735325   1731855   1729367   1727684   1726598  
  9330.000000   1726020   1725995   1726661   1728079   1730198  
  9320.000000   1732822   1735707   1738628   1741399   1743878  
  9310.000000   1745860   1747114   1747359   1746440   1744411  
  9300.000000   1741623   1738683   1736254   1734851   1734606  
  9290.000000   1735261   1736272   1737051   1737196   1736602  
  9280.000000   1735431   1733952   1732365   1730708   1728901  
  9270.000000   1726888   1724791   1722990   1722004   1722307  
  9260.000000   1724048   1726976   1730458   1733737   1736179  
  9250.000000   1737481   1737708   1737147   1736120   1734769  
  9240.000000   1733044   1730776   1727895   1724555   1721164  
  9230.000000   1718245   1716211   1715196   1714976   1715114  
  9220.000000   1715127   1714734   1713913   1712895   1711995  
  9210.000000   1711432   1711250   1711304   1711425   1711497  
  9200.000000   1711553   1711681   1711963   1712330   1712584  
  9190.000000   1712457   1711798   1710704   1709533   1708799  
  9180.000000   1708909   1710015   1711892   1714069   1715989  
  9170.000000   1717268   1717835   1717900   1717813   1717792  
  9160.000000   1717804   1717506   1716448   1714290   1711021  
  9150.000000   1707012   1702909   1699473   1697315   1696761  
  9140.000000   1697741   1699928   1702846   1706005   1708944  
  9130.000000   1711254   1712633   1712865   1711899   1709851  
  9120.000000   1707066   1704047   1701361   1699458   1698557  
  9110.000000   1698638   1699485   1700818   1702337   1703847  
  9100.000000   1705216   1706356   1707125   1707320   1706761  
  9090.000000   1705341   1703151   1700445   1697647   1695174  
  9080.000000   1693357   1692324   1692009   1692224   1692746  
  9070.000000   1693434   1694231   1695185   1696331   1697699  
  9060.000000   1699217   1700781   1702259   1703559   1704653  
  9050.000000   1705542   1706246   1706693   1706748   1706195  
  9040.000000   1704826   1702494   1699190   1695106   1690628  
  9030.000000   1686299   1682675   1680260   1679352   1679995  
  9020.000000   1681905   1684578   1687401   1689789   1691308  
  9010.000000   1691758   1691230   1690006   1688486   1687037  
  9000.000000   1685962   1685405   1685377   1685762   1686395  
  8990.000000   1687104   1687738   1688216   1688515   1688689  
  8980.000000   1688803   1688928   1689078   1689208   1689217  
  8970.000000   1688990   1688482   1687736   1686910   1686209  
  8960.000000   1685797   1685716   1685828   1685859   1685512  
  8950.000000   1684602   1683190   1681561   1680168   1679435  
  8940.000000   1679604   1680606   1682071   1683486   1684402  
  8930.000000   1684639   1684350   1683977   1684058   1685003  
  8920.000000   1686907   1689494   1692206   1694370   1695457  
  8910.000000   1695203   1693748   1691486   1688964   1686663  
  8900.000000   1684898   1683768   1683156   1682889   1682805  
  8890.000000   1682910   1683329   1684340   1686201   1689060  
  8880.000000   1692794   1696995   1701038   1704172   1705771  
  8870.000000   1705437   1703216   1699513   1695037   1690581  
  8860.000000   1686845   1684303   1683123   1683239   1684403  
  8850.000000   1686342   1688784   1691512   1694291   1696885  
  8840.000000   1699033   1700504   1701170   1701038   1700329  
  8830.000000   1699362   1698527   1698110   1698267   1698953  
  8820.000000   1699975   1701068   1701975   1702539   1702720  
  8810.000000   1702601   1702353   1702188   1702304   1702843  
  8800.000000   1703846   1705252   1706908   1708613   1710185  
  8790.000000   1711512   1712608   1713587   1714611   1715793  
  8780.000000   1717114   1718405   1719394   1719838   1719641  
  8770.000000   1718958   1718161   1717747   1718133   1719501  
  8760.000000   1721681   1724198   1726416   1727756   1727893  
  8750.000000   1726846   1724952   1722736   1720728   1719312  
  8740.000000   1718654   1718715   1719353   1720382   1721657  
  8730.000000   1723046   1724423   1725626   1726472   1726815  
  8720.000000   1726622   1726044   1725424   1725222   1725892  
  8710.000000   1727718   1730704   1734553   1738736   1742631  
  8700.000000   1745693   1747573   1748206   1747763   1746586  
  8690.000000   1745058   1743512   1742184   1741193   1740606  
  8680.000000   1740444   1740752   1741550   1742861   1744624  
  8670.000000   1746704   1748868   1750814   1752244   1752878  
  8660.000000   1752585   1751353   1749383   1746988   1744590  
  8650.000000   1742605   1741393   1741187   1742052   1743906  
  8640.000000   1746551   1749745   1753244   1756833   1760336  
  8630.000000   1763596   1766471   1768819   1770540   1771587  
  8620.000000   1772059   1772155   1772197   1772495   1773294  
  8610.000000   1774654   1776427   1778303   1779896   1780907  
  8600.000000   1781208   1780947   1780477   1780286   1780806  
  8590.000000   1782308   1784804   1788054   1791634   1795060  
  8580.000000   1797918   1799933   1801021   1801264   1800901  
  8570.000000   1800233   1799568   1799154   1799153   1799627  
  8560.000000   1800534   1801783   1803257   1804884   1806619  
  8550.000000   1808478   1810474   1812588   1814716   1816677  
  8540.000000   1818267   1819317   1819783   1819768   1819524  
  8530.000000   1819362   1819552   1820228   1821337   1822687  
  8520.000000   1824009   1825084   1825808   1826227   1826486  
  8510.000000   1826761   1827153   1827676   1828241   1828731  
  8500.000000   1829064   1829253   1829415   1829716   1830308  
  8490.000000   1831236   1832421   1833645   1834634   1835122  
  8480.000000   1834965   1834174   1832955   1831647   1830662  
  8470.000000   1830372   1831022   1832665   1835142   1838142  
  8460.000000   1841272   1844179   1846612   1848498   1849917  
  8450.000000   1851054   1852102   1853181   1854301   1855361  
  8440.000000   1856216   1856726   1856829   1856551   1855981  
  8430.000000   1855241   1854422   1853587   1852755   1851953  
  8420.000000   1851227   1850670   1850379   1850438   1850875  
  8410.000000   1851650   1852663   1853792   1854932   1856014  
  8400.000000   1857016   1857925   1858730   1859396   1859886  
  8390.000000   1860181   1860314   1860378   1860516   1860861  
  8380.000000   1861485   1862366   1863382   1864346   1865050  
  8370.000000   1865356   1865225   1864757   1864124   1863556  
  8360.000000   1863252   1863366   1863949   1864945   1866198  
  8350.000000   1867473   1868518   1869086   1868996   1868170  
  8340.000000   1866660   1864661   1862453   1860367   1858696  
  8330.000000   1857679   1857435   1857973   1859165   1860794  
  8320.000000   1862570   1864171   1865281   1865630   1865073  
  8310.000000   1863615   1861446   1858892   1856364   1854265  
  8300.000000   1852892   1852394   1852714   1853670   1854985  
  8290.000000   1856401   1857704   1858765   1859522   1859930  
  8280.000000   1859951   1859513   1858562   1857071   1855107  
  8270.000000   1852828   1850489   1848397   1846841   1846038  
  8260.000000   1846048   1846793   1848032   1849458   1850730  
  8250.000000   1851569   1851811   1851439   1850575   1849427  
  8240.000000   1848225   1847151   1846299   1845660   1845144  
  8230.000000   1844634   1844033   1843327   1842566   1841857  
  8220.000000   1841280   1840864   1840539   1840162   1839545  
  8210.000000   1838544   1837103   1835311   1833367   1831537  
  8200.000000   1830054   1829063   1828557   1828403   1828366  
  8190.000000   1828197   1827691   1826741   1825340   1823563  
  8180.000000   1821520   1819319   1817040   1814735   1812447  
  8170.000000   1810219   1808117   1806217   1804590   1803281  
  8160.000000   1802285   1801551   1800991   1800508   1800016  
  8150.000000   1799458   1798811   1798073   1797261   1796401  
  8140.000000   1795538   1794727   1794035   1793520   1793207  
  8130.000000   1793064   1792986   1792817   1792376   1791518  
  8120.000000   1790180   1788413   1786380   1784303   1782407  
  8110.000000   1780838   1779629   1778698   1777885   1777024  
  8100.000000   1776000   1774800   1773506   1772285   1771305  
  8090.000000   1770699   1770505   1770661   1771023   1771397  
  8080.000000   1771604   1771484   1770954   1769972   1768571  
  8070.000000   1766812   1764809   1762698   1760645   1758827  
  8060.000000   1757409   1756526   1756236   1756530   1757296  
  8050.000000   1758370   1759552   1760653   1761526   1762068  
  8040.000000   1762234   1761994   1761342   1760269   1758804  
  8030.000000   1757006   1755014   1753025   1751275   1749991  
  8020.000000   1749310   1749258   1749709   1750445   1751194  
  8010.000000   1751728   1751901   1751691   1751167   1750454  
  8000.000000   1749674   1748902   1748163   1747437   1746700  
  7990.000000   1745933   1745138   1744320   1743465   1742539  
  7980.000000   1741479   1740240   1738812   1737265   1735741  
  7970.000000   1734423   1733487   1733035   1733058   1733428  
  7960.000000   1733931   1734328   1734428   1734146   1733524  
  7950.000000   1732718   1731942   1731400   1731222   1731424  
  7940.000000   1731904   1732474   1732931   1733099   1732900  
  7930.000000   1732341   1731515   1730534   1729500   1728460  
  7920.000000   1727421   1726369   1725322   1724360   1723627  
  7910.000000   1723301   1723519   1724334   1725662   1727307  
  7900.000000   1729011   1730524   1731682   1732422   1732783  
  7890.000000   1732851   1732715   1732426   1732007   1731471  
  7880.000000   1730858   1730248   1729748   1729455   1729400  
  7870.000000   1729529   1729705   1729762   1729567   1729073  
  7860.000000   1728337   1727502   1726729   1726157   1725853  
  7850.000000   1725825   1726043   1726476   1727110   1727932  
  7840.000000   1728903   1729921   1730821   1731407   1731513  
  7830.000000   1731081   1730193   1729071   1728001   1727252  
  7820.000000   1726971   1727155   1727640   1728186   1728547  
  7810.000000   1728559   1728174   1727452   1726515   1725489  
  7800.000000   1724453   1723432   1722406   1721360   1720308  
  7790.000000   1719325   1718517   1718000   1717839   1718025  
  7780.000000   1718451   1718945   1719304   1719350   1718985  
  7770.000000   1718198   1717079   1715770   1714435   1713202  
  7760.000000   1712149   1711285   1710578   1709976   1709432  
  7750.000000   1708928   1708464   1708059   1707723   1707458  
  7740.000000   1707251   1707080   1706926   1706768   1706589  
  7730.000000   1706356   1706028   1705554   1704907   1704097  
  7720.000000   1703194   1702317   1701600   1701155   1701016  
  7710.000000   1701131   1701369   1701569   1701590   1701359  
  7700.000000   1700886   1700238   1699508   1698761   1698017  
  7690.000000   1697252   1696434   1695563   1694692   1693932  
  7680.000000   1693406   1693214   1693378   1693840   1694475  
  7670.000000   1695129   1695672   1696017   1696137   1696039  
  7660.000000   1695753   1695307   1694735   1694092   1693457  
  7650.000000   1692943   1692669   1692723   1693123   1693796  
  7640.000000   1694583   1695271   1695661   1695612   1695093  
  7630.000000   1694178   1693035   1691864   1690855   1690145  
  7620.000000   1689797   1689809   1690129   1690683   1691391  
  7610.000000   1692185   1693003   1693792   1694499   1695063  
  7600.000000   1695427   1695535   1695362   1694907   1694223  
  7590.000000   1693403   1692571   1691868   1691413   1691284  
  7580.000000   1691499   1692010   1692721   1693496   1694199  
  7570.000000   1694699   1694910   1694796   1694398   1693816  
  7560.000000   1693213   1692777   1692691   1693087   1694016  
  7550.000000   1695422   1697147   1698965   1700641   1701983  
  7540.000000   1702888   1703351   1703460   1703347   1703165  
  7530.000000   1703030   1703019   1703158   1703447   1703878  
  7520.000000   1704445   1705155   1706013   1707024   1708163  
  7510.000000   1709391   1710653   1711882   1713027   1714044  
  7500.000000   1714922   1715657   1716282   1716825   1717332  
  7490.000000   1717836   1718373   1718966   1719639   1720415  
  7480.000000   1721325   1722402   1723678   1725173   1726879  
  7470.000000   1728750   1730708   1732648   1734476   1736114  
  7460.000000   1737538   1738767   1739872   1740933   1742030  
  7450.000000   1743211   1744490   1745844   1747237   1748626  
  7440.000000   1749979   1751278   1752523   1753721   1754892  
  7430.000000   1756054   1757236   1758467   1759786   1761220  
  7420.000000   1762795   1764516   1766381   1768368   1770455  
  7410.000000   1772615   1774830   1777080   1779350   1781617  
  7400.000000   1783859   1786049   1788168   1790201   1792152  
  7390.000000   1794031   1795859   1797653   1799423   1801169  
  7380.000000   1802885   1804563   1806198   1807795   1809361  
  7370.000000   1810915   1812467   1814028   1815593   1817157  
  7360.000000   1818701   1820206   1821652   1823026   1824320  
  7350.000000   1825541   1826709   1827855   1829018   1830235  
  7340.000000   1831531   1832913   1834370   1835876   1837400  
  7330.000000   1838912   1840397   1841851   1843286   1844720  
  7320.000000   1846172   1847652   1849164   1850700   1852249  
  7310.000000   1853802   1855351   1856901   1858456   1860028  
  7300.000000   1861617   1863221   1864820   1866388   1867889  
  7290.000000   1869286   1870547   1871650   1872587   1873367  
  7280.000000   1874014   1874560   1875043   1875506   1875981  
  7270.000000   1876497   1877077   1877740   1878504   1879383  
  7260.000000   1880387   1881507   1882719   1883973   1885211  
  7250.000000   1886370   1887417   1888340   1889184   1890014  
  7240.000000   1890928   1891999   1893281   1894771   1896442  
  7230.000000   1898231   1900090   1901981   1903909   1905891  
  7220.000000   1907970   1910176   1912537   1915050   1917710  
  7210.000000   1920486   1923355   1926270   1929197   1932084  
  7200.000000   1934899   1937614   1940238   1942790   1945328  
  7190.000000   1947899   1950551   1953290   1956105   1958949  
  7180.000000   1961784   1964584   1967371   1970193   1973130  
  7170.000000   1976243   1979575   1983110   1986805   1990575  
  7160.000000   1994355   1998086   2001763   2005394   2009029  
  7150.000000   2012705   2016477   2020370   2024424   2028640  
  7140.000000   2033028   2037556   2042198   2046896   2051619  
  7130.000000   2056333   2061060   2065831   2070727   2075801  
  7120.000000   2081108   2086632   2092331   2098104   2103868  
  7110.000000   2109545   2115130   2120658   2126226   2131929  
  7100.000000   2137860   2144049   2150481   2157065   2163696  
  7090.000000   2170248   2176648   2182859   2188921   2194907  
  7080.000000   2200926   2207066   2213388   2219891   2226540  
  7070.000000   2233262   2239996   2246700   2253375   2260047  
  7060.000000   2266757   2273526   2280356   2287213   2294051  
  7050.000000   2300819   2307486   2314041   2320493   2326863  
  7040.000000   2333173   2339449   2345718   2352021   2358397  
  7030.000000   2364888   2371500   2378205   2384913   2391505  
  7020.000000   2397851   2403865   2409513   2414851   2419983  
  7010.000000   2425051   2430170   2435418   2440804   2446297  
  7000.000000   2451818   2457299   2462658   2467854   2472844  
  6990.000000   2477625   2482197   2486600   2490875   2495084  
  6980.000000   2499269   2503461   2507643   2511785   2515824  
  6970.000000   2519727   2523457   2527030   2530458   2533775  
  6960.000000   2536988   2540106   2543116   2546024   2548835  
  6950.000000   2551577   2554261   2556897   2559450   2561883  
  6940.000000   2564146   2566235   2568175   2570048   2571937  
  6930.000000   2573917   2575999   2578144   2580257   2582243  
  6920.000000   2584026   2585602   2587011   2588340   2589670  
  6910.000000   2591060   2592517   2594016   2595501   2596923  
  6900.000000   2598234   2599412   2600448   2601358   2602168  
  6890.000000   2602927   2603694   2604531   2605477   2606539  
  6880.000000   2607683   2608847   2609961   2610984   2611911  
  6870.000000   2612786   2613669   2614615   2615638   2616716  
  6860.000000   2617792   2618814   2619753   2620617   2621435  
  6850.000000   2622234   2623010   2623726   2624319   2624742  
  6840.000000   2624987   2625110   2625205   2625379   2625699  
  6830.000000   2626174   2626742   2627311   2627787   2628127  
  6820.000000   2628331   2628453   2628553   2628685   2628864  
  6810.000000   2629080   2629311   2629540   2629761   2629975  
  6800.000000   2630174   2630336   2630424   2630408   2630281  
  6790.000000   2630075   2629853   2629694   2629652   2629741  
  6780.000000   2629925   2630136   2630302   2630380   2630360  
  6770.000000   2630265   2630125   2629960   2629758   2629493  
  6760.000000   2629133   2628671   2628123   2627534   2626951  
  6750.000000   2626414   2625931   2625496   2625087   2624694  
  6740.000000   2624315   2623957   2623616   2623270   2622874  
  6730.000000   2622374   2621729   2620932   2620021   2619071  
  6720.000000   2618170   2617392   2616772   2616305   2615949  
  6710.000000   2615653   2615366   2615060   2614714   2614322  
  6700.000000   2613873   2613355   2612756   2612071   2611302  
  6690.000000   2610465   2609577   2608656   2607711   2606754  
  6680.000000   2605794   2604853   2603948   2603105   2602324  
  6670.000000   2601591   2600864   2600090   2599214   2598202  
  6660.000000   2597044   2595759   2594380   2592953   2591512  
  6650.000000   2590092   2588713   2587396   2586152   2584985  
  6640.000000   2583878   2582804   2581711   2580549   2579269  
  6630.000000   2577850   2576293   2574630   2572907   2571180  
  6620.000000   2569496   2567895   2566395   2565001   2563692  
  6610.000000   2562436   2561177   2559864   2558449   2556914  
  6600.000000   2555272   2553571   2551876   2550244   2548708  
  6590.000000   2547256   2545842   2544403   2542889   2541278  
  6580.000000   2539593   2537887   2536223   2534654   2533199  
  6570.000000   2531849   2530569   2529320   2528071   2526809  
  6560.000000   2525531   2524242   2522943   2521627   2520284  
  6550.000000   2518907   2517500   2516075   2514654   2513254  
  6540.000000   2511887   2510548   2509228   2507910   2506591  
  6530.000000   2505273   2503977   2502729   2501554   2500473  
  6520.000000   2499490   2498602   2497790   2497032   2496306  
  6510.000000   2495587   2494856   2494092   2493277   2492393  
  6500.000000   2491431   2490382   2489252   2488055   2486817  
  6490.000000   2485567   2484332   2483133   2481976   2480862  
  6480.000000   2479785   2478749   2477763   2476848   2476025  
  6470.000000   2475301   2474661   2474065   2473454   2472769  
  6460.000000   2471968   2471042   2470017   2468945   2467883  
  6450.000000   2466873   2465935   2465055   2464206   2463357  
  6440.000000   2462488   2461596   2460696   2459808   2458958  
  6430.000000   2458161   2457431   2456773   2456191   2455680  
  6420.000000   2455226   2454803   2454382   2453929   2453429  
  6410.000000   2452887   2452329   2451796   2451326   2450938  
  6400.000000   2450630   2450378   2450150   2449920   2449679  
  6390.000000   2449436   2449204   2448992   2448794   2448590  
  6380.000000   2448356   2448072   2447737   2447364   2446978  
  6370.000000   2446599   2446231   2445866   2445483   2445072  
  6360.000000   2444629   2444171   2443720   2443293   2442892  
  6350.000000   2442505   2442109   2441687   2441233   2440758  
  6340.000000   2440276   2439796   2439306   2438783   2438190  
  6330.000000   2437509   2436737   2435905   2435051   2434217  
  6320.000000   2433420   2432649   2431866   2431029   2430102  
  6310.000000   2429081   2427982   2426844   2425699   2424574  
  6300.000000   2423470   2422384   2421302   2420224   2419149  
  6290.000000   2418088   2417034   2415975   2414878   2413710  
  6280.000000   2412439   2411052   2409551   2407961   2406305  
  6270.000000   2404617   2402916   2401221   2399539   2397879  
  6260.000000   2396239   2394616   2392991   2391346   2389657  
  6250.000000   2387908   2386096   2384233   2382336   2380433  
  6240.000000   2378542   2376680   2374856   2373080   2371362  
  6230.000000   2369712   2368133   2366611   2365117   2363605  
  6220.000000   2362029   2360350   2358556   2356660   2354698  
  6210.000000   2352718   2350760   2348858   2347031   2345290  
  6200.000000   2343641   2342090   2340633   2339256   2337925  
  6190.000000   2336589   2335191   2333684   2332051   2330305  
  6180.000000   2328494   2326684   2324941   2323316   2321833  
  6170.000000   2320492   2319272   2318143   2317069   2316015  
  6160.000000   2314946   2313830   2312643   2311370   2310012  
  6150.000000   2308588   2307125   2305655   2304203   2302780  
  6140.000000   2301381   2299990   2298592   2297174   2295734  
  6130.000000   2294279   2292823   2291382   2289967   2288589  
  6120.000000   2287255   2285971   2284745   2283582   2282489  
  6110.000000   2281466   2280514   2279625   2278788   2277983  
  6100.000000   2277192   2276386   2275555   2274684   2273786  
  6090.000000   2272880   2272002   2271186   2270462   2269842  
  6080.000000   2269327   2268898   2268542   2268235   2267974  
  6070.000000   2267747   2267557   2267389   2267244   2267110  
  6060.000000   2267005   2266943   2266972   2267125   2267444  
  6050.000000   2267930   2268574   2269326   2270145   2270983  
  6040.000000   2271830   2272693   2273610   2274612   2275734  
  6030.000000   2276978   2278334   2279771   2281266   2282795  
  6020.000000   2284360   2285958   2287605   2289297   2291034  
  6010.000000   2292795   2294567   2296327   2298071   2299791  
  6000.000000   2301501   2303206   2304934   2306696   2308523  
  5990.000000   2310426   2312426   2314523   2316726   2319025  
  5980.000000   2321427   2323929   2326546   2329282   2332149  
  5970.000000   2335136   2338233   2341403   2344618   2347838  
  5960.000000   2351052   2354241   2357416   2360578   2363745  
  5950.000000   2366922   2370129   2373375   2376689   2380092  
  5940.000000   2383608   2387248   2391009   2394872   2398807  
  5930.000000   2402780   2406760   2410725   2414656   2418537  
  5920.000000   2422352   2426076   2429686   2433162   2436493  
  5910.000000   2439681   2442735   2445676   2448521   2451296  
  5900.000000   2454022   2456734   2459459   2462237   2465086  
  5890.000000   2468020   2471017   2474048   2477061   2480019  
  5880.000000   2482889   2485662   2488339   2490928   2493430  
  5870.000000   2495839   2498143   2500336   2502426   2504439  
  5860.000000   2506418   2508411   2510453   2512565   2514749  
  5850.000000   2516996   2519297   2521652   2524070   2526562  
  5840.000000   2529134   2531778   2534470   2537175   2539853  
  5830.000000   2542474   2545019   2547483   2549872   2552195  
  5820.000000   2554467   2556703   2558915   2561120   2563320  
  5810.000000   2565518   2567693   2569829   2571891   2573875  
  5800.000000   2575768   2577607   2579407   2581220   2583043  
  5790.000000   2584885   2586684   2588386   2589883   2591092  
  5780.000000   2591903   2592245   2592044   2591283   2589965  
  5770.000000   2588161   2585967   2583531   2580989   2578481  
  5760.000000   2576089   2573873   2571833   2569969   2568255  
  5750.000000   2566689   2565263   2563980   2562828   2561784  
  5740.000000   2560820   2559902   2559018   2558160   2557350  
  5730.000000   2556597   2555916   2555293   2554714   2554145  
  5720.000000   2553571   2552983   2552398   2551836   2551323  
  5710.000000   2550868   2550477   2550138   2549843   2549584  
  5700.000000   2549360   2549175   2549030   2548922   2548840  
  5690.000000   2548779   2548728   2548691   2548667   2548660  
  5680.000000   2548655   2548634   2548558   2548389   2548078  
  5670.000000   2547592   2546890   2545948   2544740   2543263  
  5660.000000   2541525   2539572   2537468   2535306   2533170  
  5650.000000   2531134   2529226   2527445   2525755   2524115  
  5640.000000   2522487   2520863   2519247   2517661   2516125  
  5630.000000   2514646   2513226   2511860   2510548   2509293  
  5620.000000   2508109   2507000   2505965   2504984   2504036  
  5610.000000   2503093   2502147   2501201   2500276   2499388  
  5600.000000   2498548   2497744   2496953   2496145   2495299  
  5590.000000   2494411   2493494   2492573   2491665   2490781  
  5580.000000   2489912   2489042   2488149   2487223   2486257  
  5570.000000   2485258   2484229   2483176   2482099   2481001  
  5560.000000   2479884   2478753   2477614   2476467   2475304  
  5550.000000   2474114   2472881   2471605   2470299   2468993  
  5540.000000   2467721   2466510   2465364   2464266   2463177  
  5530.000000   2462057   2460876   2459629   2458337   2457037  
  5520.000000   2455766   2454554   2453412   2452334   2451298  
  5510.000000   2450282   2449257   2448199   2447088   2445915  
  5500.000000   2444680   2443400   2442103   2440823   2439582  
  5490.000000   2438383   2437199   2435990   2434703   2433309  
  5480.000000   2431799   2430200   2428556   2426918   2425313  
  5470.000000   2423749   2422201   2420639   2419029   2417354  
  5460.000000   2415608   2413795   2411915   2409969   2407951  
  5450.000000   2405863   2403721   2401552   2399393   2397278  
  5440.000000   2395230   2393256   2391359   2389539   2387806  
  5430.000000   2386166   2384626   2383165   2381750   2380326  
  5420.000000   2378857   2377323   2375761   2374232   2372830  
  5410.000000   2371615   2370624   2369822   2369159   2368561  
  5400.000000   2367999   2367455   2366967   2366563   2366287  
  5390.000000   2366137   2366119   2366207   2366416   2366756  
  5380.000000   2367277   2367998   2368942   2370068   2371340  
  5370.000000   2372683   2374075   2375486   2376965   2378531  
  5360.000000   2380259   2382155   2384269   2386583   2389147  
  5350.000000   2391956   2395088   2398552   2402423   2406676  
  5340.000000   2411352   2416401   2421868   2427712   2433995  
  5330.000000   2440672   2447787   2455264   2463132   2471326  
  5320.000000   2479932   2488951   2498538   2508720   2519642  
  5310.000000   2531275   2543690   2556788   2570609   2585068  
  5300.000000   2600242   2616098   2632759   2650213   2668574  
  5290.000000   2687797   2707929   2728848   2750516   2772765  
  5280.000000   2795550   2818765   2842468   2866678   2891539  
  5270.000000   2917091   2943376   2970272   2997606   3025126  
  5260.000000   3052625   3079980   3107183   3134323   3161495  
  5250.000000   3188764   3216050   3243208   3269952   3296080  
  5240.000000   3321363   3345796   3369363   3392241   3414496  
  5230.000000   3436286   3457568   3478357   3498474   3517868  
  5220.000000   3536373   3554029   3570796   3586838   3602186  
  5210.000000   3617010   3631272   3645024   3658104   3670486  
  5200.000000   3682008   3692720   3702582   3711750   3720238  
  5190.000000   3728186   3735543   3742356   3748510   3754033  
  5180.000000   3758843   3763030   3766571   3769577   3772020  
  5170.000000   3773972   3775375   3776289   3776669   3776596  
  5160.000000   3776048   3775097   3773702   3771901   3769638  
  5150.000000   3766957   3763835   3760353   3756518   3752409  
  5140.000000   3748019   3743397   3738522   3733438   3728148  
  5130.000000   3722720   3717170   3711550   3705851   3700078  
  5120.000000   3694198   3688208   3682095   3675886   3669600  
  5110.000000   3663278   3656938   3650605   3644286   3638003  
  5100.000000   3631771   3625619   3619561   3613612   3607756  
  5090.000000   3601972   3596221   3590476   3584712   3578924  
  5080.000000   3573111   3567276   3561415   3555520   3549578  
  5070.000000   3543587   3537548   3531479   3525393   3519306  
  5060.000000   3513212   3507102   3500947   3494725   3488417  
  5050.000000   3482026   3475562   3469051   3462512   3455964  
  5040.000000   3449414   3442865   3436312   3429757   3423201  
  5030.000000   3416651   3410119   3403614   3397151   3390742  
  5020.000000   3384402   3378138   3371965   3365881   3359893  
  5010.000000   3353988   3348175   3342443   3336813   3331288  
  5000.000000   3325901   3320657   3315588   3310689   3305986  
  4990.000000   3301466   3297162   3293064   3289213   3285599  
  4980.000000   3282263   3279185   3276399   3273881   3271672  
  4970.000000   3269757   3268190   3266958   3266109   3265616  
  4960.000000   3265506   3265733   3266321   3267226   3268487  
  4950.000000   3270074   3272032   3274329   3276999   3279994  
  4940.000000   3283339   3286984   3290962   3295238   3299856  
  4930.000000   3304786   3310068   3315665   3321608   3327855  
  4920.000000   3334435   3341309   3348507   3355996   3363798  
  4910.000000   3371883   3380269   3388925   3397862   3407047  
  4900.000000   3416472   3426097   3435892   3445810   3455807  
  4890.000000   3465838   3475854   3485813   3495662   3505364  
  4880.000000   3514866   3524149   3533167   3541921   3550368  
  4870.000000   3558509   3566291   3573704   3580691   3587261  
  4860.000000   3593383   3599104   3604429   3609425   3614097  
  4850.000000   3618498   3622616   3626482   3630077   3633435  
  4840.000000   3636550   3639469   3642194   3644775   3647218  
  4830.000000   3649566   3651829   3654048   3656229   3658400  
  4820.000000   3660556   3662701   3664818   3666903   3668944  
  4810.000000   3670950   3672923   3674879   3676827   3678778  
  4800.000000   3680731   3682689   3684652   3686622   3688599  
  4790.000000   3690591   3692593   3694609   3696634   3698668  
  4780.000000   3700708   3702756   3704802   3706837   3708831  
  4770.000000   3710758   3712581   3714278   3715832   3717256  
  4760.000000   3718559   3719775   3720915   3721999   3723016  
  4750.000000   3723964   3724816   3725570   3726205   3726727  
  4740.000000   3727127   3727413   3727573   3727615   3727527  
  4730.000000   3727317   3726984   3726538   3725985   3725339  
  4720.000000   3724606   3723804   3722948   3722061   3721168  
  4710.000000   3720297   3719475   3718725   3718067   3717513  
  4700.000000   3717074   3716755   3716561   3716488   3716535  
  4690.000000   3716691   3716950   3717298   3717731   3718235  
  4680.000000   3718805   3719418   3720061   3720697   3721304  
  4670.000000   3721848   3722321   3722711   3723043   3723336  
  4660.000000   3723638   3723984   3724427   3725004   3725759  
  4650.000000   3726719   3727910   3729340   3731009   3732898  
  4640.000000   3734982   3737226   3739594   3742049   3744557  
  4630.000000   3747084   3749596   3752062   3754448   3756729  
  4620.000000   3758882   3760892   3762743   3764429   3765930  
  4610.000000   3767238   3768334   3769225   3769915   3770444  
  4600.000000   3770841   3771163   3771435   3771693   3771925  
  4590.000000   3772130   3772269   3772326   3772262   3772071  
  4580.000000   3771729   3771242   3770602   3769825   3768917  
  4570.000000   3767911   3766826   3765697   3764536   3763358  
  4560.000000   3762148   3760890   3759553   3758118   3756567  
  4550.000000   3754905   3753142   3751304   3749420   3747517  
  4540.000000   3745625   3743769   3741976   3740265   3738660  
  4530.000000   3737162   3735783   3734505   3733331   3732238  
  4520.000000   3731242   3730331   3729545   3728878   3728387  
  4510.000000   3728067   3727984   3728140   3728620   3729437  
  4500.000000   3730690   3732385   3734615   3737365   3740713  
  4490.000000   3744632   3749202   3754403   3760321   3766934  
  4480.000000   3774310   3782398   3791230   3800721   3810880  
  4470.000000   3821612   3832918   3844708   3856980   3869644  
  4460.000000   3882689   3896028   3909645   3923462   3937459  
  4450.000000   3951565   3965755   3979969   3994182   4008360  
  4440.000000   4022494   4036587   4050643   4064685   4078703  
  4430.000000   4092712   4106661   4120538   4134256   4147783  
  4420.000000   4161009   4173901   4186345   4198314   4209701  
  4410.000000   4220491   4230584   4239978   4248592   4256450  
  4400.000000   4263509   4269832   4275423   4280385   4284760  
  4390.000000   4288673   4292182   4295415   4298434   4301352  
  4380.000000   4304223   4307133   4310112   4313216   4316462  
  4370.000000   4319883   4323494   4327323   4331384   4335696  
  4360.000000   4340262   4345082   4350131   4355393   4360803  
  4350.000000   4366331   4371884   4377434   4382887   4388243  
  4340.000000   4393438   4398486   4403300   4407805   4411772  
  4330.000000   4414937   4416916   4417367   4415994   4412710  
  4320.000000   4407629   4401135   4393759   4386149   4378871  
  4310.000000   4372392   4366945   4362605   4359263   4356760  
  4300.000000   4354894   4353515   4352511   4351806   4351367  
  4290.000000   4351142   4351120   4351255   4351561   4352023  
  4280.000000   4352672   4353513   4354552   4355776   4357150  
  4270.000000   4358646   4360207   4361780   4363257   4364500  
  4260.000000   4365301   4365429   4364644   4362776   4359749  
  4250.000000   4355647   4350670   4345144   4339409   4333815  
  4240.000000   4328599   4323930   4319832   4316271   4313127  
  4230.000000   4310283   4307599   4304967   4302296   4299522  
  4220.000000   4296627   4293608   4290527   4287439   4284457  
  4210.000000   4281656   4279133   4276919   4275049   4273496  
  4200.000000   4272245   4271244   4270471   4269876   4269450  
  4190.000000   4269146   4268965   4268855   4268826   4268833  
  4180.000000   4268906   4269026   4269253   4269598   4270157  
  4170.000000   4270969   4272150   4273747   4275868   4278528  
  4160.000000   4281790   4285613   4290006   4294887   4300248  
  4150.000000   4306010   4312187   4318721   4325658   4332958  
  4140.000000   4340681   4348795   4357360   4366337   4375775  
  4130.000000   4385619   4395899   4406552   4417604   4429011  
  4120.000000   4440820   4453021   4465684   4478812   4492462  
  4110.000000   4506613   4521277   4536390   4551916   4567758  
  4100.000000   4583856   4600113   4616479   4632893   4649341  
  4090.000000   4665812   4682321   4698887   4715523   4732250  
  4080.000000   4749067   4765991   4782999   4800097   4817223  
  4070.000000   4834342   4851337   4868137   4884602   4900683  
  4060.000000   4916281   4931407   4946003   4960116   4973685  
  4050.000000   4986756   4999262   5011262   5022695   5033634  
  4040.000000   5044001   5053838   5063020   5071557   5079316  
  4030.000000   5086333   5092519   5097949   5102567   5106442  
  4020.000000   5109486   5111763   5113241   5114003   5114003  
  4010.000000   5113376   5112193   5110486   5108063   5105005  
  4000.000000   5101623  
##END= 
