##TITLE= Sample 009 By ssteindl date Montag, November 26 2018
##JCAMP-DX= 4.24
##DATA TYPE= INFRARED SPECTRUM
##ORIGIN= Exported PE Spectrum Data File
##OWNER= Sandra Steindl
##DATE= 18/11/26
##TIME= 13:37:17.00
##SPECTROMETER/DATA SYSTEM= PERKIN-ELMER Frontier FT-IR/NIR IR
##INSTRUMENT PARAMETERS=
  APODIZATION=stark
  DETECTOR=INGAAS
##RESOLUTION= 16.000000
##DELTAX= -2.000000
##XUNITS= 1/CM
##YUNITS= A
##XFACTOR= 1.00
##YFACTOR= 0.00000011920928955078
##FIRSTX= 10000.00
##LASTX= 4000.00
##NPOINTS= 3001
##FIRSTY= 0.221446
##MAXY= 0.615156
##MINY= 0.196037
##XYDATA= (X++(Y..Y))
 10000.000000   1857622   1853347   1848360   1842087   1835298  
  9990.000000   1829202   1824320   1820540   1817973   1817085  
  9980.000000   1818209   1821427   1826513   1832968   1839877  
  9970.000000   1846213   1851150   1854245   1855552   1855367  
  9960.000000   1854123   1851948   1848717   1843990   1837349  
  9950.000000   1828642   1818224   1807042   1796433   1787933  
  9940.000000   1782768   1781682   1784525   1790405   1797722  
  9930.000000   1804678   1809715   1811905   1811230   1808374  
  9920.000000   1804515   1800732   1797715   1795459   1793476  
  9910.000000   1791046   1787737   1783659   1779512   1776336  
  9900.000000   1774986   1775804   1778328   1781554   1784251  
  9890.000000   1785488   1784952   1782986   1780421   1778110  
  9880.000000   1776663   1776177   1776367   1776712   1776738  
  9870.000000   1776153   1774881   1773023   1770781   1768457  
  9860.000000   1766468   1765333   1765587   1767538   1771074  
  9850.000000   1775470   1779567   1782036   1781960   1779186  
  9840.000000   1774552   1769621   1766178   1765580   1768273  
  9830.000000   1773710   1780580   1787410   1793041   1797044  
  9820.000000   1799642   1801495   1803238   1805188   1807231  
  9810.000000   1808920   1809757   1809362   1807631   1804666  
  9800.000000   1800675   1795942   1790756   1785597   1781053  
  9790.000000   1777882   1776683   1777718   1780639   1784532  
  9780.000000   1788136   1790242   1790110   1787682   1783584  
  9770.000000   1778832   1774459   1771166   1769187   1768342  
  9760.000000   1768273   1768672   1769418   1770553   1772099  
  9750.000000   1773907   1775528   1776353   1775782   1773525  
  9740.000000   1769761   1765120   1760523   1756845   1754657  
  9730.000000   1754028   1754530   1755381   1755753   1754998  
  9720.000000   1752931   1749770   1746107   1742608   1739808  
  9710.000000   1737947   1736946   1736556   1736577   1737049  
  9700.000000   1738328   1740968   1745447   1751849   1759638  
  9690.000000   1767657   1774448   1778644   1779519   1777147  
  9680.000000   1772477   1766930   1761968   1758623   1757224  
  9670.000000   1757473   1758666   1760140   1761475   1762692  
  9660.000000   1763991   1765656   1767660   1769740   1771357  
  9650.000000   1772016   1771477   1769855   1767659   1765451  
  9640.000000   1763684   1762380   1761129   1759240   1755995  
  9630.000000   1751040   1744550   1737355   1730709   1726009  
  9620.000000   1724318   1726076   1730848   1737447   1744174  
  9610.000000   1749293   1751525   1750355   1746234   1740333  
  9600.000000   1734238   1729334   1726440   1725502   1725806  
  9590.000000   1726274   1726032   1724711   1722590   1720421  
  9580.000000   1719033   1719026   1720478   1723014   1725970  
  9570.000000   1728727   1730953   1732687   1734234   1735937  
  9560.000000   1737960   1740177   1742243   1743711   1744272  
  9550.000000   1743758   1742242   1739840   1736712   1732968  
  9540.000000   1728742   1724312   1720104   1716763   1714928  
  9530.000000   1715140   1717582   1722056   1727986   1734572  
  9520.000000   1740966   1746380   1750208   1752020   1751659  
  9510.000000   1749223   1745152   1740177   1735244   1731351  
  9500.000000   1729278   1729437   1731670   1735362   1739516  
  9490.000000   1743113   1745301   1745641   1744112   1741018  
  9480.000000   1736857   1732124   1727278   1722681   1718627  
  9470.000000   1715340   1712933   1711453   1710812   1710924  
  9460.000000   1711643   1712879   1714510   1716373   1718227  
  9450.000000   1719663   1720234   1719409   1716891   1712603  
  9440.000000   1706943   1700615   1694549   1689605   1686366  
  9430.000000   1685079   1685625   1687736   1691048   1695311  
  9420.000000   1700318   1705906   1711780   1717457   1722278  
  9410.000000   1725530   1726708   1725620   1722562   1718144  
  9400.000000   1713216   1708555   1704703   1701846   1699817  
  9390.000000   1698286   1696883   1695430   1693920   1692569  
  9380.000000   1691630   1691355   1691829   1692952   1694441  
  9370.000000   1695900   1696994   1697482   1697348   1696685  
  9360.000000   1695707   1694596   1693481   1692386   1691254  
  9350.000000   1690048   1688790   1687653   1686875   1686727  
  9340.000000   1687366   1688801   1690831   1693085   1695074  
  9330.000000   1696290   1696338   1695006   1692344   1688629  
  9320.000000   1684357   1680146   1676649   1674380   1673583  
  9310.000000   1674134   1675580   1677253   1678505   1678874  
  9300.000000   1678263   1676923   1675375   1674181   1673752  
  9290.000000   1674222   1675469   1677235   1679270   1681481  
  9280.000000   1683922   1686756   1690065   1693749   1697453  
  9270.000000   1700659   1702849   1703638   1702891   1700711  
  9260.000000   1697407   1693385   1689059   1684824   1681036  
  9250.000000   1678051   1676156   1675526   1676090   1677529  
  9240.000000   1679282   1680726   1681315   1680798   1679286  
  9230.000000   1677254   1675365   1674229   1674191   1675249  
  9220.000000   1677117   1679326   1681386   1682872   1683530  
  9210.000000   1683255   1682077   1680097   1677468   1674398  
  9200.000000   1671156   1668071   1665459   1663589   1662586  
  9190.000000   1662466   1663089   1664257   1665710   1667200  
  9180.000000   1668510   1669439   1669822   1669500   1668397  
  9170.000000   1666516   1663994   1661054   1658007   1655190  
  9160.000000   1652979   1651671   1651455   1652330   1654098  
  9150.000000   1656360   1658549   1660080   1660511   1659740  
  9140.000000   1658082   1656222   1655008   1655195   1657160  
  9130.000000   1660721   1665155   1669440   1672616   1674067  
  9120.000000   1673670   1671785   1669074   1666225   1663713  
  9110.000000   1661699   1660131   1658853   1657774   1656897  
  9100.000000   1656297   1656021   1655972   1655958   1655735  
  9090.000000   1655201   1654473   1653905   1653959   1654975  
  9080.000000   1656991   1659649   1662331   1664349   1665243  
  9070.000000   1664932   1663759   1662296   1661100   1660488  
  9060.000000   1660448   1660713   1660942   1660920   1660679  
  9050.000000   1660469   1660591   1661227   1662289   1663461  
  9040.000000   1664296   1664452   1663843   1662702   1661502  
  9030.000000   1660751   1660794   1661668   1663104   1664629  
  9020.000000   1665751   1666110   1665579   1664273   1662487  
  9010.000000   1660598   1658959   1657855   1657462   1657853  
  9000.000000   1658963   1660618   1662527   1664363   1665805  
  8990.000000   1666655   1666882   1666628   1666142   1665646  
  8980.000000   1665258   1664905   1664382   1663414   1661820  
  8970.000000   1659609   1657033   1654525   1652536   1651422  
  8960.000000   1651292   1652030   1653293   1654698   1655931  
  8950.000000   1656849   1657484   1657967   1658450   1658979  
  8940.000000   1659476   1659728   1659496   1658589   1656975  
  8930.000000   1654819   1652464   1650352   1648888   1648338  
  8920.000000   1648749   1649928   1651504   1652996   1653968  
  8910.000000   1654107   1653338   1651782   1649747   1647625  
  8900.000000   1645830   1644703   1644478   1645281   1647129  
  8890.000000   1649941   1653476   1657402   1661276   1664668  
  8880.000000   1667193   1668645   1669063   1668688   1667919  
  8870.000000   1667104   1666475   1665978   1665331   1664115  
  8860.000000   1661987   1658860   1654979   1650936   1647494  
  8850.000000   1645406   1645151   1646818   1650067   1654250  
  8840.000000   1658601   1662420   1665240   1666876   1667445  
  8830.000000   1667264   1666763   1666357   1666396   1667073  
  8820.000000   1668415   1670260   1672313   1674207   1675589  
  8810.000000   1676241   1676105   1675338   1674209   1673050  
  8800.000000   1672136   1671616   1671509   1671702   1672034  
  8790.000000   1672333   1672476   1672398   1672088   1671601  
  8780.000000   1671042   1670584   1670439   1670820   1671888  
  8770.000000   1673667   1676025   1678660   1681178   1683193  
  8760.000000   1684442   1684863   1684600   1683946   1683245  
  8750.000000   1682782   1682737   1683141   1683925   1684938  
  8740.000000   1686009   1686954   1687604   1687825   1687561  
  8730.000000   1686877   1685986   1685230   1685008   1685650  
  8720.000000   1687315   1689897   1693062   1696331   1699252  
  8710.000000   1701520   1703081   1704083   1704808   1705528  
  8700.000000   1706409   1707473   1708639   1709813   1710960  
  8690.000000   1712146   1713496   1715133   1717093   1719290  
  8680.000000   1721516   1723508   1725022   1725906   1726132  
  8670.000000   1725794   1725071   1724212   1723499   1723226  
  8660.000000   1723645   1724911   1727022   1729773   1732778  
  8650.000000   1735536   1737563   1738528   1738372   1737339  
  8640.000000   1735928   1734733   1734285   1734913   1736678  
  8630.000000   1739381   1742636   1745993   1749049   1751542  
  8620.000000   1753364   1754545   1755218   1755561   1755765  
  8610.000000   1755977   1756299   1756759   1757348   1758038  
  8600.000000   1758811   1759692   1760729   1762000   1763541  
  8590.000000   1765348   1767341   1769383   1771314   1772990  
  8580.000000   1774327   1775312   1775997   1776480   1776878  
  8570.000000   1777318   1777914   1778764   1779916   1781360  
  8560.000000   1782986   1784619   1786026   1787005   1787438  
  8550.000000   1787349   1786904   1786350   1785944   1785845  
  8540.000000   1786093   1786578   1787135   1787596   1787879  
  8530.000000   1787998   1788034   1788113   1788349   1788848  
  8520.000000   1789691   1790972   1792801   1795242   1798262  
  8510.000000   1801641   1805005   1807840   1809664   1810163  
  8500.000000   1809354   1807582   1805443   1803622   1802695  
  8490.000000   1802993   1804507   1806983   1810019   1813226  
  8480.000000   1816280   1818979   1821210   1822900   1823988  
  8470.000000   1824424   1824246   1823585   1822704   1821915  
  8460.000000   1821526   1821752   1822646   1824133   1826016  
  8450.000000   1828104   1830226   1832304   1834287   1836151  
  8440.000000   1837835   1839239   1840238   1840721   1840656  
  8430.000000   1840096   1839186   1838124   1837127   1836378  
  8420.000000   1835986   1835985   1836320   1836889   1837532  
  8410.000000   1838101   1838471   1838605   1838546   1838430  
  8400.000000   1838424   1838687   1839307   1840253   1841392  
  8390.000000   1842512   1843416   1843952   1844064   1843779  
  8380.000000   1843196   1842441   1841637   1840901   1840361  
  8370.000000   1840144   1840365   1841085   1842265   1843758  
  8360.000000   1845301   1846608   1847442   1847734   1847596  
  8350.000000   1847298   1847159   1847424   1848163   1849219  
  8340.000000   1850264   1850903   1850842   1849972   1848407  
  8330.000000   1846438   1844425   1842708   1841488   1840833  
  8320.000000   1840679   1840916   1841434   1842155   1843010  
  8310.000000   1843920   1844759   1845366   1845566   1845226  
  8300.000000   1844321   1842956   1841376   1839875   1838743  
  8290.000000   1838155   1838142   1838587   1839249   1839866  
  8280.000000   1840209   1840181   1839814   1839266   1838738  
  8270.000000   1838426   1838440   1838781   1839336   1839913  
  8260.000000   1840305   1840340   1839932   1839084   1837864  
  8250.000000   1836389   1834774   1833130   1831538   1830071  
  8240.000000   1828793   1827761   1827019   1826572   1826372  
  8230.000000   1826308   1826216   1825928   1825308   1824321  
  8220.000000   1823028   1821604   1820270   1819258   1818722  
  8210.000000   1818706   1819108   1819708   1820217   1820339  
  8200.000000   1819847   1818613   1816643   1814053   1811047  
  8190.000000   1807870   1804758   1801919   1799497   1797581  
  8180.000000   1796189   1795293   1794800   1794599   1794541  
  8170.000000   1794476   1794264   1793787   1792978   1791801  
  8160.000000   1790294   1788519   1786590   1784619   1782722  
  8150.000000   1780994   1779505   1778296   1777379   1776740  
  8140.000000   1776337   1776106   1775956   1775790   1775510  
  8130.000000   1775040   1774350   1773454   1772429   1771376  
  8120.000000   1770419   1769640   1769077   1768684   1768354  
  8110.000000   1767949   1767341   1766477   1765387   1764206  
  8100.000000   1763118   1762324   1761956   1762042   1762477  
  8090.000000   1763043   1763467   1763475   1762869   1761553  
  8080.000000   1759556   1757011   1754135   1751182   1748412  
  8070.000000   1746049   1744259   1743127   1742635   1742678  
  8060.000000   1743058   1743543   1743902   1743970   1743688  
  8050.000000   1743107   1742371   1741652   1741094   1740751  
  8040.000000   1740588   1740485   1740305   1739931   1739319  
  8030.000000   1738493   1737518   1736465   1735366   1734210  
  8020.000000   1732966   1731614   1730193   1728793   1727549  
  8010.000000   1726565   1725881   1725432   1725082   1724675  
  8000.000000   1724116   1723429   1722761   1722338   1722370  
  7990.000000   1722970   1724081   1725499   1726922   1728059  
  7980.000000   1728727   1728881   1728618   1728080   1727395  
  7970.000000   1726582   1725575   1724248   1722520   1720423  
  7960.000000   1718138   1715971   1714255   1713270   1713125  
  7950.000000   1713759   1714932   1716323   1717606   1718530  
  7940.000000   1718974   1718928   1718490   1717798   1717012  
  7930.000000   1716274   1715698   1715358   1715282   1715449  
  7920.000000   1715791   1716215   1716616   1716916   1717063  
  7910.000000   1717050   1716889   1716588   1716151   1715551  
  7900.000000   1714778   1713832   1712772   1711700   1710750  
  7890.000000   1710062   1709728   1709794   1710231   1710970  
  7880.000000   1711915   1712970   1714045   1715057   1715922  
  7870.000000   1716557   1716893   1716891   1716579   1716039  
  7860.000000   1715407   1714821   1714383   1714120   1713975  
  7850.000000   1713842   1713602   1713188   1712606   1711943  
  7840.000000   1711320   1710852   1710590   1710507   1710504  
  7830.000000   1710456   1710257   1709861   1709299   1708663  
  7820.000000   1708071   1707628   1707391   1707357   1707471  
  7810.000000   1707648   1707802   1707867   1707816   1707658  
  7800.000000   1707427   1707170   1706922   1706694   1706467  
  7790.000000   1706194   1705815   1705276   1704552   1703663  
  7780.000000   1702666   1701651   1700708   1699911   1699287  
  7770.000000   1698820   1698451   1698112   1697740   1697306  
  7760.000000   1696811   1696284   1695762   1695276   1694832  
  7750.000000   1694417   1694007   1693569   1693085   1692541  
  7740.000000   1691931   1691248   1690482   1689620   1688663  
  7730.000000   1687635   1686587   1685595   1684742   1684092  
  7720.000000   1683669   1683445   1683352   1683298   1683206  
  7710.000000   1683029   1682764   1682443   1682113   1681818  
  7700.000000   1681577   1681390   1681242   1681125   1681041  
  7690.000000   1680998   1681003   1681028   1681015   1680866  
  7680.000000   1680483   1679795   1678803   1677583   1676287  
  7670.000000   1675091   1674160   1673595   1673411   1673553  
  7660.000000   1673908   1674367   1674847   1675321   1675804  
  7650.000000   1676330   1676917   1677540   1678128   1678571  
  7640.000000   1678758   1678603   1678089   1677270   1676275  
  7630.000000   1675267   1674411   1673826   1673549   1673545  
  7620.000000   1673707   1673910   1674046   1674063   1673969  
  7610.000000   1673827   1673720   1673708   1673811   1673992  
  7600.000000   1674195   1674356   1674456   1674510   1674575  
  7590.000000   1674713   1674964   1675326   1675759   1676195  
  7580.000000   1676584   1676894   1677134   1677328   1677498  
  7570.000000   1677643   1677744   1677778   1677751   1677709  
  7560.000000   1677744   1677959   1678431   1679169   1680101  
  7550.000000   1681087   1681967   1682618   1683001   1683168  
  7540.000000   1683243   1683371   1683668   1684185   1684903  
  7530.000000   1685744   1686616   1687441   1688185   1688847  
  7520.000000   1689461   1690061   1690682   1691342   1692058  
  7510.000000   1692836   1693688   1694618   1695630   1696709  
  7500.000000   1697837   1698986   1700136   1701275   1702411  
  7490.000000   1703554   1704733   1705966   1707278   1708676  
  7480.000000   1710161   1711715   1713309   1714898   1716445  
  7470.000000   1717917   1719315   1720666   1722029   1723460  
  7460.000000   1725004   1726652   1728347   1729990   1731485  
  7450.000000   1732770   1733862   1734852   1735903   1737184  
  7440.000000   1738831   1740886   1743294   1745906   1748537  
  7430.000000   1751008   1753203   1755089   1756729   1758247  
  7420.000000   1759793   1761496   1763440   1765644   1768066  
  7410.000000   1770616   1773187   1775675   1777997   1780107  
  7400.000000   1782001   1783713   1785298   1786828   1788372  
  7390.000000   1789989   1791711   1793547   1795474   1797452  
  7380.000000   1799425   1801333   1803132   1804793   1806315  
  7370.000000   1807714   1809024   1810282   1811528   1812794  
  7360.000000   1814113   1815517   1817043   1818729   1820603  
  7350.000000   1822683   1824954   1827374   1829870   1832356  
  7340.000000   1834755   1837000   1839055   1840903   1842552  
  7330.000000   1844027   1845369   1846640   1847916   1849283  
  7320.000000   1850806   1852529   1854438   1856481   1858557  
  7310.000000   1860556   1862371   1863942   1865250   1866321  
  7300.000000   1867209   1867980   1868698   1869424   1870206  
  7290.000000   1871092   1872108   1873265   1874537   1875880  
  7280.000000   1877225   1878518   1879717   1880819   1881841  
  7270.000000   1882811   1883743   1884619   1885403   1886047  
  7260.000000   1886531   1886879   1887170   1887508   1888006  
  7250.000000   1888731   1889701   1890862   1892140   1893443  
  7240.000000   1894721   1895953   1897172   1898413   1899730  
  7230.000000   1901145   1902686   1904367   1906225   1908284  
  7220.000000   1910579   1913104   1915835   1918695   1921607  
  7210.000000   1924480   1927267   1929946   1932548   1935109  
  7200.000000   1937687   1940317   1943038   1945871   1948852  
  7190.000000   1951998   1955324   1958802   1962381   1965969  
  7180.000000   1969482   1972851   1976076   1979202   1982336  
  7170.000000   1985573   1989003   1992642   1996476   2000436  
  7160.000000   2004470   2008534   2012636   2016790   2021035  
  7150.000000   2025371   2029793   2034257   2038734   2043194  
  7140.000000   2047658   2052156   2056752   2061480   2066376  
  7130.000000   2071428   2076630   2081945   2087371   2092892  
  7120.000000   2098529   2104288   2110189   2116224   2122390  
  7110.000000   2128656   2135002   2141389   2147808   2154237  
  7100.000000   2160695   2167188   2173748   2180377   2187079  
  7090.000000   2193818   2200562   2207264   2213914   2220525  
  7080.000000   2227154   2233867   2240730   2247764   2254955  
  7070.000000   2262235   2269528   2276762   2283906   2290960  
  7060.000000   2297957   2304920   2311863   2318765   2325603  
  7050.000000   2332356   2339036   2345686   2352366   2359131  
  7040.000000   2366002   2372959   2379947   2386905   2393784  
  7030.000000   2400569   2407269   2413907   2420485   2426991  
  7020.000000   2433380   2439618   2445680   2451587   2457380  
  7010.000000   2463131   2468883   2474669   2480468   2486252  
  7000.000000   2491961   2497561   2503013   2508306   2513421  
  6990.000000   2518360   2523116   2527717   2532186   2536578  
  6980.000000   2540928   2545267   2549576   2553825   2557953  
  6970.000000   2561933   2565743   2569420   2572996   2576519  
  6960.000000   2579987   2583386   2586657   2589767   2592684  
  6950.000000   2595436   2598054   2600594   2603070   2605484  
  6940.000000   2607798   2609992   2612053   2614021   2615944  
  6930.000000   2617883   2619857   2621854   2623807   2625646  
  6920.000000   2627304   2628765   2630047   2631209   2632310  
  6910.000000   2633406   2634520   2635668   2636850   2638076  
  6900.000000   2639349   2640671   2642018   2643353   2644623  
  6890.000000   2645782   2646806   2647704   2648506   2649254  
  6880.000000   2649979   2650698   2651412   2652126   2652852  
  6870.000000   2653621   2654453   2655358   2656302   2657225  
  6860.000000   2658051   2658726   2659239   2659639   2660007  
  6850.000000   2660437   2660983   2661653   2662400   2663157  
  6840.000000   2663866   2664507   2665095   2665671   2666262  
  6830.000000   2666873   2667467   2667997   2668419   2668722  
  6820.000000   2668927   2669079   2669216   2669358   2669490  
  6810.000000   2669589   2669625   2669601   2669541   2669488  
  6800.000000   2669475   2669513   2669574   2669614   2669585  
  6790.000000   2669466   2669261   2669012   2668763   2668555  
  6780.000000   2668403   2668306   2668241   2668189   2668123  
  6770.000000   2668023   2667859   2667596   2667201   2666652  
  6760.000000   2665955   2665150   2664304   2663498   2662793  
  6750.000000   2662226   2661795   2661479   2661239   2661052  
  6740.000000   2660897   2660765   2660633   2660467   2660212  
  6730.000000   2659814   2659231   2658459   2657529   2656506  
  6720.000000   2655466   2654475   2653573   2652770   2652049  
  6710.000000   2651385   2650741   2650096   2649426   2648723  
  6700.000000   2647983   2647218   2646446   2645692   2644976  
  6690.000000   2644304   2643659   2643002   2642280   2641450  
  6680.000000   2640480   2639374   2638155   2636868   2635549  
  6670.000000   2634232   2632930   2631652   2630395   2629166  
  6660.000000   2627962   2626778   2625597   2624396   2623147  
  6650.000000   2621834   2620455   2619030   2617583   2616139  
  6640.000000   2614704   2613277   2611843   2610401   2608963  
  6630.000000   2607564   2606236   2605007   2603863   2602762  
  6620.000000   2601629   2600389   2598984   2597394   2595636  
  6610.000000   2593755   2591804   2589827   2587853   2585898  
  6600.000000   2583973   2582090   2580265   2578514   2576842  
  6590.000000   2575245   2573708   2572211   2570737   2569274  
  6580.000000   2567811   2566335   2564832   2563285   2561690  
  6570.000000   2560061   2558438   2556874   2555423   2554112  
  6560.000000   2552929   2551818   2550699   2549489   2548135  
  6550.000000   2546626   2544993   2543295   2541597   2539952  
  6540.000000   2538392   2536932   2535582   2534346   2533229  
  6530.000000   2532224   2531313   2530454   2529598   2528691  
  6520.000000   2527702   2526620   2525463   2524265   2523067  
  6510.000000   2521904   2520808   2519798   2518889   2518087  
  6500.000000   2517384   2516753   2516146   2515505   2514772  
  6490.000000   2513917   2512939   2511878   2510789   2509725  
  6480.000000   2508713   2507747   2506795   2505816   2504782  
  6470.000000   2503688   2502552   2501398   2500241   2499080  
  6460.000000   2497897   2496672   2495404   2494119   2492865  
  6450.000000   2491697   2490659   2489763   2488989   2488294  
  6440.000000   2487635   2486980   2486317   2485652   2484997  
  6430.000000   2484351   2483711   2483051   2482358   2481616  
  6420.000000   2480835   2480029   2479223   2478435   2477681  
  6410.000000   2476972   2476318   2475738   2475248   2474865  
  6400.000000   2474591   2474415   2474306   2474227   2474138  
  6390.000000   2474007   2473816   2473555   2473221   2472814  
  6380.000000   2472340   2471807   2471232   2470637   2470043  
  6370.000000   2469471   2468925   2468406   2467901   2467407  
  6360.000000   2466921   2466451   2466001   2465568   2465131  
  6350.000000   2464656   2464100   2463430   2462631   2461713  
  6340.000000   2460708   2459667   2458639   2457676   2456814  
  6330.000000   2456086   2455500   2455050   2454697   2454381  
  6320.000000   2454011   2453499   2452775   2451815   2450648  
  6310.000000   2449352   2448020   2446741   2445555   2444456  
  6300.000000   2443388   2442290   2441097   2439791   2438376  
  6290.000000   2436891   2435371   2433847   2432328   2430812  
  6280.000000   2429289   2427755   2426204   2424634   2423031  
  6270.000000   2421379   2419656   2417856   2415988   2414090  
  6260.000000   2412208   2410391   2408659   2407003   2405376  
  6250.000000   2403724   2401991   2400152   2398206   2396182  
  6240.000000   2394112   2392029   2389947   2387869   2385793  
  6230.000000   2383725   2381676   2379669   2377721   2375837  
  6220.000000   2374008   2372211   2370414   2368592   2366731  
  6210.000000   2364834   2362914   2360994   2359098   2357241  
  6200.000000   2355434   2353675   2351952   2350245   2348532  
  6190.000000   2346788   2345001   2343173   2341320   2339468  
  6180.000000   2337647   2335878   2334170   2332517   2330905  
  6170.000000   2329318   2327747   2326187   2324639   2323103  
  6160.000000   2321576   2320050   2318522   2316992   2315468  
  6150.000000   2313961   2312482   2311025   2309579   2308114  
  6140.000000   2306611   2305056   2303458   2301843   2300247  
  6130.000000   2298701   2297223   2295810   2294455   2293140  
  6120.000000   2291861   2290617   2289419   2288272   2287176  
  6110.000000   2286119   2285091   2284081   2283095   2282142  
  6100.000000   2281243   2280407   2279635   2278910   2278213  
  6090.000000   2277526   2276853   2276206   2275616   2275100  
  6080.000000   2274673   2274312   2273998   2273692   2273382  
  6070.000000   2273065   2272771   2272532   2272391   2272369  
  6060.000000   2272484   2272726   2273093   2273566   2274143  
  6050.000000   2274801   2275536   2276320   2277146   2277995  
  6040.000000   2278878   2279803   2280808   2281914   2283151  
  6030.000000   2284518   2286014   2287612   2289295   2291035  
  6020.000000   2292821   2294635   2296471   2298310   2300147  
  6010.000000   2301970   2303787   2305603   2307443   2309318  
  6000.000000   2311247   2313225   2315249   2317299   2319369  
  5990.000000   2321447   2323543   2325664   2327832   2330062  
  5980.000000   2332381   2334801   2337347   2340023   2342839  
  5970.000000   2345777   2348818   2351922   2355055   2358179  
  5960.000000   2361282   2364351   2367401   2370437   2373477  
  5950.000000   2376525   2379597   2382699   2385852   2389077  
  5940.000000   2392395   2395821   2399358   2402996   2406719  
  5930.000000   2410505   2414338   2418201   2422076   2425934  
  5920.000000   2429741   2433451   2437025   2440438   2443689  
  5910.000000   2446803   2449814   2452763   2455674   2458560  
  5900.000000   2461420   2464255   2467071   2469894   2472744  
  5890.000000   2475649   2478605   2481600   2484593   2487549  
  5880.000000   2490434   2493239   2495962   2498610   2501179  
  5870.000000   2503653   2506008   2508219   2510284   2512228  
  5860.000000   2514101   2515967   2517885   2519895   2522011  
  5850.000000   2524229   2526536   2528923   2531382   2533912  
  5840.000000   2536505   2539142   2541792   2544422   2547005  
  5830.000000   2549528   2551995   2554420   2556815   2559184  
  5820.000000   2561520   2563815   2566059   2568263   2570434  
  5810.000000   2572599   2574757   2576910   2579019   2581065  
  5800.000000   2583002   2584833   2586545   2588168   2589694  
  5790.000000   2591135   2592440   2593571   2594444   2595006  
  5780.000000   2595183   2594947   2594265   2593151   2591621  
  5770.000000   2589741   2587583   2585258   2582864   2580505  
  5760.000000   2578241   2576117   2574136   2572297   2570588  
  5750.000000   2569016   2567587   2566316   2565201   2564226  
  5740.000000   2563366   2562585   2561866   2561197   2560594  
  5730.000000   2560062   2559611   2559219   2558857   2558476  
  5720.000000   2558047   2557548   2556998   2556424   2555874  
  5710.000000   2555383   2554978   2554666   2554445   2554304  
  5700.000000   2554230   2554207   2554215   2554232   2554231  
  5690.000000   2554195   2554114   2553996   2553852   2553703  
  5680.000000   2553549   2553384   2553174   2552889   2552488  
  5670.000000   2551949   2551249   2550386   2549344   2548124  
  5660.000000   2546715   2545132   2543397   2541566   2539697  
  5650.000000   2537858   2536094   2534432   2532862   2531365  
  5640.000000   2529909   2528472   2527041   2525614   2524196  
  5630.000000   2522792   2521408   2520052   2518743   2517502  
  5620.000000   2516354   2515314   2514382   2513535   2512738  
  5610.000000   2511948   2511135   2510283   2509397   2508491  
  5600.000000   2507579   2506670   2505761   2504846   2503921  
  5590.000000   2502990   2502064   2501153   2500258   2499368  
  5580.000000   2498459   2497506   2496492   2495418   2494297  
  5570.000000   2493156   2492013   2490882   2489756   2488624  
  5560.000000   2487472   2486292   2485086   2483863   2482630  
  5550.000000   2481391   2480145   2478887   2477614   2476330  
  5540.000000   2475042   2473763   2472497   2471249   2470015  
  5530.000000   2468796   2467595   2466426   2465299   2464222  
  5520.000000   2463187   2462173   2461150   2460090   2458971  
  5510.000000   2457789   2456554   2455280   2453979   2452659  
  5500.000000   2451321   2449969   2448612   2447269   2445955  
  5490.000000   2444685   2443449   2442231   2440994   2439715  
  5480.000000   2438374   2436977   2435536   2434071   2432589  
  5470.000000   2431088   2429547   2427948   2426275   2424528  
  5460.000000   2422711   2420834   2418899   2416901   2414830  
  5450.000000   2412687   2410485   2408257   2406043   2403882  
  5440.000000   2401797   2399791   2397856   2395981   2394163  
  5430.000000   2392404   2390710   2389067   2387457   2385841  
  5420.000000   2384197   2382516   2380838   2379224   2377761  
  5410.000000   2376503   2375474   2374634   2373926   2373277  
  5400.000000   2372658   2372058   2371525   2371095   2370819  
  5390.000000   2370696   2370727   2370873   2371134   2371502  
  5380.000000   2372021   2372708   2373594   2374651   2375864  
  5370.000000   2377165   2378544   2379968   2381476   2383072  
  5360.000000   2384815   2386696   2388759   2390984   2393440  
  5350.000000   2396147   2399220   2402700   2406686   2411159  
  5340.000000   2416150   2421575   2427445   2433686   2440342  
  5330.000000   2447361   2454802   2462600   2470803   2479345  
  5320.000000   2488311   2497689   2507626   2518148   2529415  
  5310.000000   2541415   2554241   2567810   2582162   2597197  
  5300.000000   2612977   2629452   2646743   2664848   2683910  
  5290.000000   2703908   2724913   2746804   2769530   2792889  
  5280.000000   2816802   2841138   2865941   2891234   2917169  
  5270.000000   2943803   2971180   2999178   3027611   3056213  
  5260.000000   3084764   3113137   3141315   3169386   3197422  
  5250.000000   3225476   3253434   3281143   3308307   3334747  
  5240.000000   3360262   3384888   3408635   3431700   3454139  
  5230.000000   3476097   3497499   3518340   3538426   3557712  
  5220.000000   3576042   3593483   3610006   3625791   3640868  
  5210.000000   3655408   3669362   3682780   3695491   3707468  
  5200.000000   3718544   3728769   3738092   3746667   3754507  
  5190.000000   3761760   3768382   3774443   3779842   3784621  
  5180.000000   3788700   3792160   3794957   3797181   3798781  
  5170.000000   3799821   3800243   3800124   3799446   3798316  
  5160.000000   3796738   3794802   3792471   3789782   3786669  
  5150.000000   3783167   3779250   3774997   3770425   3765622  
  5140.000000   3760594   3755392   3749991   3744424   3738669  
  5130.000000   3732766   3726706   3720520   3714193   3707741  
  5120.000000   3701149   3694446   3687645   3680799   3673934  
  5110.000000   3667087   3660258   3653446   3646634   3639822  
  5100.000000   3633013   3626239   3619526   3612905   3606385  
  5090.000000   3599964   3593622   3587338   3581086   3574851  
  5080.000000   3568617   3562371   3556095   3549773   3543392  
  5070.000000   3536953   3530463   3523943   3517408   3510873  
  5060.000000   3504331   3497772   3491173   3484526   3477826  
  5050.000000   3471091   3464336   3457581   3450829   3444073  
  5040.000000   3437298   3430489   3423643   3416770   3409898  
  5030.000000   3403056   3396275   3389568   3382942   3376387  
  5020.000000   3369899   3363466   3357100   3350806   3344614  
  5010.000000   3338531   3332590   3326788   3321148   3315661  
  5000.000000   3310349   3305205   3300260   3295510   3290997  
  4990.000000   3286716   3282713   3278979   3275549   3272398  
  4980.000000   3269546   3266949   3264624   3262529   3260702  
  4970.000000   3259128   3257875   3256948   3256420   3256283  
  4960.000000   3256588   3257297   3258434   3259943   3261845  
  4950.000000   3264088   3266702   3269646   3272958   3276602  
  4940.000000   3280616   3284966   3289689   3294745   3300163  
  4930.000000   3305898   3311972   3318340   3325029   3332002  
  4920.000000   3339292   3346867   3354754   3362918   3371375  
  4910.000000   3380091   3389078   3398310   3407796   3417504  
  4900.000000   3427421   3437498   3447700   3457979   3468302  
  4890.000000   3478648   3488998   3499343   3509647   3519881  
  4880.000000   3529971   3539864   3549474   3558762   3567664  
  4870.000000   3576176   3584261   3591942   3599193   3606046  
  4860.000000   3612483   3618546   3624221   3629556   3634536  
  4850.000000   3639205   3643547   3647604   3651369   3654895  
  4840.000000   3658187   3661305   3664254   3667082   3669791  
  4830.000000   3672415   3674953   3677433   3679852   3682227  
  4820.000000   3684545   3686809   3689002   3691128   3693185  
  4810.000000   3695193   3697166   3699131   3701096   3703070  
  4800.000000   3705046   3707016   3708971   3710911   3712839  
  4790.000000   3714770   3716711   3718676   3720660   3722664  
  4780.000000   3724670   3726669   3728639   3730566   3732424  
  4770.000000   3734196   3735851   3737378   3738755   3739985  
  4760.000000   3741066   3742016   3742840   3743562   3744180  
  4750.000000   3744712   3745151   3745509   3745776   3745962  
  4740.000000   3746052   3746054   3745955   3745765   3745478  
  4730.000000   3745109   3744659   3744141   3743556   3742909  
  4720.000000   3742196   3741420   3740583   3739692   3738761  
  4710.000000   3737805   3736846   3735902   3734992   3734134  
  4700.000000   3733350   3732658   3732079   3731628   3731318  
  4690.000000   3731149   3731116   3731201   3731386   3731640  
  4680.000000   3731941   3732252   3732554   3732810   3733008  
  4670.000000   3733121   3733153   3733100   3732990   3732845  
  4660.000000   3732715   3732635   3732661   3732827   3733178  
  4650.000000   3733734   3734517   3735527   3736762   3738200  
  4640.000000   3739815   3741572   3743435   3745367   3747336  
  4630.000000   3749312   3751272   3753198   3755073   3756883  
  4620.000000   3758609   3760234   3761729   3763070   3764223  
  4610.000000   3765174   3765910   3766447   3766803   3767028  
  4600.000000   3767154   3767231   3767271   3767296   3767283  
  4590.000000   3767229   3767099   3766887   3766568   3766146  
  4580.000000   3765605   3764952   3764174   3763274   3762245  
  4570.000000   3761099   3759839   3758489   3757058   3755569  
  4560.000000   3754028   3752451   3750837   3749199   3747537  
  4550.000000   3745862   3744174   3742477   3740769   3739047  
  4540.000000   3737313   3735569   3733835   3732123   3730467  
  4530.000000   3728877   3727381   3725973   3724674   3723468  
  4520.000000   3722386   3721420   3720622   3719994   3719604  
  4510.000000   3719453   3719615   3720088   3720959   3722230  
  4500.000000   3724004   3726283   3729170   3732652   3736814  
  4490.000000   3741623   3747152   3753357   3760308   3767955  
  4480.000000   3776356   3785447   3795263   3805720   3816832  
  4470.000000   3828505   3840741   3853451   3866635   3880211  
  4460.000000   3894175   3908450   3923019   3937801   3952766  
  4450.000000   3967832   3982965   3998106   4013233   4028328  
  4440.000000   4043384   4058407   4073384   4088318   4103166  
  4430.000000   4117919   4132504   4146910   4161050   4174916  
  4420.000000   4188410   4201527   4214161   4226303   4237840  
  4410.000000   4248758   4258940   4268371   4276942   4284659  
  4400.000000   4291456   4297392   4302469   4306807   4310466  
  4390.000000   4313594   4316272   4318642   4320774   4322788  
  4380.000000   4324733   4326697   4328711   4330838   4333104  
  4370.000000   4335561   4338249   4341218   4344508   4348154  
  4360.000000   4352165   4356535   4361222   4366182   4371334  
  4350.000000   4376626   4381970   4387340   4392672   4397979  
  4340.000000   4403222   4408412   4413467   4418295   4422664  
  4330.000000   4426302   4428837   4429933   4429312   4426888  
  4320.000000   4422770   4417318   4411027   4404503   4398272  
  4310.000000   4392769   4388200   4384630   4381944   4379985  
  4300.000000   4378557   4377521   4376772   4376252   4375933  
  4290.000000   4375779   4375779   4375898   4376145   4376512  
  4280.000000   4377025   4377697   4378532   4379520   4380620  
  4270.000000   4381796   4382976   4384099   4385049   4385704  
  4260.000000   4385879   4385388   4384035   4381696   4378323  
  4250.000000   4374001   4368913   4363346   4357599   4351976  
  4240.000000   4346694   4341907   4337647   4333901   4330577  
  4230.000000   4327584   4324813   4322170   4319583   4316988  
  4220.000000   4314362   4311683   4308986   4306296   4303697  
  4210.000000   4301236   4298996   4297004   4295298   4293858  
  4200.000000   4292677   4291704   4290918   4290268   4289745  
  4190.000000   4289311   4288974   4288706   4288530   4288424  
  4180.000000   4288428   4288529   4288786   4289205   4289869  
  4170.000000   4290800   4292098   4293794   4295981   4298666  
  4160.000000   4301911   4305682   4310005   4314818   4320137  
  4150.000000   4325904   4332154   4338840   4346011   4353621  
  4140.000000   4361712   4370226   4379195   4388556   4398339  
  4130.000000   4408491   4419053   4429982   4441330   4453067  
  4120.000000   4465241   4477826   4490868   4504340   4518283  
  4110.000000   4532673   4547537   4562840   4578578   4594681  
  4100.000000   4611103   4627748   4644558   4661455   4678412  
  4090.000000   4695404   4712439   4729530   4746688   4763937  
  4080.000000   4781276   4798726   4816264   4833893   4851541  
  4070.000000   4869161   4886617   4903828   4920650   4937044  
  4060.000000   4952929   4968343   4983246   4997695   5011625  
  4050.000000   5025070   5037947   5050309   5062097   5073398  
  4040.000000   5084147   5094402   5104040   5113069   5121341  
  4030.000000   5128880   5135580   5141510   5146607   5150932  
  4020.000000   5154393   5157051   5158884   5159982   5160300  
  4010.000000   5159992   5159142   5157766   5155618   5152755  
  4000.000000   5149527  
##END= 
