##TITLE= Sample 007 By ssteindl date Montag, November 26 2018
##JCAMP-DX= 4.24
##DATA TYPE= INFRARED SPECTRUM
##ORIGIN= Exported PE Spectrum Data File
##OWNER= Sandra Steindl
##DATE= 18/11/26
##TIME= 13:35:08.00
##SPECTROMETER/DATA SYSTEM= PERKIN-ELMER Frontier FT-IR/NIR IR
##INSTRUMENT PARAMETERS=
  APODIZATION=stark
  DETECTOR=INGAAS
##RESOLUTION= 16.000000
##DELTAX= -2.000000
##XUNITS= 1/CM
##YUNITS= A
##XFACTOR= 1.00
##YFACTOR= 0.00000011920928955078
##FIRSTX= 10000.00
##LASTX= 4000.00
##NPOINTS= 3001
##FIRSTY= 0.234556
##MAXY= 0.626521
##MINY= 0.208429
##XYDATA= (X++(Y..Y))
 10000.000000   1967602   1964870   1960957   1954727   1946985  
  9990.000000   1939549   1933580   1929541   1928035   1929801  
  9980.000000   1935027   1943186   1953267   1963874   1973333  
  9970.000000   1980082   1983175   1982466   1978654   1973026  
  9960.000000   1967123   1962259   1959210   1958080   1958306  
  9950.000000   1959000   1959146   1958077   1955509   1951717  
  9940.000000   1947265   1942851   1938996   1935855   1933225  
  9930.000000   1930539   1927205   1922707   1916940   1910209  
  9920.000000   1903228   1896953   1892301   1889991   1890326  
  9910.000000   1893235   1898279   1904762   1911863   1918680  
  9900.000000   1924429   1928444   1930383   1930132   1927910  
  9890.000000   1924090   1919230   1913925   1908821   1904537  
  9880.000000   1901617   1900502   1901355   1904085   1908156  
  9870.000000   1912778   1916958   1919842   1920933   1920214  
  9860.000000   1918190   1915586   1913193   1911440   1910408  
  9850.000000   1909737   1908965   1907727   1906000   1904158  
  9840.000000   1902797   1902578   1903928   1907035   1911756  
  9830.000000   1917794   1924673   1931851   1938670   1944428  
  9820.000000   1948473   1950352   1949992   1947740   1944300  
  9810.000000   1940517   1937049   1934166   1931618   1928864  
  9800.000000   1925343   1920897   1915868   1911058   1907309  
  9790.000000   1905128   1904386   1904325   1903914   1902265  
  9780.000000   1899097   1894823   1890420   1886994   1885359  
  9770.000000   1885756   1887887   1891139   1894960   1899005  
  9760.000000   1903185   1907420   1911458   1914755   1916623  
  9750.000000   1916530   1914423   1910905   1907096   1904279  
  9740.000000   1903386   1904686   1907628   1911171   1914094  
  9730.000000   1915527   1915107   1913029   1909810   1906001  
  9720.000000   1901998   1897924   1893754   1889406   1884897  
  9710.000000   1880352   1875976   1872008   1868674   1866237  
  9700.000000   1864975   1865181   1867034   1870437   1874939  
  9690.000000   1879695   1883736   1886189   1886644   1885246  
  9680.000000   1882681   1879903   1877841   1877104   1877885  
  9670.000000   1879982   1882945   1886235   1889309   1891685  
  9660.000000   1892921   1892687   1890814   1887443   1883045  
  9650.000000   1878414   1874424   1871787   1870788   1871214  
  9640.000000   1872487   1873928   1875009   1875522   1875458  
  9630.000000   1874907   1873795   1871931   1869100   1865329  
  9620.000000   1861082   1857202   1854702   1854261   1855896  
  9610.000000   1858744   1861331   1862048   1859799   1854452  
  9600.000000   1846944   1838966   1832385   1828600   1828171  
  9590.000000   1830739   1835329   1840730   1845878   1850036  
  9580.000000   1852797   1854035   1853809   1852397   1850306  
  9570.000000   1848244   1847018   1847220   1849062   1852115  
  9560.000000   1855497   1858062   1858868   1857489   1854154  
  9550.000000   1849643   1844965   1841020   1838391   1837300  
  9540.000000   1837745   1839650   1842913   1847395   1852729  
  9530.000000   1858317   1863328   1867002   1868937   1869324  
  9520.000000   1868913   1868695   1869413   1871180   1873339  
  9510.000000   1874781   1874421   1871793   1867291   1862092  
  9500.000000   1857631   1855019   1854477   1855262   1855906  
  9490.000000   1854891   1851304   1845239   1837773   1830490  
  9480.000000   1824883   1821822   1821355   1822809   1825161  
  9470.000000   1827412   1828934   1829538   1829417   1828944  
  9460.000000   1828489   1828339   1828684   1829637   1831270  
  9450.000000   1833511   1836165   1838830   1841001   1842185  
  9440.000000   1842035   1840513   1837877   1834654   1831463  
  9430.000000   1828854   1827175   1826505   1826663   1827282  
  9420.000000   1827875   1827967   1827185   1825381   1822703  
  9410.000000   1819573   1816602   1814386   1813345   1813557  
  9400.000000   1814738   1816326   1817672   1818299   1818073  
  9390.000000   1817281   1816482   1816272   1817026   1818729  
  9380.000000   1821020   1823271   1824850   1825243   1824245  
  9370.000000   1821955   1818753   1815201   1811887   1809379  
  9360.000000   1808075   1808231   1809833   1812674   1816296  
  9350.000000   1820144   1823616   1826212   1827605   1827653  
  9340.000000   1826428   1824070   1820827   1816878   1812438  
  9330.000000   1807688   1802891   1798372   1794494   1791642  
  9320.000000   1790102   1790105   1791690   1794788   1799092  
  9310.000000   1804167   1809418   1814225   1818030   1820441  
  9300.000000   1821364   1820960   1819643   1817830   1815858  
  9290.000000   1813799   1811547   1808873   1805615   1801813  
  9280.000000   1797740   1793911   1790847   1788982   1788420  
  9270.000000   1789028   1790439   1792279   1794231   1796132  
  9260.000000   1797924   1799559   1800949   1801891   1802197  
  9250.000000   1801690   1800368   1798324   1795793   1793011  
  9240.000000   1790177   1787419   1784807   1782478   1780640  
  9230.000000   1779653   1779855   1781472   1784416   1788294  
  9220.000000   1792443   1796109   1798643   1799670   1799211  
  9210.000000   1797574   1795266   1792758   1790413   1788392  
  9200.000000   1786699   1785242   1783943   1782787   1781827  
  9190.000000   1781157   1780812   1780781   1780939   1781145  
  9180.000000   1781254   1781199   1781038   1780939   1781147  
  9170.000000   1781864   1783142   1784837   1786600   1787975  
  9160.000000   1788518   1787981   1786430   1784230   1781936  
  9150.000000   1780094   1779043   1778761   1778859   1778738  
  9140.000000   1777843   1775884   1772951   1769517   1766275  
  9130.000000   1763897   1762797   1763011   1764243   1765985  
  9120.000000   1767713   1769029   1769750   1769888   1769573  
  9110.000000   1768994   1768351   1767851   1767709   1768099  
  9100.000000   1769122   1770712   1772613   1774383   1775489  
  9090.000000   1775490   1774199   1771790   1768765   1765796  
  9080.000000   1763524   1762315   1762169   1762720   1763414  
  9070.000000   1763700   1763238   1762002   1760273   1758529  
  9060.000000   1757259   1756840   1757442   1759031   1761413  
  9050.000000   1764307   1767419   1770453   1773138   1775237  
  9040.000000   1776587   1777128   1776926   1776166   1775124  
  9030.000000   1774071   1773210   1772605   1772199   1771859  
  9020.000000   1771450   1770924   1770325   1769789   1769416  
  9010.000000   1769256   1769232   1769206   1769041   1768702  
  9000.000000   1768324   1768155   1768461   1769389   1770849  
  8990.000000   1772515   1773884   1774499   1774113   1772851  
  8980.000000   1771172   1769718   1769067   1769482   1770782  
  8970.000000   1772373   1773441   1773250   1771403   1768004  
  8960.000000   1763618   1759091   1755281   1752809   1751903  
  8950.000000   1752360   1753658   1755132   1756187   1756428  
  8940.000000   1755723   1754211   1752241   1750298   1748889  
  8930.000000   1748428   1749163   1751052   1753800   1756829  
  8920.000000   1759458   1761037   1761171   1759808   1757290  
  8910.000000   1754242   1751432   1749523   1748925   1749685  
  8900.000000   1751543   1754032   1756640   1758952   1760741  
  8890.000000   1762005   1762906   1763698   1764617   1765823  
  8880.000000   1767357   1769149   1771044   1772855   1774411  
  8870.000000   1775618   1776464   1777018   1777366   1777573  
  8860.000000   1777639   1777474   1776930   1775851   1774171  
  8850.000000   1771954   1769403   1766862   1764700   1763280  
  8840.000000   1762805   1763357   1764835   1767050   1769722  
  8830.000000   1772541   1775193   1777364   1778788   1779224  
  8820.000000   1778548   1776751   1774027   1770719   1767304  
  8810.000000   1764264   1762021   1760826   1760718   1761540  
  8800.000000   1762974   1764651   1766230   1767474   1768304  
  8790.000000   1768763   1769016   1769249   1769653   1770338  
  8780.000000   1771351   1772660   1774211   1775954   1777870  
  8770.000000   1779979   1782300   1784830   1787493   1790132  
  8760.000000   1792521   1794421   1795649   1796127   1795914  
  8750.000000   1795201   1794258   1793390   1792851   1792810  
  8740.000000   1793311   1794287   1795565   1796915   1798071  
  8730.000000   1798796   1798915   1798387   1797316   1795965  
  8720.000000   1794689   1793860   1793761   1794501   1795986  
  8710.000000   1797927   1799936   1801613   1802670   1802979  
  8700.000000   1802597   1801710   1800592   1799516   1798743  
  8690.000000   1798460   1798800   1799806   1801450   1803609  
  8680.000000   1806072   1808581   1810890   1812838   1814390  
  8670.000000   1815644   1816790   1818028   1819494   1821185  
  8660.000000   1822986   1824687   1826105   1827124   1827748  
  8650.000000   1828077   1828247   1828387   1828557   1828794  
  8640.000000   1829127   1829646   1830479   1831782   1833638  
  8630.000000   1836001   1838632   1841155   1843158   1844328  
  8620.000000   1844592   1844108   1843253   1842444   1842022  
  8610.000000   1842118   1842640   1843352   1844008   1844494  
  8600.000000   1844885   1845444   1846495   1848289   1850866  
  8590.000000   1854022   1857354   1860378   1862680   1864032  
  8580.000000   1864467   1864240   1863755   1863427   1863590  
  8570.000000   1864410   1865858   1867739   1869742   1871545  
  8560.000000   1872880   1873631   1873836   1873701   1873514  
  8550.000000   1873570   1874071   1875048   1876365   1877742  
  8540.000000   1878875   1879517   1879583   1879174   1878558  
  8530.000000   1878079   1878046   1878648   1879898   1881654  
  8520.000000   1883671   1885689   1887523   1889093   1890438  
  8510.000000   1891664   1892895   1894207   1895600   1896990  
  8500.000000   1898261   1899294   1900043   1900538   1900901  
  8490.000000   1901292   1901855   1902672   1903718   1904899  
  8480.000000   1906081   1907167   1908133   1909048   1910032  
  8470.000000   1911201   1912585   1914113   1915614   1916893  
  8460.000000   1917802   1918312   1918522   1918622   1918807  
  8450.000000   1919202   1919802   1920486   1921064   1921368  
  8440.000000   1921319   1920954   1920397   1919801   1919288  
  8430.000000   1918910   1918657   1918489   1918379   1918348  
  8420.000000   1918450   1918752   1919291   1920061   1921020  
  8410.000000   1922112   1923293   1924531   1925811   1927084  
  8400.000000   1928251   1929158   1929643   1929608   1929074  
  8390.000000   1928216   1927325   1926735   1926701   1927316  
  8380.000000   1928446   1929792   1930968   1931633   1931585  
  8370.000000   1930818   1929512   1927964   1926478   1925290  
  8360.000000   1924511   1924134   1924051   1924126   1924230  
  8350.000000   1924297   1924312   1924312   1924344   1924431  
  8340.000000   1924555   1924630   1924548   1924177   1923442  
  8330.000000   1922319   1920888   1919298   1917752   1916461  
  8320.000000   1915592   1915252   1915469   1916213   1917392  
  8310.000000   1918884   1920534   1922176   1923640   1924771  
  8300.000000   1925456   1925649   1925391   1924793   1924016  
  8290.000000   1923211   1922494   1921909   1921436   1921012  
  8280.000000   1920555   1920012   1919359   1918620   1917829  
  8270.000000   1917042   1916301   1915662   1915174   1914897  
  8260.000000   1914869   1915108   1915580   1916212   1916885  
  8250.000000   1917478   1917879   1918020   1917871   1917437  
  8240.000000   1916736   1915789   1914617   1913248   1911725  
  8230.000000   1910115   1908490   1906916   1905425   1904011  
  8220.000000   1902628   1901230   1899783   1898306   1896846  
  8210.000000   1895486   1894289   1893294   1892493   1891854  
  8200.000000   1891332   1890890   1890506   1890154   1889796  
  8190.000000   1889353   1888729   1887817   1886557   1884944  
  8180.000000   1883060   1881035   1879026   1877168   1875549  
  8170.000000   1874210   1873153   1872373   1871852   1871574  
  8160.000000   1871491   1871524   1871551   1871441   1871083  
  8150.000000   1870431   1869521   1868456   1867368   1866356  
  8140.000000   1865448   1864587   1863663   1862571   1861251  
  8130.000000   1859736   1858125   1856565   1855171   1854006  
  8120.000000   1853045   1852211   1851397   1850525   1849560  
  8110.000000   1848512   1847412   1846278   1845100   1843837  
  8100.000000   1842452   1840922   1839286   1837618   1836033  
  8090.000000   1834620   1833425   1832432   1831573   1830784  
  8080.000000   1830036   1829377   1828917   1828791   1829095  
  8070.000000   1829821   1830839   1831893   1832682   1832911  
  8060.000000   1832403   1831111   1829164   1826796   1824308  
  8050.000000   1821984   1820044   1818620   1817747   1817397  
  8040.000000   1817484   1817908   1818541   1819263   1819953  
  8030.000000   1820511   1820864   1820972   1820836   1820472  
  8020.000000   1819919   1819210   1818393   1817515   1816639  
  8010.000000   1815839   1815178   1814699   1814382   1814164  
  8000.000000   1813929   1813562   1812976   1812152   1811141  
  7990.000000   1810041   1808962   1807974   1807089   1806265  
  7980.000000   1805437   1804561   1803641   1802740   1801948  
  7970.000000   1801347   1800972   1800799   1800759   1800759  
  7960.000000   1800733   1800634   1800451   1800173   1799783  
  7950.000000   1799253   1798567   1797753   1796906   1796181  
  7940.000000   1795753   1795753   1796209   1797015   1797944  
  7930.000000   1798724   1799118   1799008   1798435   1797569  
  7920.000000   1796657   1795918   1795484   1795352   1795412  
  7910.000000   1795487   1795419   1795114   1794582   1793927  
  7900.000000   1793306   1792889   1792791   1793054   1793623  
  7890.000000   1794369   1795116   1795693   1795983   1795949  
  7880.000000   1795653   1795226   1794831   1794602   1794600  
  7870.000000   1794787   1795045   1795219   1795179   1794879  
  7860.000000   1794368   1793786   1793298   1793040   1793058  
  7850.000000   1793296   1793608   1793815   1793770   1793398  
  7840.000000   1792728   1791867   1790964   1790163   1789559  
  7830.000000   1789185   1789016   1788988   1789033   1789103  
  7820.000000   1789174   1789256   1789364   1789522   1789731  
  7810.000000   1789982   1790245   1790485   1790670   1790779  
  7800.000000   1790803   1790736   1790568   1790268   1789790  
  7790.000000   1789082   1788109   1786874   1785440   1783924  
  7780.000000   1782477   1781245   1780325   1779739   1779420  
  7770.000000   1779244   1779063   1778771   1778335   1777811  
  7760.000000   1777325   1777025   1777025   1777352   1777935  
  7750.000000   1778610   1779176   1779447   1779314   1778771  
  7740.000000   1777914   1776908   1775934   1775135   1774579  
  7730.000000   1774252   1774069   1773916   1773685   1773308  
  7720.000000   1772763   1772072   1771280   1770430   1769553  
  7710.000000   1768657   1767742   1766806   1765870   1764974  
  7700.000000   1764176   1763543   1763130   1762964   1763035  
  7690.000000   1763289   1763639   1763976   1764201   1764234  
  7680.000000   1764055   1763688   1763217   1762738   1762351  
  7670.000000   1762114   1762040   1762094   1762211   1762332  
  7660.000000   1762423   1762489   1762564   1762684   1762859  
  7650.000000   1763049   1763174   1763122   1762808   1762186  
  7640.000000   1761292   1760226   1759141   1758199   1757533  
  7630.000000   1757224   1757285   1757675   1758308   1759083  
  7620.000000   1759897   1760656   1761285   1761719   1761921  
  7610.000000   1761863   1761552   1761011   1760305   1759514  
  7600.000000   1758747   1758112   1757711   1757606   1757808  
  7590.000000   1758268   1758879   1759514   1760050   1760419  
  7580.000000   1760621   1760726   1760843   1761077   1761489  
  7570.000000   1762064   1762726   1763354   1763843   1764131  
  7560.000000   1764226   1764191   1764117   1764081   1764128  
  7550.000000   1764256   1764434   1764622   1764795   1764949  
  7540.000000   1765104   1765282   1765500   1765766   1766081  
  7530.000000   1766448   1766881   1767395   1768009   1768721  
  7520.000000   1769512   1770342   1771169   1771963   1772728  
  7510.000000   1773488   1774296   1775193   1776210   1777335  
  7500.000000   1778532   1779728   1780855   1781846   1782671  
  7490.000000   1783328   1783866   1784364   1784934   1785687  
  7480.000000   1786715   1788058   1789700   1791557   1793513  
  7470.000000   1795441   1797243   1798870   1800333   1801680  
  7460.000000   1802980   1804285   1805634   1807031   1808475  
  7450.000000   1809951   1811456   1812971   1814478   1815940  
  7440.000000   1817322   1818607   1819817   1821016   1822306  
  7430.000000   1823791   1825542   1827564   1829787   1832088  
  7420.000000   1834337   1836433   1838340   1840081   1841723  
  7410.000000   1843336   1844970   1846638   1848332   1850035  
  7400.000000   1851744   1853466   1855209   1856971   1858725  
  7390.000000   1860432   1862054   1863591   1865074   1866579  
  7380.000000   1868183   1869937   1871837   1873820   1875794  
  7370.000000   1877664   1879372   1880907   1882299   1883591  
  7360.000000   1884820   1885994   1887113   1888183   1889239  
  7350.000000   1890357   1891635   1893170   1895000   1897099  
  7340.000000   1899367   1901672   1903878   1905897   1907696  
  7330.000000   1909297   1910755   1912128   1913461   1914775  
  7320.000000   1916068   1917319   1918502   1919594   1920581  
  7310.000000   1921471   1922287   1923084   1923921   1924867  
  7300.000000   1925958   1927201   1928553   1929943   1931285  
  7290.000000   1932516   1933611   1934593   1935513   1936430  
  7280.000000   1937380   1938366   1939360   1940318   1941206  
  7270.000000   1942006   1942730   1943401   1944051   1944697  
  7260.000000   1945351   1946009   1946679   1947369   1948104  
  7250.000000   1948908   1949811   1950829   1951980   1953269  
  7240.000000   1954712   1956308   1958057   1959927   1961880  
  7230.000000   1963845   1965774   1967620   1969391   1971110  
  7220.000000   1972849   1974663   1976618   1978741   1981056  
  7210.000000   1983556   1986245   1989107   1992126   1995261  
  7200.000000   1998461   2001656   2004793   2007836   2010805  
  7190.000000   2013742   2016728   2019824   2023074   2026458  
  7180.000000   2029927   2033398   2036806   2040103   2043293  
  7170.000000   2046396   2049469   2052555   2055703   2058929  
  7160.000000   2062254   2065669   2069180   2072775   2076461  
  7150.000000   2080237   2084126   2088145   2092328   2096685  
  7140.000000   2101223   2105903   2110684   2115499   2120325  
  7130.000000   2125142   2129997   2134929   2140004   2145236  
  7120.000000   2150626   2156123   2161688   2167282   2172919  
  7110.000000   2178626   2184452   2190413   2196504   2202668  
  7100.000000   2208858   2215026   2221188   2227378   2233660  
  7090.000000   2240065   2246585   2253156   2259701   2266158  
  7080.000000   2272533   2278895   2285362   2292042   2298981  
  7070.000000   2306125   2313335   2320427   2327246   2333709  
  7060.000000   2339842   2345750   2351587   2357491   2363555  
  7050.000000   2369805   2376212   2382718   2389256   2395777  
  7040.000000   2402245   2408647   2414983   2421271   2427536  
  7030.000000   2433810   2440107   2446423   2452713   2458909  
  7020.000000   2464932   2470732   2476301   2481695   2486998  
  7010.000000   2492314   2497701   2503174   2508675   2514124  
  7000.000000   2519425   2524525   2529402   2534090   2538630  
  6990.000000   2543083   2547479   2551849   2556191   2560512  
  6980.000000   2564789   2569011   2573136   2577137   2580980  
  6970.000000   2584670   2588228   2591714   2595175   2598649  
  6960.000000   2602114   2605522   2608785   2611844   2614665  
  6950.000000   2617282   2619757   2622173   2624575   2626979  
  6940.000000   2629341   2631618   2633765   2635790   2637720  
  6930.000000   2639618   2641521   2643456   2645399   2647322  
  6920.000000   2649183   2650973   2652689   2654351   2655955  
  6910.000000   2657493   2658927   2660229   2661385   2662419  
  6900.000000   2663377   2664318   2665276   2666258   2667233  
  6890.000000   2668159   2668996   2669742   2670420   2671088  
  6880.000000   2671795   2672583   2673463   2674433   2675476  
  6870.000000   2676576   2677711   2678849   2679946   2680943  
  6860.000000   2681783   2682439   2682927   2683316   2683706  
  6850.000000   2684199   2684857   2685685   2686628   2687595  
  6840.000000   2688493   2689263   2689882   2690374   2690775  
  6830.000000   2691131   2691467   2691807   2692166   2692569  
  6820.000000   2693041   2693599   2694229   2694884   2695487  
  6810.000000   2695951   2696206   2696225   2696025   2695671  
  6800.000000   2695244   2694831   2694498   2694294   2694237  
  6790.000000   2694329   2694543   2694835   2695130   2695350  
  6780.000000   2695415   2695281   2694947   2694464   2693914  
  6770.000000   2693387   2692944   2692605   2692342   2692104  
  6760.000000   2691838   2691514   2691131   2690712   2690284  
  6750.000000   2689864   2689454   2689045   2688628   2688208  
  6740.000000   2687805   2687443   2687140   2686895   2686688  
  6730.000000   2686488   2686257   2685975   2685632   2685231  
  6720.000000   2684783   2684297   2683780   2683243   2682696  
  6710.000000   2682158   2681637   2681142   2680658   2680171  
  6700.000000   2679659   2679122   2678571   2678039   2677551  
  6690.000000   2677117   2676711   2676278   2675748   2675069  
  6680.000000   2674219   2673225   2672140   2671030   2669937  
  6670.000000   2668878   2667832   2666776   2665692   2664592  
  6660.000000   2663506   2662475   2661515   2660618   2659733  
  6650.000000   2658797   2657747   2656552   2655213   2653768  
  6640.000000   2652269   2650769   2649306   2647903   2646560  
  6630.000000   2645271   2644016   2642772   2641504   2640184  
  6620.000000   2638786   2637302   2635740   2634123   2632478  
  6610.000000   2630823   2629163   2627490   2625794   2624081  
  6600.000000   2622371   2620704   2619117   2617629   2616230  
  6590.000000   2614882   2613536   2612154   2610724   2609265  
  6580.000000   2607809   2606388   2605011   2603660   2602308  
  6570.000000   2600928   2599519   2598103   2596719   2595395  
  6560.000000   2594136   2592916   2591688   2590410   2589067  
  6550.000000   2587676   2586282   2584927   2583633   2582383  
  6540.000000   2581138   2579844   2578475   2577037   2575575  
  6530.000000   2574151   2572823   2571625   2570561   2569617  
  6520.000000   2568769   2567997   2567287   2566618   2565959  
  6510.000000   2565264   2564481   2563568   2562517   2561356  
  6500.000000   2560147   2558954   2557831   2556792   2555820  
  6490.000000   2554877   2553925   2552949   2551955   2550966  
  6480.000000   2550001   2549062   2548131   2547180   2546183  
  6470.000000   2545137   2544060   2542984   2541947   2540969  
  6460.000000   2540054   2539185   2538339   2537492   2536628  
  6450.000000   2535738   2534819   2533874   2532917   2531974  
  6440.000000   2531088   2530303   2529658   2529155   2528764  
  6430.000000   2528411   2528008   2527479   2526791   2525962  
  6420.000000   2525062   2524175   2523383   2522722   2522194  
  6410.000000   2521765   2521399   2521070   2520776   2520531  
  6400.000000   2520351   2520233   2520155   2520081   2519977  
  6390.000000   2519822   2519624   2519406   2519197   2519016  
  6380.000000   2518866   2518731   2518586   2518412   2518195  
  6370.000000   2517932   2517621   2517259   2516838   2516349  
  6360.000000   2515791   2515175   2514525   2513872   2513242  
  6350.000000   2512653   2512106   2511603   2511136   2510712  
  6340.000000   2510331   2509997   2509694   2509396   2509057  
  6330.000000   2508633   2508092   2507424   2506642   2505781  
  6320.000000   2504879   2503969   2503070   2502193   2501334  
  6310.000000   2500497   2499677   2498874   2498072   2497257  
  6300.000000   2496399   2495482   2494488   2493421   2492290  
  6290.000000   2491110   2489888   2488625   2487309   2485937  
  6280.000000   2484508   2483042   2481558   2480084   2478627  
  6270.000000   2477181   2475720   2474220   2472659   2471036  
  6260.000000   2469365   2467672   2465980   2464301   2462632  
  6250.000000   2460964   2459285   2457593   2455896   2454208  
  6240.000000   2452544   2450911   2449304   2447717   2446137  
  6230.000000   2444554   2442959   2441345   2439702   2438020  
  6220.000000   2436290   2434517   2432719   2430928   2429182  
  6210.000000   2427510   2425920   2424398   2422910   2421413  
  6200.000000   2419878   2418294   2416673   2415043   2413435  
  6190.000000   2411869   2410354   2408880   2407437   2406011  
  6180.000000   2404602   2403210   2401843   2400501   2399181  
  6170.000000   2397872   2396561   2395239   2393903   2392558  
  6160.000000   2391214   2389886   2388594   2387354   2386182  
  6150.000000   2385085   2384058   2383080   2382118   2381128  
  6140.000000   2380073   2378925   2377680   2376357   2374989  
  6130.000000   2373617   2372278   2370994   2369776   2368622  
  6120.000000   2367524   2366473   2365461   2364476   2363512  
  6110.000000   2362557   2361607   2360656   2359712   2358777  
  6100.000000   2357862   2356967   2356097   2355246   2354421  
  6090.000000   2353630   2352899   2352251   2351718   2351311  
  6080.000000   2351032   2350859   2350769   2350727   2350714  
  6070.000000   2350709   2350716   2350726   2350752   2350789  
  6060.000000   2350854   2350951   2351108   2351337   2351664  
  6050.000000   2352093   2352635   2353281   2354037   2354900  
  6040.000000   2355891   2357017   2358298   2359722   2361279  
  6030.000000   2362930   2364647   2366396   2368174   2369977  
  6020.000000   2371827   2373727   2375682   2377669   2379672  
  6010.000000   2381655   2383610   2385526   2387419   2389298  
  6000.000000   2391188   2393093   2395030   2397002   2399029  
  5990.000000   2401119   2403294   2405561   2407928   2410387  
  5980.000000   2412939   2415574   2418304   2421129   2424068  
  5970.000000   2427116   2430272   2433507   2436804   2440128  
  5960.000000   2443471   2446816   2450169   2453521   2456875  
  5950.000000   2460220   2463561   2466900   2470260   2473669  
  5940.000000   2477156   2480741   2484431   2488214   2492071  
  5930.000000   2495983   2499933   2503915   2507915   2511912  
  5920.000000   2515866   2519726   2523435   2526953   2530265  
  5910.000000   2533389   2536361   2539228   2542029   2544793  
  5900.000000   2547529   2550252   2552973   2555725   2558530  
  5890.000000   2561418   2564383   2567407   2570439   2573431  
  5880.000000   2576335   2579126   2581796   2584350   2586795  
  5870.000000   2589129   2591351   2593458   2595462   2597391  
  5860.000000   2599289   2601203   2603173   2605219   2607343  
  5850.000000   2609541   2611805   2614138   2616552   2619061  
  5840.000000   2621673   2624377   2627152   2629960   2632771  
  5830.000000   2635558   2638306   2641008   2643662   2646262  
  5820.000000   2648803   2651281   2653703   2656082   2658429  
  5810.000000   2660755   2663045   2665283   2667428   2669473  
  5800.000000   2671403   2673265   2675091   2676951   2678855  
  5790.000000   2680811   2682741   2684567   2686152   2687388  
  5780.000000   2688151   2688372   2687992   2687018   2685475  
  5770.000000   2683458   2681078   2678490   2675829   2673227  
  5760.000000   2670752   2668449   2666301   2664299   2662415  
  5750.000000   2660653   2659017   2657517   2656149   2654885  
  5740.000000   2653690   2652517   2651348   2650176   2649034  
  5730.000000   2647949   2646957   2646061   2645258   2644517  
  5720.000000   2643823   2643158   2642534   2641959   2641452  
  5710.000000   2641014   2640645   2640330   2640065   2639848  
  5700.000000   2639685   2639580   2639526   2639501   2639469  
  5690.000000   2639397   2639256   2639045   2638768   2638448  
  5680.000000   2638088   2637689   2637220   2636655   2635954  
  5670.000000   2635100   2634076   2632882   2631510   2629963  
  5660.000000   2628234   2626343   2624320   2622229   2620135  
  5650.000000   2618107   2616183   2614377   2612663   2611008  
  5640.000000   2609374   2607747   2606131   2604543   2603005  
  5630.000000   2601524   2600096   2598703   2597334   2595980  
  5620.000000   2594653   2593363   2592126   2590942   2589806  
  5610.000000   2588702   2587619   2586553   2585513   2584509  
  5600.000000   2583548   2582627   2581734   2580850   2579964  
  5590.000000   2579071   2578180   2577297   2576428   2575563  
  5580.000000   2574682   2573766   2572798   2571781   2570727  
  5570.000000   2569662   2568606   2567574   2566564   2565570  
  5560.000000   2564580   2563585   2562574   2561541   2560471  
  5550.000000   2559351   2558165   2556913   2555607   2554277  
  5540.000000   2552960   2551691   2550484   2549334   2548216  
  5530.000000   2547105   2545980   2544843   2543705   2542587  
  5520.000000   2541502   2540448   2539405   2538352   2537268  
  5510.000000   2536151   2535008   2533859   2532718   2531593  
  5500.000000   2530475   2529350   2528200   2527017   2525796  
  5490.000000   2524538   2523238   2521889   2520476   2518996  
  5480.000000   2517447   2515849   2514224   2512600   2510987  
  5470.000000   2509388   2507785   2506161   2504502   2502804  
  5460.000000   2501068   2499294   2497473   2495591   2493630  
  5450.000000   2491587   2489478   2487341   2485231   2483193  
  5440.000000   2481254   2479412   2477647   2475926   2474234  
  5430.000000   2472563   2470924   2469321   2467756   2466210  
  5420.000000   2464673   2463133   2461617   2460166   2458847  
  5410.000000   2457702   2456758   2455982   2455338   2454763  
  5400.000000   2454234   2453739   2453312   2452979   2452778  
  5390.000000   2452707   2452768   2452934   2453216   2453620  
  5380.000000   2454196   2454969   2455970   2457166   2458531  
  5370.000000   2459984   2461495   2463019   2464588   2466209  
  5360.000000   2467960   2469858   2471977   2474323   2476966  
  5350.000000   2479915   2483246   2486956   2491104   2495649  
  5340.000000   2500617   2505950   2511688   2517793   2524331  
  5330.000000   2531266   2538652   2546425   2554624   2563185  
  5320.000000   2572188   2581619   2591614   2602182   2613457  
  5310.000000   2625407   2638113   2651490   2665590   2680334  
  5300.000000   2695800   2711946   2728892   2746630   2765284  
  5290.000000   2784831   2805340   2826706   2848896   2871729  
  5280.000000   2895139   2918996   2943337   2968171   2993639  
  5270.000000   3019790   3046678   3074190   3102162   3130347  
  5260.000000   3158538   3186609   3214544   3242421   3270311  
  5250.000000   3298259   3326158   3353853   3381057   3407590  
  5240.000000   3433259   3458096   3482118   3505517   3528355  
  5230.000000   3550768   3572681   3594076   3614754   3634656  
  5220.000000   3653628   3671731   3688942   3705441   3721268  
  5210.000000   3736592   3751369   3765643   3779247   3792150  
  5200.000000   3804183   3815390   3825717   3835310   3844171  
  5190.000000   3852436   3860053   3867082   3873424   3879130  
  5180.000000   3884134   3888535   3892310   3895561   3898240  
  5170.000000   3900409   3901999   3903069   3903589   3903658  
  5160.000000   3903275   3902529   3901382   3899869   3897915  
  5150.000000   3895544   3892715   3889496   3885893   3881990  
  5140.000000   3877788   3873342   3868632   3863701   3858545  
  5130.000000   3853227   3847764   3842218   3836588   3830896  
  5120.000000   3825116   3819251   3813280   3807222   3801083  
  5110.000000   3794895   3788669   3782429   3776181   3769943  
  5100.000000   3763723   3757541   3751404   3745323   3739293  
  5090.000000   3733314   3727381   3721504   3715692   3709963  
  5080.000000   3704323   3698770   3693279   3687819   3682350  
  5070.000000   3676845   3671287   3665681   3660032   3654355  
  5060.000000   3648646   3642901   3637099   3631227   3625271  
  5050.000000   3619233   3613111   3606917   3600647   3594306  
  5040.000000   3587888   3581400   3574848   3568254   3561634  
  5030.000000   3555013   3548399   3541800   3535214   3528640  
  5020.000000   3522085   3515557   3509076   3502655   3496316  
  5010.000000   3490063   3483911   3477854   3471911   3466081  
  5000.000000   3460391   3454842   3449465   3444253   3439237  
  4990.000000   3434410   3429807   3425424   3421305   3417437  
  4980.000000   3413854   3410525   3407474   3404666   3402136  
  4970.000000   3399866   3397915   3396280   3395022   3394124  
  4960.000000   3393627   3393489   3393737   3394328   3395299  
  4950.000000   3396616   3398326   3400398   3402869   3405695  
  4940.000000   3408905   3412450   3416361   3420595   3425186  
  4930.000000   3430091   3435339   3440881   3446742   3452876  
  4920.000000   3459312   3466017   3473026   3480317   3487925  
  4910.000000   3495831   3504063   3512599   3521448   3530574  
  4900.000000   3539959   3549549   3559306   3569180   3579133  
  4890.000000   3589134   3599147   3609146   3619079   3628904  
  4880.000000   3638548   3647964   3657081   3665875   3674290  
  4870.000000   3682324   3689924   3697093   3703785   3710019  
  4860.000000   3715776   3721112   3726041   3730639   3734917  
  4850.000000   3738932   3742668   3746158   3749382   3752378  
  4840.000000   3755146   3757745   3760191   3762540   3764803  
  4830.000000   3767016   3769177   3771310   3773410   3775491  
  4820.000000   3777546   3779579   3781576   3783539   3785462  
  4810.000000   3787359   3789241   3791131   3793045   3794998  
  4800.000000   3796993   3799030   3801101   3803199   3805316  
  4790.000000   3807444   3809573   3811695   3813802   3815890  
  4780.000000   3817956   3820009   3822050   3824088   3826110  
  4770.000000   3828105   3830043   3831905   3833668   3835336  
  4760.000000   3836911   3838423   3839880   3841300   3842664  
  4750.000000   3843953   3845119   3846131   3846953   3847582  
  4740.000000   3848020   3848305   3848465   3848546   3848571  
  4730.000000   3848569   3848540   3848489   3848400   3848267  
  4720.000000   3848078   3847826   3847511   3847137   3846717  
  4710.000000   3846268   3845819   3845395   3845032   3844760  
  4700.000000   3844609   3844596   3844736   3845030   3845478  
  4690.000000   3846071   3846810   3847687   3848701   3849836  
  4680.000000   3851074   3852367   3853670   3854910   3856041  
  4670.000000   3857008   3857811   3858454   3858995   3859485  
  4660.000000   3860003   3860608   3861359   3862292   3863442  
  4650.000000   3864822   3866446   3868308   3870399   3872687  
  4640.000000   3875137   3877699   3880332   3882998   3885671  
  4630.000000   3888339   3890992   3893624   3896222   3898765  
  4620.000000   3901222   3903560   3905740   3907734   3909510  
  4610.000000   3911060   3912374   3913474   3914377   3915132  
  4600.000000   3915769   3916345   3916875   3917392   3917877  
  4590.000000   3918328   3918702   3918981   3919125   3919126  
  4580.000000   3918962   3918643   3918165   3917550   3916801  
  4570.000000   3915944   3914985   3913944   3912822   3911631  
  4560.000000   3910364   3909031   3907629   3906172   3904667  
  4550.000000   3903132   3901574   3899999   3898403   3896781  
  4540.000000   3895128   3893446   3891754   3890075   3888445  
  4530.000000   3886891   3885443   3884104   3882889   3881777  
  4520.000000   3880783   3879888   3879125   3878486   3878025  
  4510.000000   3877738   3877694   3877892   3878418   3879274  
  4500.000000   3880556   3882261   3884476   3887182   3890455  
  4490.000000   3894270   3898714   3903776   3909558   3916056  
  4480.000000   3923360   3931437   3940334   3949971   3960352  
  4470.000000   3971370   3983009   3995155   4007784   4020788  
  4460.000000   4034142   4047745   4061574   4075543   4089638  
  4450.000000   4103796   4118010   4132247   4146511   4160794  
  4440.000000   4175104   4189449   4203821   4218225   4232623  
  4430.000000   4247007   4261311   4275516   4289532   4303334  
  4420.000000   4316813   4329935   4342583   4354728   4366259  
  4410.000000   4377163   4387348   4396820   4405507   4413434  
  4400.000000   4420555   4426930   4432557   4437544   4441946  
  4390.000000   4445908   4449519   4452930   4456218   4459493  
  4380.000000   4462786   4466153   4469587   4473115   4476736  
  4370.000000   4480487   4484395   4488512   4492869   4497498  
  4360.000000   4502397   4507556   4512924   4518461   4524080  
  4350.000000   4529735   4535321   4540811   4546117   4551255  
  4340.000000   4556176   4560918   4565415   4569606   4573271  
  4330.000000   4576138   4577806   4577910   4576126   4572354  
  4320.000000   4566700   4559562   4551495   4543182   4535228  
  4310.000000   4528137   4522169   4517417   4513774   4511074  
  4300.000000   4509099   4507671   4506654   4505953   4505520  
  4290.000000   4505298   4505278   4505420   4505740   4506219  
  4280.000000   4506878   4507704   4508688   4509808   4511027  
  4270.000000   4512328   4513667   4515011   4516261   4517290  
  4260.000000   4517881   4517797   4516781   4514651   4511319  
  4250.000000   4506861   4501477   4495500   4489287   4483206  
  4240.000000   4477528   4472448   4468015   4464212   4460928  
  4230.000000   4458036   4455389   4452862   4450360   4447811  
  4220.000000   4445199   4442518   4439826   4437161   4434618  
  4210.000000   4432243   4430112   4428242   4426665   4425360  
  4200.000000   4424321   4423505   4422893   4422434   4422112  
  4190.000000   4421880   4421739   4421653   4421649   4421713  
  4180.000000   4421892   4422183   4422645   4423280   4424153  
  4170.000000   4425279   4426739   4428556   4430821   4433541  
  4160.000000   4436782   4440511   4444754   4449446   4454599  
  4150.000000   4460148   4466123   4472476   4479256   4486425  
  4140.000000   4494035   4502047   4510513   4519393   4528734  
  4130.000000   4538493   4548708   4559324   4570367   4581781  
  4120.000000   4593591   4605754   4618309   4631236   4644585  
  4110.000000   4658343   4672550   4687177   4702227   4717637  
  4100.000000   4733371   4749347   4765523   4781838   4798277  
  4090.000000   4814820   4831472   4848232   4865094   4882056  
  4080.000000   4899091   4916199   4933344   4950522   4967670  
  4070.000000   4984756   5001665   5018333   5034625   5050495  
  4060.000000   5065839   5080667   5094906   5108588   5121640  
  4050.000000   5134102   5145913   5157154   5167798   5177960  
  4040.000000   5187601   5196798   5205447   5213570   5221030  
  4030.000000   5227854   5233933   5239322   5243942   5247842  
  4020.000000   5250919   5253229   5254748   5255564   5255642  
  4010.000000   5255125   5254092   5252555   5250287   5247343  
  4000.000000   5244056  
##END= 
