##TITLE= Sample 005 By ssteindl date Montag, November 26 2018
##JCAMP-DX= 4.24
##DATA TYPE= INFRARED SPECTRUM
##ORIGIN= Exported PE Spectrum Data File
##OWNER= Sandra Steindl
##DATE= 18/11/26
##TIME= 13:32:59.00
##SPECTROMETER/DATA SYSTEM= PERKIN-ELMER Frontier FT-IR/NIR IR
##INSTRUMENT PARAMETERS=
  APODIZATION=stark
  DETECTOR=INGAAS
##RESOLUTION= 16.000000
##DELTAX= -2.000000
##XUNITS= 1/CM
##YUNITS= A
##XFACTOR= 1.00
##YFACTOR= 0.00000011920928955078
##FIRSTX= 10000.00
##LASTX= 4000.00
##NPOINTS= 3001
##FIRSTY= 0.226208
##MAXY= 0.621394
##MINY= 0.197302
##XYDATA= (X++(Y..Y))
 10000.000000   1897568   1906080   1912848   1915305   1912536  
  9990.000000   1905343   1895084   1883338   1872067   1863157  
  9980.000000   1857550   1855120   1854893   1855598   1856003  
  9970.000000   1855530   1854387   1853485   1853907   1856477  
  9960.000000   1861331   1867852   1874930   1881336   1886210  
  9950.000000   1889220   1890615   1890959   1890872   1890811  
  9940.000000   1890949   1891238   1891464   1891365   1890686  
  9930.000000   1889222   1886834   1883495   1879262   1874363  
  9920.000000   1869102   1863905   1859175   1855258   1852364  
  9910.000000   1850560   1849813   1850001   1850946   1852387  
  9900.000000   1853976   1855285   1855903   1855549   1854241  
  9890.000000   1852312   1850394   1849166   1849174   1850561  
  9880.000000   1853066   1856056   1858769   1860530   1860938  
  9870.000000   1859956   1857871   1855205   1852564   1850522  
  9860.000000   1849506   1849735   1851163   1853479   1856134  
  9850.000000   1858472   1859870   1859964   1858726   1856543  
  9840.000000   1854013   1851799   1850320   1849670   1849592  
  9830.000000   1849657   1849465   1848782   1847595   1845999  
  9820.000000   1844080   1841787   1838932   1835294   1830781  
  9810.000000   1825595   1820249   1815492   1812088   1810595  
  9800.000000   1811193   1813628   1817288   1821338   1824926  
  9790.000000   1827289   1827936   1826666   1823674   1819476  
  9780.000000   1814880   1810791   1808036   1807140   1808208  
  9770.000000   1810899   1814547   1818366   1821631   1823853  
  9760.000000   1824798   1824486   1823117   1820980   1818457  
  9750.000000   1815943   1813885   1812662   1812514   1813431  
  9740.000000   1815083   1816951   1818412   1819086   1818900  
  9730.000000   1818225   1817653   1817764   1818844   1820720  
  9720.000000   1822815   1824309   1824431   1822693   1819029  
  9710.000000   1813818   1807765   1801760   1796654   1793134  
  9700.000000   1791517   1791741   1793284   1795318   1796858  
  9690.000000   1797072   1795536   1792392   1788311   1784219  
  9680.000000   1780975   1778963   1778040   1777522   1776645  
  9670.000000   1774807   1771966   1768567   1765380   1763141  
  9660.000000   1762245   1762679   1764098   1766122   1768557  
  9650.000000   1771508   1775261   1780023   1785651   1791556  
  9640.000000   1796797   1800424   1801810   1800918   1798285  
  9630.000000   1794800   1791341   1788466   1786305   1784607  
  9620.000000   1782975   1781035   1778576   1775516   1771841  
  9610.000000   1767568   1762742   1757581   1752510   1748242  
  9600.000000   1745584   1745267   1747633   1752497   1759133  
  9590.000000   1766462   1773363   1778926   1782664   1784429  
  9580.000000   1784387   1782755   1779852   1775983   1771604  
  9570.000000   1767253   1763544   1760998   1759876   1760153  
  9560.000000   1761441   1763288   1765189   1766937   1768499  
  9550.000000   1770081   1771872   1773919   1776056   1777885  
  9540.000000   1778988   1778956   1777588   1774810   1770723  
  9530.000000   1765521   1759515   1753174   1747104   1742062  
  9520.000000   1738753   1737702   1739014   1742329   1746837  
  9510.000000   1751508   1755341   1757628   1758103   1756919  
  9500.000000   1754585   1751733   1749017   1746944   1745839  
  9490.000000   1745793   1746671   1748141   1749748   1751026  
  9480.000000   1751620   1751394   1750433   1749011   1747428  
  9470.000000   1745881   1744386   1742811   1741049   1739153  
  9460.000000   1737427   1736344   1736317   1737500   1739614  
  9450.000000   1742027   1743957   1744780   1744304   1742826  
  9440.000000   1741037   1739665   1739167   1739526   1740294  
  9430.000000   1740895   1740882   1740221   1739220   1738446  
  9420.000000   1738382   1739270   1740932   1742873   1744446  
  9410.000000   1745061   1744356   1742177   1738585   1733724  
  9400.000000   1727857   1721339   1714689   1708552   1703595  
  9390.000000   1700332   1698949   1699238   1700673   1702621  
  9380.000000   1704550   1706213   1707620   1708950   1710366  
  9370.000000   1711883   1713394   1714700   1715736   1716555  
  9360.000000   1717381   1718382   1719557   1720583   1720917  
  9350.000000   1720004   1717589   1713911   1709692   1705925  
  9340.000000   1703491   1702880   1703970   1706165   1708607  
  9330.000000   1710600   1711847   1712498   1713002   1713785  
  9320.000000   1715045   1716576   1717866   1718258   1717290  
  9310.000000   1714875   1711422   1707691   1704575   1702867  
  9300.000000   1703025   1705103   1708682   1713029   1717248  
  9290.000000   1720541   1722367   1722564   1721348   1719262  
  9280.000000   1717003   1715226   1714327   1714347   1714992  
  9270.000000   1715788   1716224   1715938   1714753   1712752  
  9260.000000   1710179   1707370   1704635   1702180   1700112  
  9250.000000   1698388   1696866   1695300   1693443   1691149  
  9240.000000   1688458   1685657   1683202   1681661   1681491  
  9230.000000   1682888   1685646   1689180   1692742   1695601  
  9220.000000   1697326   1697787   1697181   1695816   1694012  
  9210.000000   1691952   1689731   1687415   1685194   1683418  
  9200.000000   1682521   1682880   1684556   1687290   1690450  
  9190.000000   1693327   1695309   1696161   1696073   1695505  
  9180.000000   1694967   1694723   1694715   1694516   1693571  
  9170.000000   1691425   1687998   1683630   1678989   1674881  
  9160.000000   1671988   1670719   1671077   1672759   1675256  
  9150.000000   1678019   1680570   1682561   1683826   1684350  
  9140.000000   1684262   1683763   1683100   1682486   1682109  
  9130.000000   1682036   1682268   1682717   1683283   1683863  
  9120.000000   1684351   1684670   1684749   1684567   1684141  
  9110.000000   1683573   1683024   1682717   1682832   1683454  
  9100.000000   1684493   1685719   1686821   1687512   1687619  
  9090.000000   1687123   1686160   1684915   1683552   1682118  
  9080.000000   1680593   1678914   1677099   1675269   1673658  
  9070.000000   1672542   1672121   1672464   1673442   1674836  
  9060.000000   1676390   1677949   1679472   1681021   1682674  
  9050.000000   1684433   1686168   1687632   1688526   1688611  
  9040.000000   1687791   1686159   1683970   1681565   1679272  
  9030.000000   1677327   1675804   1674634   1673606   1672479  
  9020.000000   1671033   1669169   1666946   1664598   1662480  
  9010.000000   1660960   1660295   1660525   1661455   1662687  
  9000.000000   1663762   1664308   1664185   1663531   1662700  
  8990.000000   1662123   1662150   1662919   1664325   1666044  
  8980.000000   1667663   1668786   1669171   1668728   1667530  
  8970.000000   1665747   1663619   1661388   1659279   1657485  
  8960.000000   1656149   1655353   1655092   1655309   1655915  
  8950.000000   1656844   1658061   1659554   1661296   1663187  
  8940.000000   1665023   1666514   1667370   1667405   1666640  
  8930.000000   1665344   1663987   1663093   1663080   1664094  
  8920.000000   1665960   1668219   1670264   1671509   1671555  
  8910.000000   1670301   1667973   1665044   1662112   1659766  
  8900.000000   1658455   1658408   1659549   1661583   1664039  
  8890.000000   1666450   1668423   1669783   1670587   1671076  
  8880.000000   1671564   1672244   1673140   1673988   1674398  
  8870.000000   1673917   1672277   1669480   1665874   1662081  
  8860.000000   1658830   1656813   1656480   1657969   1661052  
  8850.000000   1665238   1669879   1674302   1677943   1680432  
  8840.000000   1681675   1681812   1681192   1680236   1679368  
  8830.000000   1678892   1678955   1679528   1680470   1681611  
  8820.000000   1682808   1684002   1685162   1686266   1687222  
  8810.000000   1687880   1688051   1687588   1686460   1684805  
  8800.000000   1682936   1681268   1680222   1680099   1681012  
  8790.000000   1682856   1685338   1688040   1690509   1692354  
  8780.000000   1693326   1693380   1692688   1691606   1690612  
  8770.000000   1690169   1690610   1692018   1694200   1696727  
  8760.000000   1699061   1700727   1701452   1701248   1700380  
  8750.000000   1699270   1698342   1697890   1698011   1698601  
  8740.000000   1699436   1700262   1700888   1701232   1701329  
  8730.000000   1701297   1701284   1701428   1701827   1702520  
  8720.000000   1703484   1704628   1705817   1706902   1707774  
  8710.000000   1708411   1708896   1709413   1710186   1711399  
  8700.000000   1713120   1715239   1717496   1719529   1720990  
  8690.000000   1721640   1721433   1720517   1719202   1717884  
  8680.000000   1716939   1716658   1717169   1718440   1720279  
  8670.000000   1722405   1724501   1726286   1727571   1728287  
  8660.000000   1728503   1728383   1728151   1728002   1728084  
  8650.000000   1728443   1729066   1729894   1730872   1731979  
  8640.000000   1733232   1734672   1736327   1738185   1740184  
  8630.000000   1742212   1744150   1745876   1747320   1748457  
  8620.000000   1749342   1750080   1750813   1751688   1752816  
  8610.000000   1754262   1756013   1758004   1760126   1762274  
  8600.000000   1764363   1766354   1768217   1769930   1771430  
  8590.000000   1772635   1773462   1773885   1773973   1773905  
  8580.000000   1773925   1774259   1775020   1776148   1777411  
  8570.000000   1778476   1779034   1778921   1778188   1777083  
  8560.000000   1775952   1775140   1774868   1775213   1776118  
  8550.000000   1777475   1779192   1781222   1783527   1786027  
  8540.000000   1788548   1790818   1792530   1793437   1793493  
  8530.000000   1792855   1791902   1791057   1790700   1790990  
  8520.000000   1791849   1792998   1794071   1794799   1795098  
  8510.000000   1795135   1795255   1795882   1797350   1799797  
  8500.000000   1803088   1806840   1810530   1813606   1815647  
  8490.000000   1816460   1816151   1815074   1813735   1812647  
  8480.000000   1812199   1812557   1813635   1815158   1816778  
  8470.000000   1818190   1819218   1819848   1820179   1820367  
  8460.000000   1820532   1820743   1821026   1821399   1821907  
  8450.000000   1822638   1823702   1825178   1827047   1829185  
  8440.000000   1831388   1833427   1835113   1836334   1837076  
  8430.000000   1837382   1837327   1836978   1836415   1835746  
  8420.000000   1835130   1834767   1834836   1835449   1836567  
  8410.000000   1838017   1839507   1840761   1841603   1842044  
  8400.000000   1842259   1842509   1843020   1843866   1844934  
  8390.000000   1845961   1846649   1846790   1846358   1845528  
  8380.000000   1844613   1843956   1843802   1844242   1845172  
  8370.000000   1846377   1847577   1848550   1849161   1849402  
  8360.000000   1849358   1849173   1849000   1848932   1848979  
  8350.000000   1849046   1848963   1848515   1847517   1845903  
  8340.000000   1843780   1841448   1839320   1837839   1837333  
  8330.000000   1837920   1839439   1841484   1843518   1845032  
  8320.000000   1845688   1845398   1844332   1842837   1841329  
  8310.000000   1840154   1839502   1839378   1839643   1840088  
  8300.000000   1840510   1840770   1840813   1840660   1840360  
  8290.000000   1839967   1839496   1838932   1838236   1837382  
  8280.000000   1836377   1835290   1834227   1833331   1832720  
  8270.000000   1832483   1832615   1833055   1833651   1834223  
  8260.000000   1834579   1834560   1834070   1833081   1831641  
  8250.000000   1829851   1827859   1825805   1823814   1821956  
  8240.000000   1820252   1818681   1817198   1815781   1814431  
  8230.000000   1813215   1812228   1811582   1811345   1811509  
  8220.000000   1811980   1812588   1813140   1813458   1813431  
  8210.000000   1813021   1812269   1811260   1810101   1808891  
  8200.000000   1807713   1806638   1805715   1804980   1804420  
  8190.000000   1803981   1803537   1802942   1802041   1800751  
  8180.000000   1799077   1797132   1795100   1793178   1791516  
  8170.000000   1790161   1789050   1788034   1786939   1785630  
  8160.000000   1784059   1782285   1780441   1778707   1777246  
  8150.000000   1776174   1775526   1775253   1775234   1775297  
  8140.000000   1775266   1774982   1774348   1773332   1771983  
  8130.000000   1770406   1768731   1767077   1765531   1764130  
  8120.000000   1762883   1761783   1760826   1760016   1759345  
  8110.000000   1758782   1758254   1757656   1756880   1755855  
  8100.000000   1754588   1753163   1751734   1750455   1749444  
  8090.000000   1748720   1748212   1747789   1747318   1746721  
  8080.000000   1745999   1745234   1744529   1743987   1743645  
  8070.000000   1743484   1743432   1743402   1743317   1743124  
  8060.000000   1742793   1742292   1741587   1740623   1739362  
  8050.000000   1737779   1735909   1733827   1731654   1729518  
  8040.000000   1727538   1725814   1724410   1723386   1722777  
  8030.000000   1722615   1722901   1723589   1724575   1725686  
  8020.000000   1726715   1727435   1727670   1727299   1726319  
  8010.000000   1724821   1723001   1721117   1719449   1718243  
  8000.000000   1717657   1717724   1718329   1719235   1720126  
  7990.000000   1720693   1720710   1720095   1718933   1717439  
  7980.000000   1715903   1714588   1713672   1713201   1713101  
  7970.000000   1713223   1713408   1713529   1713521   1713378  
  7960.000000   1713121   1712784   1712385   1711933   1711435  
  7950.000000   1710901   1710362   1709847   1709384   1708976  
  7940.000000   1708604   1708231   1707817   1707343   1706811  
  7930.000000   1706257   1705733   1705299   1705007   1704899  
  7920.000000   1704995   1705291   1705752   1706299   1706819  
  7910.000000   1707163   1707191   1706796   1705957   1704751  
  7900.000000   1703359   1702016   1700960   1700366   1700294  
  7890.000000   1700687   1701377   1702159   1702834   1703276  
  7880.000000   1703445   1703381   1703173   1702907   1702642  
  7870.000000   1702384   1702101   1701734   1701247   1700633  
  7860.000000   1699937   1699241   1698648   1698247   1698088  
  7850.000000   1698169   1698425   1698754   1699037   1699177  
  7840.000000   1699126   1698901   1698577   1698270   1698097  
  7830.000000   1698138   1698409   1698853   1699356   1699780  
  7820.000000   1700002   1699953   1699624   1699069   1698374  
  7810.000000   1697624   1696874   1696138   1695398   1694624  
  7800.000000   1693801   1692947   1692107   1691352   1690737  
  7790.000000   1690297   1690018   1689858   1689757   1689658  
  7780.000000   1689533   1689371   1689190   1688992   1688775  
  7770.000000   1688502   1688131   1687628   1686991   1686274  
  7760.000000   1685575   1685032   1684769   1684881   1685376  
  7750.000000   1686193   1687184   1688166   1688941   1689354  
  7740.000000   1689309   1688788   1687849   1686594   1685159  
  7730.000000   1683663   1682209   1680844   1679582   1678405  
  7720.000000   1677284   1676211   1675199   1674310   1673616  
  7710.000000   1673204   1673133   1673416   1674009   1674806  
  7700.000000   1675667   1676429   1676956   1677140   1676946  
  7690.000000   1676390   1675555   1674555   1673522   1672576  
  7680.000000   1671804   1671251   1670912   1670760   1670744  
  7670.000000   1670826   1670971   1671162   1671371   1671555  
  7660.000000   1671638   1671529   1671144   1670436   1669440  
  7650.000000   1668258   1667055   1665996   1665202   1664702  
  7640.000000   1664423   1664235   1663995   1663626   1663150  
  7630.000000   1662690   1662419   1662483   1662933   1663683  
  7620.000000   1664546   1665274   1665667   1665611   1665138  
  7610.000000   1664377   1663524   1662759   1662203   1661900  
  7600.000000   1661832   1661955   1662232   1662640   1663166  
  7590.000000   1663787   1664454   1665092   1665625   1665996  
  7580.000000   1666202   1666281   1666313   1666366   1666491  
  7570.000000   1666689   1666932   1667182   1667422   1667673  
  7560.000000   1667987   1668421   1669017   1669771   1670639  
  7550.000000   1671543   1672401   1673151   1673766   1674256  
  7540.000000   1674658   1675024   1675415   1675894   1676519  
  7530.000000   1677336   1678362   1679566   1680875   1682166  
  7520.000000   1683307   1684178   1684721   1684955   1684982  
  7510.000000   1684953   1685033   1685348   1685969   1686891  
  7500.000000   1688058   1689369   1690729   1692051   1693291  
  7490.000000   1694428   1695476   1696463   1697436   1698440  
  7480.000000   1699526   1700730   1702084   1703597   1705277  
  7470.000000   1707106   1709055   1711065   1713063   1714958  
  7460.000000   1716665   1718117   1719305   1720277   1721149  
  7450.000000   1722068   1723178   1724578   1726302   1728299  
  7440.000000   1730462   1732657   1734770   1736725   1738499  
  7430.000000   1740103   1741581   1742979   1744355   1745759  
  7420.000000   1747246   1748856   1750611   1752497   1754460  
  7410.000000   1756422   1758306   1760075   1761746   1763398  
  7400.000000   1765132   1767029   1769111   1771310   1773492  
  7390.000000   1775494   1777195   1778553   1779625   1780543  
  7380.000000   1781471   1782551   1783852   1785374   1787064  
  7370.000000   1788854   1790693   1792565   1794479   1796460  
  7360.000000   1798516   1800637   1802785   1804909   1806955  
  7350.000000   1808867   1810607   1812147   1813491   1814670  
  7340.000000   1815755   1816845   1818045   1819450   1821097  
  7330.000000   1822975   1825009   1827101   1829146   1831077  
  7320.000000   1832864   1834523   1836079   1837555   1838954  
  7310.000000   1840272   1841512   1842694   1843866   1845084  
  7300.000000   1846386   1847772   1849189   1850560   1851807  
  7290.000000   1852892   1853833   1854698   1855576   1856536  
  7280.000000   1857595   1858715   1859825   1860849   1861751  
  7270.000000   1862544   1863291   1864081   1864989   1866060  
  7260.000000   1867297   1868666   1870121   1871609   1873095  
  7250.000000   1874539   1875913   1877178   1878309   1879286  
  7240.000000   1880135   1880896   1881657   1882498   1883505  
  7230.000000   1884714   1886146   1887775   1889577   1891521  
  7220.000000   1893597   1895804   1898163   1900692   1903418  
  7210.000000   1906337   1909444   1912688   1916013   1919326  
  7200.000000   1922551   1925615   1928504   1931232   1933880  
  7190.000000   1936540   1939318   1942279   1945456   1948814  
  7180.000000   1952292   1955808   1959303   1962741   1966137  
  7170.000000   1969518   1972944   1976456   1980098   1983873  
  7160.000000   1987782   1991782   1995844   1999918   2003990  
  7150.000000   2008053   2012150   2016339   2020705   2025305  
  7140.000000   2030173   2035266   2040516   2045808   2051064  
  7130.000000   2056226   2061314   2066371   2071487   2076717  
  7120.000000   2082115   2087670   2093371   2099179   2105088  
  7110.000000   2111091   2117211   2123449   2129816   2136288  
  7100.000000   2142859   2149510   2156255   2163097   2170051  
  7090.000000   2177090   2184176   2191235   2198215   2205079  
  7080.000000   2211848   2218576   2225346   2232220   2239230  
  7070.000000   2246356   2253550   2260750   2267913   2275024  
  7060.000000   2282088   2289116   2296110   2303058   2309940  
  7050.000000   2316750   2323496   2330213   2336933   2343679  
  7040.000000   2350437   2357171   2363831   2370386   2376832  
  7030.000000   2383208   2389555   2395912   2402273   2408606  
  7020.000000   2414855   2420991   2427012   2432975   2438942  
  7010.000000   2444974   2451070   2457182   2463210   2469062  
  7000.000000   2474672   2480049   2485240   2490326   2495355  
  6990.000000   2500343   2505245   2510011   2514586   2518972  
  6980.000000   2523201   2527349   2531466   2535594   2539711  
  6970.000000   2543785   2547755   2551594   2555284   2558844  
  6960.000000   2562284   2565626   2568860   2571994   2575019  
  6950.000000   2577961   2580837   2583683   2586503   2589297  
  6940.000000   2592027   2594669   2597189   2599587   2601860  
  6930.000000   2604024   2606075   2608009   2609805   2611461  
  6920.000000   2612985   2614417   2615801   2617182   2618575  
  6910.000000   2619978   2621360   2622707   2624011   2625304  
  6900.000000   2626623   2628011   2629477   2631002   2632530  
  6890.000000   2633999   2635350   2636552   2637590   2638471  
  6880.000000   2639202   2639796   2640271   2640670   2641053  
  6870.000000   2641505   2642101   2642888   2643857   2644950  
  6860.000000   2646066   2647107   2647994   2648700   2649241  
  6850.000000   2649668   2650039   2650410   2650825   2651321  
  6840.000000   2651929   2652673   2653554   2654542   2655569  
  6830.000000   2656541   2657366   2657982   2658375   2658591  
  6820.000000   2658701   2658781   2658876   2658999   2659131  
  6810.000000   2659259   2659382   2659533   2659751   2660069  
  6800.000000   2660476   2660927   2661344   2661658   2661828  
  6790.000000   2661857   2661777   2661629   2661429   2661166  
  6780.000000   2660808   2660331   2659746   2659110   2658500  
  6770.000000   2657994   2657618   2657349   2657106   2656808  
  6760.000000   2656395   2655867   2655280   2654714   2654236  
  6750.000000   2653866   2653565   2653259   2652870   2652352  
  6740.000000   2651706   2650978   2650230   2649524   2648896  
  6730.000000   2648357   2647902   2647519   2647194   2646908  
  6720.000000   2646631   2646321   2645932   2645435   2644824  
  6710.000000   2644135   2643424   2642750   2642150   2641622  
  6700.000000   2641126   2640612   2640034   2639383   2638679  
  6690.000000   2637969   2637288   2636660   2636066   2635473  
  6680.000000   2634832   2634113   2633293   2632376   2631364  
  6670.000000   2630267   2629090   2627847   2626558   2625259  
  6660.000000   2623982   2622752   2621561   2620377   2619148  
  6650.000000   2617832   2616413   2614920   2613411   2611960  
  6640.000000   2610617   2609402   2608289   2607231   2606172  
  6630.000000   2605072   2603911   2602688   2601400   2600036  
  6620.000000   2598574   2596994   2595283   2593461   2591566  
  6610.000000   2589660   2587795   2586017   2584345   2582783  
  6600.000000   2581321   2579943   2578619   2577309   2575952  
  6590.000000   2574478   2572824   2570962   2568911   2566744  
  6580.000000   2564569   2562498   2560612   2558941   2557460  
  6570.000000   2556110   2554821   2553539   2552237   2550912  
  6560.000000   2549571   2548215   2546842   2545446   2544033  
  6550.000000   2542622   2541246   2539935   2538702   2537528  
  6540.000000   2536370   2535174   2533902   2532547   2531140  
  6530.000000   2529735   2528386   2527126   2525957   2524843  
  6520.000000   2523739   2522597   2521393   2520123   2518807  
  6510.000000   2517476   2516171   2514925   2513772   2512736  
  6500.000000   2511827   2511035   2510323   2509637   2508912  
  6490.000000   2508096   2507164   2506132   2505046   2503964  
  6480.000000   2502934   2501969   2501048   2500118   2499120  
  6470.000000   2498014   2496793   2495490   2494165   2492889  
  6460.000000   2491723   2490701   2489825   2489065   2488368  
  6450.000000   2487670   2486913   2486053   2485081   2484015  
  6440.000000   2482910   2481834   2480853   2480013   2479328  
  6430.000000   2478772   2478297   2477845   2477367   2476833  
  6420.000000   2476241   2475601   2474940   2474280   2473649  
  6410.000000   2473068   2472559   2472134   2471799   2471538  
  6400.000000   2471323   2471118   2470890   2470621   2470318  
  6390.000000   2470003   2469703   2469434   2469191   2468951  
  6380.000000   2468683   2468365   2467997   2467605   2467226  
  6370.000000   2466891   2466608   2466358   2466095   2465775  
  6360.000000   2465365   2464863   2464288   2463675   2463052  
  6350.000000   2462434   2461815   2461191   2460553   2459911  
  6340.000000   2459278   2458670   2458086   2457516   2456930  
  6330.000000   2456307   2455632   2454918   2454187   2453468  
  6320.000000   2452771   2452090   2451386   2450619   2449750  
  6310.000000   2448768   2447683   2446532   2445352   2444178  
  6300.000000   2443023   2441892   2440772   2439655   2438524  
  6290.000000   2437370   2436175   2434923   2433593   2432175  
  6280.000000   2430671   2429103   2427503   2425911   2424350  
  6270.000000   2422834   2421352   2419884   2418401   2416883  
  6260.000000   2415314   2413691   2412016   2410295   2408536  
  6250.000000   2406753   2404958   2403169   2401396   2399648  
  6240.000000   2397916   2396194   2394466   2392730   2390984  
  6230.000000   2389241   2387505   2385775   2384033   2382256  
  6220.000000   2380416   2378497   2376505   2374460   2372393  
  6210.000000   2370335   2368305   2366305   2364331   2362377  
  6200.000000   2360447   2358556   2356721   2354962   2353284  
  6190.000000   2351681   2350138   2348638   2347169   2345720  
  6180.000000   2344281   2342832   2341350   2339803   2338174  
  6170.000000   2336462   2334700   2332937   2331232   2329631  
  6160.000000   2328150   2326774   2325464   2324175   2322874  
  6150.000000   2321549   2320210   2318878   2317573   2316303  
  6140.000000   2315064   2313847   2312642   2311446   2310259  
  6130.000000   2309078   2307892   2306679   2305414   2304073  
  6120.000000   2302653   2301166   2299646   2298130   2296661  
  6110.000000   2295265   2293963   2292761   2291660   2290653  
  6100.000000   2289731   2288874   2288065   2287282   2286522  
  6090.000000   2285789   2285113   2284521   2284045   2283683  
  6080.000000   2283420   2283205   2282997   2282755   2282481  
  6070.000000   2282196   2281954   2281796   2281759   2281837  
  6060.000000   2282015   2282247   2282510   2282782   2283078  
  6050.000000   2283413   2283826   2284334   2284962   2285714  
  6040.000000   2286607   2287638   2288821   2290144   2291600  
  6030.000000   2293156   2294789   2296463   2298171   2299904  
  6020.000000   2301676   2303488   2305346   2307231   2309129  
  6010.000000   2311018   2312898   2314776   2316683   2318642  
  6000.000000   2320678   2322782   2324944   2327129   2329318  
  5990.000000   2331494   2333672   2335869   2338123   2340461  
  5980.000000   2342916   2345497   2348219   2351078   2354074  
  5970.000000   2357186   2360398   2363677   2367005   2370355  
  5960.000000   2373727   2377114   2380525   2383951   2387388  
  5950.000000   2390807   2394198   2397550   2400884   2404239  
  5940.000000   2407674   2411239   2414969   2418867   2422905  
  5930.000000   2427034   2431196   2435345   2439443   2443470  
  5920.000000   2447410   2451251   2454981   2458589   2462070  
  5910.000000   2465427   2468666   2471798   2474829   2477766  
  5900.000000   2480612   2483390   2486122   2488857   2491631  
  5890.000000   2494484   2497419   2500426   2503461   2506483  
  5880.000000   2509448   2512330   2515115   2517796   2520363  
  5870.000000   2522800   2525095   2527245   2529269   2531211  
  5860.000000   2533133   2535095   2537140   2539281   2541506  
  5850.000000   2543790   2546111   2548465   2550861   2553319  
  5840.000000   2555847   2558432   2561043   2563637   2566181  
  5830.000000   2568659   2571087   2573494   2575914   2578365  
  5820.000000   2580841   2583319   2585768   2588165   2590497  
  5810.000000   2592778   2595014   2597228   2599411   2601570  
  5800.000000   2603680   2605748   2607753   2609708   2611584  
  5790.000000   2613372   2615010   2616455   2617624   2618466  
  5780.000000   2618907   2618914   2618446   2617507   2616106  
  5770.000000   2614311   2612198   2609897   2607521   2605191  
  5760.000000   2602973   2600910   2598990   2597196   2595493  
  5750.000000   2593877   2592346   2590920   2589610   2588420  
  5740.000000   2587338   2586344   2585425   2584566   2583774  
  5730.000000   2583039   2582360   2581705   2581051   2580359  
  5720.000000   2579621   2578842   2578061   2577319   2576664  
  5710.000000   2576116   2575683   2575348   2575092   2574898  
  5700.000000   2574758   2574674   2574641   2574651   2574681  
  5690.000000   2574708   2574705   2574663   2574569   2574427  
  5680.000000   2574226   2573957   2573589   2573100   2572462  
  5670.000000   2571666   2570706   2569588   2568305   2566857  
  5660.000000   2565227   2563420   2561444   2559339   2557158  
  5650.000000   2554966   2552816   2550749   2548778   2546904  
  5640.000000   2545113   2543396   2541745   2540154   2538618  
  5630.000000   2537129   2535684   2534284   2532942   2531672  
  5620.000000   2530494   2529410   2528408   2527454   2526509  
  5610.000000   2525538   2524534   2523508   2522496   2521532  
  5600.000000   2520635   2519799   2518991   2518169   2517295  
  5590.000000   2516350   2515338   2514280   2513196   2512105  
  5580.000000   2511010   2509915   2508819   2507734   2506670  
  5570.000000   2505640   2504635   2503632   2502589   2501466  
  5560.000000   2500236   2498903   2497496   2496063   2494654  
  5550.000000   2493301   2492011   2490769   2489547   2488318  
  5540.000000   2487065   2485784   2484480   2483164   2481844  
  5530.000000   2480536   2479253   2478013   2476831   2475717  
  5520.000000   2474664   2473654   2472656   2471638   2470578  
  5510.000000   2469468   2468310   2467115   2465887   2464625  
  5500.000000   2463322   2461976   2460595   2459203   2457830  
  5490.000000   2456504   2455232   2454001   2452772   2451509  
  5480.000000   2450173   2448756   2447262   2445714   2444130  
  5470.000000   2442526   2440894   2439222   2437495   2435704  
  5460.000000   2433848   2431932   2429956   2427921   2425824  
  5450.000000   2423667   2421466   2419249   2417054   2414917  
  5440.000000   2412861   2410891   2409002   2407178   2405416  
  5430.000000   2403708   2402057   2400451   2398877   2397302  
  5420.000000   2395716   2394111   2392530   2391021   2389663  
  5410.000000   2388497   2387546   2386769   2386121   2385539  
  5400.000000   2385001   2384500   2384078   2383763   2383596  
  5390.000000   2383566   2383666   2383857   2384141   2384515  
  5380.000000   2385028   2385704   2386584   2387647   2388884  
  5370.000000   2390235   2391691   2393220   2394864   2396628  
  5360.000000   2398573   2400691   2403025   2405552   2408323  
  5350.000000   2411339   2414689   2418392   2422537   2427104  
  5340.000000   2432139   2437581   2443463   2449728   2456429  
  5330.000000   2463510   2471022   2478895   2487171   2495794  
  5320.000000   2504852   2514345   2524425   2535113   2546561  
  5310.000000   2558741   2571736   2585454   2599937   2615094  
  5300.000000   2630997   2647608   2665053   2683334   2702591  
  5290.000000   2722803   2744040   2766185   2789190   2812859  
  5280.000000   2837113   2861814   2886999   2912678   2938994  
  5270.000000   2965994   2993727   3022070   3050846   3079793  
  5260.000000   3108694   3137419   3165952   3194380   3222786  
  5250.000000   3251233   3279627   3307832   3335564   3362648  
  5240.000000   3388879   3414283   3438863   3462808   3486168  
  5230.000000   3509079   3531455   3553267   3574299   3594478  
  5220.000000   3613636   3631838   3649075   3665553   3681340  
  5210.000000   3696629   3711386   3725653   3739239   3752097  
  5200.000000   3764042   3775127   3785314   3794780   3803550  
  5190.000000   3811774   3819387   3826422   3832739   3838351  
  5180.000000   3843169   3847286   3850693   3853517   3855741  
  5170.000000   3857448   3858583   3859211   3859299   3858945  
  5160.000000   3858145   3856993   3855456   3853578   3851289  
  5150.000000   3848619   3845521   3842060   3838231   3834107  
  5140.000000   3829683   3825006   3820055   3814871   3809450  
  5130.000000   3803852   3798090   3792217   3786228   3780148  
  5120.000000   3773958   3767683   3761324   3754927   3748511  
  5110.000000   3742112   3735730   3729369   3723008   3716647  
  5100.000000   3710280   3703928   3697607   3691336   3685120  
  5090.000000   3678960   3672844   3666771   3660739   3654756  
  5080.000000   3648823   3642935   3637068   3631191   3625263  
  5070.000000   3619265   3613182   3607031   3600829   3594606  
  5060.000000   3588371   3582129   3575860   3569550   3563176  
  5050.000000   3556728   3550198   3543585   3536884   3530094  
  5040.000000   3523214   3516254   3509233   3502189   3495162  
  5030.000000   3488192   3481307   3474521   3467830   3461221  
  5020.000000   3454682   3448200   3441784   3435436   3429178  
  5010.000000   3423012   3416955   3410996   3405146   3399386  
  5000.000000   3393739   3388197   3382803   3377565   3372536  
  4990.000000   3367726   3363187   3358913   3354942   3351251  
  4980.000000   3347867   3344763   3341972   3339478   3337331  
  4970.000000   3335521   3334096   3333026   3332336   3331970  
  4960.000000   3331938   3332184   3332741   3333584   3334777  
  4950.000000   3336312   3338252   3340568   3343291   3346366  
  4940.000000   3349810   3353568   3357672   3362086   3366854  
  4930.000000   3371942   3377386   3383142   3389240   3395640  
  4920.000000   3402380   3409433   3416841   3424578   3432669  
  4910.000000   3441078   3449811   3458824   3468109   3477622  
  4900.000000   3487347   3497235   3507262   3517387   3527582  
  4890.000000   3537820   3548068   3558298   3568457   3578496  
  4880.000000   3588342   3597950   3607253   3616240   3624875  
  4870.000000   3633175   3641109   3648693   3655876   3662663  
  4860.000000   3669004   3674920   3680387   3685458   3690132  
  4850.000000   3694470   3698472   3702192   3705627   3708830  
  4840.000000   3711811   3714634   3717321   3719932   3722481  
  4830.000000   3725004   3727488   3729937   3732318   3734619  
  4820.000000   3736810   3738888   3740848   3742714   3744510  
  4810.000000   3746279   3748052   3749860   3751718   3753632  
  4800.000000   3755597   3757608   3759656   3761741   3763857  
  4790.000000   3766001   3768158   3770309   3772429   3774495  
  4780.000000   3776492   3778421   3780290   3782124   3783939  
  4770.000000   3785753   3787562   3789363   3791130   3792846  
  4760.000000   3794482   3796029   3797465   3798792   3799994  
  4750.000000   3801073   3802015   3802822   3803482   3804004  
  4740.000000   3804380   3804624   3804736   3804734   3804617  
  4730.000000   3804405   3804098   3803715   3803262   3802757  
  4720.000000   3802212   3801644   3801063   3800478   3799891  
  4710.000000   3799302   3798713   3798124   3797550   3797006  
  4700.000000   3796524   3796134   3795871   3795761   3795831  
  4690.000000   3796089   3796540   3797173   3797971   3798899  
  4680.000000   3799920   3800980   3802035   3803028   3803928  
  4670.000000   3804699   3805342   3805852   3806261   3806597  
  4660.000000   3806914   3807263   3807714   3808324   3809157  
  4650.000000   3810250   3811627   3813277   3815173   3817265  
  4640.000000   3819500   3821830   3824218   3826638   3829077  
  4630.000000   3831520   3833951   3836347   3838679   3840915  
  4620.000000   3843025   3844988   3846782   3848400   3849824  
  4610.000000   3851057   3852087   3852933   3853601   3854130  
  4600.000000   3854538   3854871   3855138   3855363   3855532  
  4590.000000   3855644   3855668   3855593   3855384   3855033  
  4580.000000   3854513   3853828   3852971   3851968   3850835  
  4570.000000   3849618   3848341   3847040   3845718   3844377  
  4560.000000   3842990   3841538   3839995   3838355   3836621  
  4550.000000   3834812   3832949   3831058   3829153   3827243  
  4540.000000   3825336   3823430   3821536   3819655   3817808  
  4530.000000   3815998   3814251   3812570   3810990   3809521  
  4520.000000   3808213   3807076   3806166   3805477   3805055  
  4510.000000   3804873   3804973   3805330   3806010   3807008  
  4500.000000   3808420   3810251   3812604   3815472   3818947  
  4490.000000   3823008   3827744   3833134   3839263   3846105  
  4480.000000   3853730   3862083   3871202   3881006   3891507  
  4470.000000   3902609   3914311   3926512   3939198   3952265  
  4460.000000   3965689   3979371   3993292   4007369   4021591  
  4450.000000   4035901   4050292   4064730   4079215   4093735  
  4440.000000   4108293   4122894   4137530   4152207   4166889  
  4430.000000   4181567   4196166   4210660   4224946   4238987  
  4420.000000   4252666   4265949   4278725   4290976   4302603  
  4410.000000   4313603   4323882   4333438   4342183   4350128  
  4400.000000   4357215   4363506   4369010   4373853   4378106  
  4390.000000   4381932   4385419   4388710   4391867   4394988  
  4380.000000   4398094   4401240   4404423   4407681   4411018  
  4370.000000   4414473   4418074   4421867   4425885   4430160  
  4360.000000   4434698   4439495   4444510   4449706   4454999  
  4350.000000   4460345   4465647   4470880   4475966   4480922  
  4340.000000   4485698   4490316   4494694   4498753   4502271  
  4330.000000   4504990   4506552   4506643   4505005   4501582  
  4320.000000   4496505   4490160   4483056   4475806   4468939  
  4310.000000   4462884   4457848   4453893   4450904   4448723  
  4300.000000   4447154   4446046   4445284   4444786   4444512  
  4290.000000   4444406   4444452   4444611   4444897   4445308  
  4280.000000   4445879   4446628   4447567   4448692   4449964  
  4270.000000   4451349   4452772   4454161   4455383   4456291  
  4260.000000   4456674   4456326   4455039   4452690   4449248  
  4250.000000   4444826   4439635   4433988   4428197   4422569  
  4240.000000   4417302   4412533   4408265   4404464   4401025  
  4230.000000   4397852   4394842   4391915   4389010   4386076  
  4220.000000   4383100   4380064   4377006   4373952   4370992  
  4210.000000   4368180   4365616   4363340   4361411   4359820  
  4200.000000   4358572   4357615   4356925   4356437   4356131  
  4190.000000   4355948   4355888   4355908   4356026   4356214  
  4180.000000   4356512   4356907   4357461   4358176   4359134  
  4170.000000   4360355   4361931   4363884   4366299   4369178  
  4160.000000   4372581   4376477   4380895   4385778   4391141  
  4150.000000   4396918   4403127   4409705   4416681   4424005  
  4140.000000   4431726   4439817   4448348   4457301   4466745  
  4130.000000   4476644   4487037   4497862   4509132   4520782  
  4120.000000   4532833   4545246   4558067   4571282   4584944  
  4110.000000   4599036   4613593   4628577   4643986   4659758  
  4100.000000   4675869   4692247   4708861   4725653   4742602  
  4090.000000   4759670   4776836   4794072   4811346   4828642  
  4080.000000   4845930   4863220   4880498   4897787   4915049  
  4070.000000   4932269   4949343   4966203   4982705   4998793  
  4060.000000   5014356   5029407   5043886   5057848   5071243  
  4050.000000   5084135   5096471   5108326   5119647   5130512  
  4040.000000   5140835   5150652   5159825   5168362   5176129  
  4030.000000   5183170   5189408   5194930   5199686   5203742  
  4020.000000   5207005   5209526   5211273   5212324   5212631  
  4010.000000   5212336   5211513   5210181   5208111   5205366  
  4000.000000   5202277  
##END= 
