##TITLE= Sample 012 By ssteindl date Montag, November 26 2018
##JCAMP-DX= 4.24
##DATA TYPE= INFRARED SPECTRUM
##ORIGIN= Exported PE Spectrum Data File
##OWNER= Sandra Steindl
##DATE= 18/11/26
##TIME= 13:40:40.00
##SPECTROMETER/DATA SYSTEM= PERKIN-ELMER Frontier FT-IR/NIR IR
##INSTRUMENT PARAMETERS=
  APODIZATION=stark
  DETECTOR=INGAAS
##RESOLUTION= 16.000000
##DELTAX= -2.000000
##XUNITS= 1/CM
##YUNITS= A
##XFACTOR= 1.00
##YFACTOR= 0.00000011920928955078
##FIRSTX= 10000.00
##LASTX= 4000.00
##NPOINTS= 3001
##FIRSTY= 0.207900
##MAXY= 0.574053
##MINY= 0.184504
##XYDATA= (X++(Y..Y))
 10000.000000   1743988   1754375   1763081   1768048   1769074  
  9990.000000   1767341   1763611   1758188   1751628   1744888  
  9980.000000   1738644   1733301   1729037   1725926   1723643  
  9970.000000   1721780   1719914   1717903   1715801   1713963  
  9960.000000   1712778   1712555   1713333   1714852   1716625  
  9950.000000   1718059   1718703   1718295   1716929   1714879  
  9940.000000   1712591   1710408   1708534   1706869   1705141  
  9930.000000   1702981   1700197   1696896   1693542   1690879  
  9920.000000   1689626   1690323   1693006   1697326   1702566  
  9910.000000   1707996   1713044   1717446   1721184   1724274  
  9900.000000   1726597   1727719   1727074   1724074   1718585  
  9890.000000   1710932   1702094   1693282   1685714   1680186  
  9880.000000   1676910   1675632   1675765   1676867   1678708  
  9870.000000   1681525   1685721   1691748   1699720   1709300  
  9860.000000   1719703   1729794   1738435   1744557   1747497  
  9850.000000   1746898   1742909   1736040   1727221   1717666  
  9840.000000   1708705   1701596   1697187   1695838   1697207  
  9830.000000   1700523   1704645   1708549   1711442   1713054  
  9820.000000   1713519   1713270   1712788   1712372   1712112  
  9810.000000   1711818   1711270   1710225   1708649   1706627  
  9800.000000   1704379   1702125   1700000   1698044   1696214  
  9790.000000   1694518   1693059   1692108   1691985   1692980  
  9780.000000   1695137   1698235   1701787   1705199   1707992  
  9770.000000   1709913   1711030   1711577   1711800   1711735  
  9760.000000   1711144   1709607   1706769   1702642   1697762  
  9750.000000   1693158   1689956   1689040   1690508   1693693  
  9740.000000   1697229   1699659   1699956   1697914   1694223  
  9730.000000   1690033   1686482   1684046   1682439   1680650  
  9720.000000   1677586   1672543   1665740   1658263   1651768  
  9710.000000   1647857   1647476   1650665   1656566   1663899  
  9700.000000   1671389   1678198   1683997   1688855   1692945  
  9690.000000   1696353   1699003   1700750   1701555   1701508  
  9680.000000   1700860   1699758   1698204   1695898   1692455  
  9670.000000   1687556   1681233   1673966   1666570   1660008  
  9660.000000   1655011   1651988   1650905   1651567   1653754  
  9650.000000   1657440   1662725   1669644   1677925   1686792  
  9640.000000   1695068   1701398   1704702   1704498   1701128  
  9630.000000   1695641   1689521   1684230   1680837   1679783  
  9620.000000   1680838   1683255   1685963   1687864   1688007  
  9610.000000   1685863   1681358   1675020   1667783   1660920  
  9600.000000   1655639   1652879   1652983   1655661   1660060  
  9590.000000   1665041   1669481   1672511   1673635   1672669  
  9580.000000   1669696   1664888   1658577   1651158   1643231  
  9570.000000   1635502   1628741   1623617   1620513   1619493  
  9560.000000   1620259   1622386   1625393   1628940   1632732  
  9550.000000   1636478   1639763   1642033   1642781   1641666  
  9540.000000   1638853   1634872   1630666   1627097   1624774  
  9530.000000   1623701   1623362   1622917   1621606   1619145  
  9520.000000   1615881   1612767   1610958   1611457   1614665  
  9510.000000   1620324   1627551   1635189   1642112   1647504  
  9500.000000   1650999   1652634   1652770   1651874   1650390  
  9490.000000   1648593   1646579   1644275   1641557   1638336  
  9480.000000   1634661   1630764   1626991   1623785   1621462  
  9470.000000   1620175   1619777   1619918   1620173   1620229  
  9460.000000   1620028   1619763   1619753   1620261   1621317  
  9450.000000   1622708   1624050   1624993   1625407   1625440  
  9440.000000   1625475   1625872   1626772   1627893   1628633  
  9430.000000   1628254   1626238   1622497   1617441   1611872  
  9420.000000   1606701   1602729   1600420   1599913   1601058  
  9410.000000   1603560   1607027   1611002   1614927   1618167  
  9400.000000   1620099   1620287   1618667   1615651   1612073  
  9390.000000   1608937   1607094   1606915   1608196   1610232  
  9380.000000   1612130   1613093   1612705   1610957   1608185  
  9370.000000   1604817   1601213   1597572   1594018   1590729  
  9360.000000   1588046   1586479   1586546   1588607   1592611  
  9350.000000   1598111   1604271   1610193   1615096   1618529  
  9340.000000   1620411   1620908   1620354   1619004   1617055  
  9330.000000   1614531   1611447   1607826   1603809   1599619  
  9320.000000   1595509   1591754   1588586   1586286   1585092  
  9310.000000   1585249   1586832   1589762   1593676   1598028  
  9300.000000   1602154   1605469   1607642   1608646   1608778  
  9290.000000   1608416   1607934   1607460   1606910   1605966  
  9280.000000   1604255   1601533   1597828   1593540   1589282  
  9270.000000   1585781   1583613   1583144   1584388   1587036  
  9260.000000   1590474   1593937   1596674   1598087   1597867  
  9250.000000   1596022   1592946   1589276   1585806   1583211  
  9240.000000   1581918   1581973   1583060   1584612   1585992  
  9230.000000   1586769   1586844   1586535   1586360   1586867  
  9220.000000   1588343   1590712   1593511   1596030   1597588  
  9210.000000   1597740   1596478   1594154   1591337   1588555  
  9200.000000   1586110   1584025   1582114   1580163   1578096  
  9190.000000   1576078   1574437   1573546   1573575   1574440  
  9180.000000   1575768   1577086   1577998   1578361   1578327  
  9170.000000   1578214   1578327   1578752   1579320   1579651  
  9160.000000   1579380   1578324   1576612   1574617   1572780  
  9150.000000   1571410   1570536   1569918   1569181   1568039  
  9140.000000   1566478   1564773   1563382   1562697   1562865  
  9130.000000   1563681   1564677   1565314   1565245   1564458  
  9120.000000   1563312   1562364   1562160   1562981   1564776  
  9110.000000   1567169   1569654   1571751   1573173   1573856  
  9100.000000   1573922   1573603   1573148   1572818   1572842  
  9090.000000   1573426   1574685   1576625   1579080   1581689  
  9080.000000   1583945   1585339   1585531   1584466   1582359  
  9070.000000   1579669   1576921   1574575   1572854   1571797  
  9060.000000   1571287   1571189   1571380   1571804   1572421  
  9050.000000   1573131   1573709   1573817   1573114   1571360  
  9040.000000   1568552   1564943   1561042   1557475   1554841  
  9030.000000   1553560   1553771   1555331   1557846   1560794  
  9020.000000   1563625   1565870   1567224   1567559   1566938  
  9010.000000   1565562   1563731   1561747   1559881   1558307  
  9000.000000   1557148   1556432   1556155   1556251   1556616  
  8990.000000   1557099   1557490   1557563   1557117   1556076  
  8980.000000   1554553   1552858   1551464   1550873   1551493  
  8970.000000   1553456   1556553   1560248   1563832   1566600  
  8960.000000   1568068   1568113   1567015   1565358   1563818  
  8950.000000   1562985   1563162   1564346   1566210   1568284  
  8940.000000   1570089   1571308   1571837   1571763   1571260  
  8930.000000   1570470   1569430   1568029   1566098   1563497  
  8920.000000   1560257   1556619   1553025   1550032   1548152  
  8910.000000   1547732   1548819   1551185   1554355   1557740  
  8900.000000   1560740   1562886   1563951   1563953   1563170  
  8890.000000   1562017   1560986   1560464   1560641   1561430  
  8880.000000   1562517   1563476   1563941   1563757   1563051  
  8870.000000   1562193   1561621   1561656   1562333   1563372  
  8860.000000   1564295   1564619   1564107   1562880   1561409  
  8850.000000   1560328   1560158   1561099   1562926   1565114  
  8840.000000   1567066   1568350   1568872   1568853   1568705  
  8830.000000   1568781   1569215   1569846   1570343   1570379  
  8820.000000   1569849   1568926   1568019   1567589   1567948  
  8810.000000   1569137   1570910   1572873   1574651   1576039  
  8800.000000   1577060   1577879   1578697   1579608   1580567  
  8790.000000   1581417   1582003   1582278   1582346   1582440  
  8780.000000   1582813   1583655   1584988   1586707   1588585  
  8770.000000   1590396   1591951   1593139   1593907   1594210  
  8760.000000   1594002   1593225   1591875   1590024   1587854  
  8750.000000   1585619   1583606   1582077   1581212   1581111  
  8740.000000   1581762   1583108   1585025   1587371   1589950  
  8730.000000   1592533   1594887   1596802   1598168   1598949  
  8720.000000   1599224   1599084   1598644   1597955   1597052  
  8710.000000   1595960   1594761   1593629   1592796   1592513  
  8700.000000   1592936   1594079   1595781   1597757   1599692  
  8690.000000   1601327   1602548   1603366   1603921   1604364  
  8680.000000   1604842   1605422   1606137   1606992   1608009  
  8670.000000   1609242   1610753   1612594   1614752   1617164  
  8660.000000   1619706   1622241   1624634   1626762   1628530  
  8650.000000   1629846   1630652   1630907   1630637   1629953  
  8640.000000   1629062   1628243   1627767   1627870   1628661  
  8630.000000   1630146   1632192   1634606   1637159   1639643  
  8620.000000   1641880   1643711   1645008   1645662   1645623  
  8610.000000   1644914   1643678   1642163   1640699   1639630  
  8600.000000   1639235   1639657   1640864   1642659   1644724  
  8590.000000   1646717   1648346   1649439   1649973   1650052  
  8580.000000   1649890   1649729   1649809   1650287   1651239  
  8570.000000   1652632   1654362   1656274   1658187   1659942  
  8560.000000   1661420   1662571   1663417   1664041   1664573  
  8550.000000   1665128   1665783   1666531   1667294   1667936  
  8540.000000   1668318   1668368   1668120   1667754   1667531  
  8530.000000   1667755   1668636   1670248   1672461   1674986  
  8520.000000   1677439   1679452   1680778   1681327   1681195  
  8510.000000   1680580   1679743   1678885   1678135   1677517  
  8500.000000   1677013   1676588   1676241   1676051   1676152  
  8490.000000   1676734   1677953   1679918   1682616   1685902  
  8480.000000   1689497   1693027   1696125   1698473   1699910  
  8470.000000   1700431   1700233   1699623   1698945   1698485  
  8460.000000   1698407   1698761   1699474   1700445   1701563  
  8450.000000   1702782   1704075   1705427   1706764   1707948  
  8440.000000   1708789   1709090   1708721   1707671   1706101  
  8430.000000   1704294   1702610   1701382   1700857   1701125  
  8420.000000   1702096   1703549   1705178   1706694   1707867  
  8410.000000   1708611   1708991   1709208   1709529   1710194  
  8400.000000   1711343   1712937   1714758   1716454   1717648  
  8390.000000   1718062   1717603   1716414   1714828   1713277  
  8380.000000   1712135   1711629   1711764   1712354   1713091  
  8370.000000   1713653   1713813   1713490   1712758   1711794  
  8360.000000   1710807   1709982   1709432   1709214   1709310  
  8350.000000   1709683   1710275   1711050   1711971   1713013  
  8340.000000   1714133   1715259   1716286   1717063   1717420  
  8330.000000   1717162   1716157   1714349   1711852   1708919  
  8320.000000   1705931   1703311   1701427   1700508   1700567  
  8310.000000   1701435   1702799   1704331   1705763   1706951  
  8300.000000   1707875   1708585   1709153   1709599   1709898  
  8290.000000   1709990   1709851   1709518   1709121   1708834  
  8280.000000   1708819   1709156   1709795   1710573   1711260  
  8270.000000   1711641   1711576   1711049   1710146   1709041  
  8260.000000   1707918   1706948   1706241   1705873   1705868  
  8250.000000   1706223   1706868   1707674   1708432   1708905  
  8240.000000   1708867   1708189   1706878   1705102   1703138  
  8230.000000   1701290   1699779   1698673   1697856   1697112  
  8220.000000   1696193   1694952   1693374   1691595   1689821  
  8210.000000   1688246   1686960   1685911   1684947   1683870  
  8200.000000   1682542   1680922   1679088   1677184   1675371  
  8190.000000   1673774   1672458   1671446   1670747   1670362  
  8180.000000   1670292   1670495   1670868   1671239   1671386  
  8170.000000   1671114   1670322   1669067   1667562   1666109  
  8160.000000   1664997   1664384   1664245   1664366   1664424  
  8150.000000   1664094   1663158   1661580   1659506   1657206  
  8140.000000   1654977   1653065   1651598   1650592   1649974  
  8130.000000   1649623   1649422   1649268   1649089   1648828  
  8120.000000   1648439   1647893   1647178   1646320   1645384  
  8110.000000   1644467   1643681   1643119   1642833   1642815  
  8100.000000   1642990   1643230   1643379   1643287   1642836  
  8090.000000   1641976   1640722   1639167   1637436   1635686  
  8080.000000   1634042   1632610   1631437   1630542   1629902  
  8070.000000   1629463   1629148   1628837   1628381   1627596  
  8060.000000   1626318   1624423   1621912   1618918   1615732  
  8050.000000   1612735   1610328   1608824   1608377   1608943  
  8040.000000   1610297   1612107   1614006   1615682   1616922  
  8030.000000   1617630   1617816   1617556   1616978   1616215  
  8020.000000   1615415   1614700   1614172   1613871   1613765  
  8010.000000   1613759   1613699   1613445   1612888   1612024  
  8000.000000   1610927   1609746   1608635   1607712   1607005  
  7990.000000   1606467   1605989   1605457   1604796   1603996  
  7980.000000   1603108   1602214   1601390   1600670   1600040  
  7970.000000   1599442   1598813   1598101   1597305   1596455  
  7960.000000   1595624   1594883   1594296   1593891   1593660  
  7950.000000   1593560   1593530   1593512   1593464   1593387  
  7940.000000   1593324   1593354   1593574   1594053   1594809  
  7930.000000   1595765   1596764   1597580   1597992   1597830  
  7920.000000   1597048   1595740   1594131   1592526   1591226  
  7910.000000   1590465   1590346   1590833   1591766   1592917  
  7900.000000   1594037   1594919   1595424   1595499   1595174  
  7890.000000   1594544   1593757   1592969   1592336   1591967  
  7880.000000   1591915   1592159   1592614   1593156   1593651  
  7870.000000   1594006   1594172   1594171   1594070   1593957  
  7860.000000   1593914   1593986   1594176   1594443   1594721  
  7850.000000   1594930   1594999   1594883   1594569   1594091  
  7840.000000   1593520   1592957   1592503   1592244   1592208  
  7830.000000   1592369   1592642   1592915   1593084   1593089  
  7820.000000   1592928   1592651   1592326   1592013   1591726  
  7810.000000   1591436   1591088   1590634   1590060   1589400  
  7800.000000   1588718   1588089   1587553   1587119   1586753  
  7790.000000   1586417   1586087   1585770   1585497   1585283  
  7780.000000   1585108   1584889   1584505   1583833   1582810  
  7770.000000   1581473   1579973   1578537   1577402   1576747  
  7760.000000   1576627   1576979   1577635   1578395   1579077  
  7750.000000   1579565   1579821   1579857   1579711   1579400  
  7740.000000   1578927   1578265   1577402   1576345   1575145  
  7730.000000   1573892   1572696   1571668   1570891   1570413  
  7720.000000   1570226   1570283   1570490   1570733   1570896  
  7710.000000   1570879   1570627   1570138   1569470   1568718  
  7700.000000   1567999   1567415   1567029   1566852   1566843  
  7690.000000   1566925   1567009   1567018   1566911   1566682  
  7680.000000   1566365   1566007   1565658   1565342   1565057  
  7670.000000   1564763   1564410   1563952   1563378   1562723  
  7660.000000   1562076   1561556   1561275   1561301   1561626  
  7650.000000   1562166   1562783   1563326   1563680   1563793  
  7640.000000   1563687   1563430   1563110   1562796   1562522  
  7630.000000   1562283   1562064   1561849   1561647   1561479  
  7620.000000   1561366   1561309   1561282   1561234   1561112  
  7610.000000   1560883   1560553   1560163   1559778   1559465  
  7600.000000   1559269   1559213   1559296   1559509   1559840  
  7590.000000   1560273   1560785   1561334   1561868   1562318  
  7580.000000   1562639   1562805   1562840   1562787   1562707  
  7570.000000   1562642   1562613   1562614   1562639   1562699  
  7560.000000   1562839   1563130   1563646   1564429   1565468  
  7550.000000   1566682   1567945   1569113   1570074   1570761  
  7540.000000   1571177   1571360   1571380   1571307   1571208  
  7530.000000   1571148   1571190   1571397   1571826   1572508  
  7520.000000   1573433   1574545   1575746   1576923   1577976  
  7510.000000   1578841   1579512   1580024   1580449   1580861  
  7500.000000   1581340   1581940   1582701   1583632   1584728  
  7490.000000   1585952   1587255   1588569   1589828   1590980  
  7480.000000   1592011   1592938   1593812   1594691   1595634  
  7470.000000   1596671   1597807   1599021   1600288   1601583  
  7460.000000   1602900   1604241   1605622   1607039   1608486  
  7450.000000   1609927   1611326   1612636   1613835   1614918  
  7440.000000   1615920   1616901   1617943   1619133   1620547  
  7430.000000   1622242   1624230   1626487   1628943   1631504  
  7420.000000   1634060   1636504   1638750   1640736   1642446  
  7410.000000   1643893   1645132   1646226   1647253   1648265  
  7400.000000   1649289   1650317   1651315   1652254   1653130  
  7390.000000   1653996   1654954   1656149   1657706   1659698  
  7380.000000   1662091   1664746   1667446   1669955   1672097  
  7370.000000   1673794   1675088   1676102   1677007   1677945  
  7360.000000   1679008   1680218   1681555   1682984   1684483  
  7350.000000   1686051   1687698   1689426   1691206   1692992  
  7340.000000   1694724   1696369   1697923   1699418   1700900  
  7330.000000   1702401   1703926   1705444   1706911   1708291  
  7320.000000   1709580   1710808   1712016   1713241   1714486  
  7310.000000   1715719   1716887   1717951   1718909   1719809  
  7300.000000   1720729   1721755   1722931   1724252   1725649  
  7290.000000   1727027   1728291   1729385   1730305   1731090  
  7280.000000   1731801   1732496   1733211   1733965   1734753  
  7270.000000   1735568   1736407   1737279   1738192   1739153  
  7260.000000   1740162   1741197   1742229   1743206   1744083  
  7250.000000   1744802   1745339   1745680   1745874   1746001  
  7240.000000   1746193   1746580   1747282   1748360   1749819  
  7230.000000   1751600   1753628   1755815   1758122   1760525  
  7220.000000   1763036   1765642   1768323   1771004   1773615  
  7210.000000   1776074   1778372   1780536   1782675   1784900  
  7200.000000   1787323   1789989   1792891   1795957   1799102  
  7190.000000   1802241   1805331   1808360   1811355   1814348  
  7180.000000   1817373   1820440   1823555   1826702   1829877  
  7170.000000   1833064   1836267   1839468   1842663   1845827  
  7160.000000   1848953   1852025   1855056   1858062   1861093  
  7150.000000   1864203   1867475   1870975   1874775   1878893  
  7140.000000   1883319   1887973   1892757   1897550   1902274  
  7130.000000   1906885   1911421   1915943   1920566   1925364  
  7120.000000   1930398   1935648   1941072   1946578   1952098  
  7110.000000   1957568   1962977   1968328   1973659   1979001  
  7100.000000   1984404   1989906   1995554   2001377   2007395  
  7090.000000   2013589   2019919   2026313   2032700   2039016  
  7080.000000   2045235   2051350   2057390   2063377   2069335  
  7070.000000   2075263   2081168   2087049   2092930   2098842  
  7060.000000   2104821   2110883   2117018   2123194   2129367  
  7050.000000   2135512   2141634   2147774   2153982   2160296  
  7040.000000   2166710   2173165   2179571   2185829   2191872  
  7030.000000   2197676   2203268   2208700   2214024   2219278  
  7020.000000   2224470   2229610   2234707   2239806   2244954  
  7010.000000   2250219   2255624   2261169   2266794   2272424  
  7000.000000   2277962   2283342   2288508   2293447   2298150  
  6990.000000   2302630   2306895   2310976   2314896   2318706  
  6980.000000   2322437   2326125   2329767   2333352   2336843  
  6970.000000   2340229   2343493   2346664   2349756   2352801  
  6960.000000   2355794   2358736   2361607   2364419   2367185  
  6950.000000   2369946   2372713   2375474   2378149   2380636  
  6940.000000   2382820   2384649   2386145   2387430   2388670  
  6930.000000   2390040   2391642   2393491   2395495   2397521  
  6920.000000   2399425   2401130   2402621   2403959   2405222  
  6910.000000   2406491   2407801   2409156   2410530   2411895  
  6900.000000   2413223   2414495   2415691   2416787   2417756  
  6890.000000   2418587   2419284   2419892   2420469   2421082  
  6880.000000   2421767   2422537   2423362   2424209   2425044  
  6870.000000   2425860   2426666   2427479   2428295   2429085  
  6860.000000   2429800   2430389   2430832   2431153   2431420  
  6850.000000   2431719   2432122   2432664   2433325   2434056  
  6840.000000   2434793   2435496   2436147   2436762   2437356  
  6830.000000   2437939   2438497   2439005   2439433   2439773  
  6820.000000   2440030   2440228   2440384   2440505   2440579  
  6810.000000   2440595   2440552   2440477   2440417   2440432  
  6800.000000   2440555   2440784   2441062   2441306   2441429  
  6790.000000   2441379   2441157   2440821   2440460   2440169  
  6780.000000   2440007   2439995   2440096   2440249   2440372  
  6770.000000   2440399   2440285   2440012   2439590   2439046  
  6760.000000   2438419   2437751   2437081   2436443   2435860  
  6750.000000   2435352   2434930   2434608   2434391   2434281  
  6740.000000   2434260   2434292   2434322   2434284   2434120  
  6730.000000   2433791   2433294   2432651   2431909   2431124  
  6720.000000   2430343   2429609   2428953   2428411   2428005  
  6710.000000   2427756   2427651   2427648   2427666   2427610  
  6700.000000   2427390   2426959   2426322   2425537   2424684  
  6690.000000   2423843   2423050   2422305   2421568   2420801  
  6680.000000   2419979   2419119   2418251   2417420   2416633  
  6670.000000   2415870   2415066   2414157   2413091   2411866  
  6660.000000   2410514   2409103   2407698   2406343   2405050  
  6650.000000   2403808   2402592   2401385   2400173   2398952  
  6640.000000   2397712   2396435   2395101   2393700   2392243  
  6630.000000   2390771   2389340   2388008   2386805   2385727  
  6620.000000   2384729   2383747   2382719   2381608   2380406  
  6610.000000   2379130   2377804   2376448   2375067   2373666  
  6600.000000   2372248   2370836   2369460   2368159   2366947  
  6590.000000   2365817   2364731   2363633   2362468   2361199  
  6580.000000   2359814   2358317   2356726   2355055   2353317  
  6570.000000   2351525   2349706   2347906   2346186   2344608  
  6560.000000   2343214   2342013   2340970   2340020   2339086  
  6550.000000   2338099   2337019   2335834   2334563   2333235  
  6540.000000   2331889   2330557   2329274   2328064   2326950  
  6530.000000   2325941   2325031   2324193   2323381   2322543  
  6520.000000   2321631   2320618   2319502   2318311   2317091  
  6510.000000   2315895   2314776   2313771   2312899   2312158  
  6500.000000   2311524   2310950   2310378   2309747   2309004  
  6490.000000   2308122   2307106   2305991   2304832   2303686  
  6480.000000   2302600   2301594   2300664   2299787   2298937  
  6470.000000   2298097   2297261   2296438   2295644   2294894  
  6460.000000   2294197   2293553   2292949   2292365   2291775  
  6450.000000   2291145   2290452   2289674   2288810   2287870  
  6440.000000   2286887   2285893   2284921   2283988   2283100  
  6430.000000   2282252   2281446   2280697   2280038   2279509  
  6420.000000   2279144   2278953   2278907   2278948   2279000  
  6410.000000   2278993   2278888   2278677   2278383   2278041  
  6400.000000   2277684   2277325   2276965   2276592   2276196  
  6390.000000   2275777   2275340   2274896   2274447   2273993  
  6380.000000   2273529   2273055   2272582   2272139   2271754  
  6370.000000   2271455   2271251   2271127   2271052   2270984  
  6360.000000   2270887   2270738   2270523   2270241   2269890  
  6350.000000   2269469   2268979   2268434   2267854   2267275  
  6340.000000   2266726   2266228   2265775   2265339   2264877  
  6330.000000   2264356   2263753   2263080   2262362   2261639  
  6320.000000   2260936   2260265   2259612   2258959   2258283  
  6310.000000   2257576   2256837   2256075   2255287   2254469  
  6300.000000   2253598   2252659   2251634   2250528   2249348  
  6290.000000   2248115   2246836   2245521   2244164   2242770  
  6280.000000   2241343   2239911   2238500   2237140   2235838  
  6270.000000   2234584   2233341   2232069   2230724   2229285  
  6260.000000   2227747   2226130   2224458   2222759   2221055  
  6250.000000   2219364   2217695   2216065   2214483   2212957  
  6240.000000   2211486   2210060   2208657   2207254   2205827  
  6230.000000   2204359   2202838   2201255   2199606   2197888  
  6220.000000   2196106   2194270   2192404   2190539   2188710  
  6210.000000   2186947   2185270   2183685   2182186   2180763  
  6200.000000   2179403   2178097   2176831   2175592   2174361  
  6190.000000   2173112   2171825   2170484   2169091   2167655  
  6180.000000   2166197   2164735   2163285   2161858   2160459  
  6170.000000   2159097   2157780   2156521   2155327   2154196  
  6160.000000   2153113   2152055   2150996   2149913   2148798  
  6150.000000   2147651   2146480   2145290   2144082   2142849  
  6140.000000   2141587   2140294   2138980   2137660   2136354  
  6130.000000   2135071   2133815   2132579   2131360   2130161  
  6120.000000   2129000   2127905   2126906   2126021   2125251  
  6110.000000   2124570   2123944   2123330   2122699   2122031  
  6100.000000   2121326   2120587   2119831   2119064   2118305  
  6090.000000   2117570   2116887   2116276   2115760   2115338  
  6080.000000   2115001   2114715   2114451   2114178   2113893  
  6070.000000   2113604   2113344   2113143   2113035   2113030  
  6060.000000   2113135   2113333   2113616   2113954   2114336  
  6050.000000   2114731   2115129   2115512   2115892   2116285  
  6040.000000   2116741   2117304   2118028   2118937   2120040  
  6030.000000   2121304   2122690   2124142   2125627   2127112  
  6020.000000   2128599   2130087   2131597   2133134   2134716  
  6010.000000   2136345   2138035   2139784   2141598   2143462  
  6000.000000   2145365   2147280   2149201   2151119   2153055  
  5990.000000   2155027   2157067   2159185   2161388   2163652  
  5980.000000   2165961   2168289   2170640   2173022   2175467  
  5970.000000   2177997   2180636   2183378   2186221   2189138  
  5960.000000   2192118   2195141   2198202   2201282   2204374  
  5950.000000   2207453   2210513   2213547   2216576   2219629  
  5940.000000   2222748   2225971   2229320   2232798   2236386  
  5930.000000   2240054   2243763   2247481   2251173   2254807  
  5920.000000   2258351   2261775   2265054   2268179   2271159  
  5910.000000   2274016   2276783   2279488   2282148   2284772  
  5900.000000   2287360   2289923   2292476   2295055   2297689  
  5890.000000   2300411   2303223   2306116   2309054   2312004  
  5880.000000   2314929   2317807   2320619   2323345   2325959  
  5870.000000   2328430   2330730   2332847   2334800   2336637  
  5860.000000   2338426   2340235   2342116   2344089   2346149  
  5850.000000   2348276   2350446   2352649   2354882   2357153  
  5840.000000   2359460   2361793   2364134   2366462   2368767  
  5830.000000   2371049   2373323   2375603   2377891   2380178  
  5820.000000   2382439   2384648   2386787   2388858   2390873  
  5810.000000   2392853   2394805   2396734   2398615   2400444  
  5800.000000   2402204   2403926   2405624   2407348   2409098  
  5790.000000   2410879   2412627   2414281   2415735   2416906  
  5780.000000   2417694   2418038   2417875   2417188   2415976  
  5770.000000   2414299   2412243   2409950   2407554   2405197  
  5760.000000   2402966   2400916   2399041   2397325   2395735  
  5750.000000   2394262   2392905   2391677   2390580   2389602  
  5740.000000   2388713   2387874   2387061   2386256   2385477  
  5730.000000   2384736   2384061   2383450   2382903   2382392  
  5720.000000   2381908   2381437   2380986   2380561   2380170  
  5710.000000   2379804   2379452   2379097   2378740   2378398  
  5700.000000   2378103   2377893   2377789   2377787   2377852  
  5690.000000   2377936   2377984   2377966   2377870   2377720  
  5680.000000   2377536   2377343   2377139   2376907   2376602  
  5670.000000   2376181   2375592   2374801   2373778   2372519  
  5660.000000   2371028   2369338   2367496   2365568   2363617  
  5650.000000   2361705   2359862   2358106   2356422   2354797  
  5640.000000   2353212   2351668   2350170   2348730   2347354  
  5630.000000   2346037   2344765   2343523   2342305   2341117  
  5620.000000   2339980   2338916   2337940   2337049   2336229  
  5610.000000   2335448   2334681   2333905   2333113   2332302  
  5600.000000   2331476   2330635   2329782   2328917   2328051  
  5590.000000   2327198   2326373   2325583   2324820   2324064  
  5580.000000   2323284   2322456   2321569   2320636   2319681  
  5570.000000   2318734   2317807   2316898   2315983   2315033  
  5560.000000   2314024   2312954   2311837   2310702   2309572  
  5550.000000   2308462   2307366   2306272   2305165   2304040  
  5540.000000   2302906   2301779   2300675   2299601   2298549  
  5530.000000   2297506   2296454   2295387   2294307   2293225  
  5520.000000   2292154   2291104   2290074   2289058   2288046  
  5510.000000   2287026   2285989   2284927   2283827   2282684  
  5500.000000   2281490   2280254   2278991   2277727   2276487  
  5490.000000   2275285   2274111   2272940   2271731   2270450  
  5480.000000   2269077   2267620   2266103   2264563   2263024  
  5470.000000   2261503   2259992   2258477   2256939   2255369  
  5460.000000   2253761   2252118   2250437   2248714   2246943  
  5450.000000   2245124   2243268   2241399   2239546   2237737  
  5440.000000   2235987   2234295   2232654   2231051   2229486  
  5430.000000   2227958   2226472   2225016   2223573   2222107  
  5420.000000   2220601   2219050   2217496   2216001   2214653  
  5410.000000   2213507   2212591   2211867   2211281   2210752  
  5400.000000   2210241   2209723   2209227   2208780   2208433  
  5390.000000   2208196   2208085   2208084   2208204   2208446  
  5380.000000   2208849   2209424   2210196   2211138   2212232  
  5370.000000   2213424   2214703   2216040   2217467   2218983  
  5360.000000   2220635   2222409   2224343   2226422   2228705  
  5350.000000   2231208   2234023   2237178   2240750   2244716  
  5340.000000   2249109   2253868   2259022   2264525   2270434  
  5330.000000   2276710   2283405   2290457   2297903   2305683  
  5320.000000   2313873   2322461   2331578   2341233   2351552  
  5310.000000   2362501   2374146   2386401   2399307   2412790  
  5300.000000   2426929   2441698   2457219   2473494   2490643  
  5290.000000   2508639   2527536   2547221   2567653   2588658  
  5280.000000   2610173   2632078   2654413   2677187   2700531  
  5270.000000   2724485   2749100   2774273   2799856   2825628  
  5260.000000   2851407   2877083   2902643   2928156   2953685  
  5250.000000   2979262   3004787   3030111   3054969   3079189  
  5240.000000   3102588   3125187   3146993   3168181   3188812  
  5230.000000   3209027   3228782   3248085   3266773   3284801  
  5220.000000   3302015   3318450   3334057   3348976   3363227  
  5210.000000   3376961   3390151   3402854   3414935   3426376  
  5200.000000   3437025   3446913   3455981   3464352   3472024  
  5190.000000   3479120   3485602   3491535   3496841   3501574  
  5180.000000   3505684   3509265   3512298   3514874   3516946  
  5170.000000   3518562   3519648   3520252   3520339   3519998  
  5160.000000   3519229   3518118   3516634   3514804   3512557  
  5150.000000   3509907   3506813   3503338   3499495   3495373  
  5140.000000   3490988   3486399   3481592   3476606   3471432  
  5130.000000   3466121   3460689   3455194   3449640   3444055  
  5120.000000   3438416   3432723   3426953   3421115   3415206  
  5110.000000   3409248   3403245   3397213   3391152   3385073  
  5100.000000   3378987   3372916   3366882   3360909   3355007  
  5090.000000   3349180   3343418   3337716   3332063   3326460  
  5080.000000   3320908   3315409   3309955   3304534   3299120  
  5070.000000   3293692   3288228   3282722   3277170   3271581  
  5060.000000   3265954   3260291   3254578   3248805   3242956  
  5050.000000   3237029   3231024   3224959   3218845   3212704  
  5040.000000   3206542   3200363   3194164   3187942   3181693  
  5030.000000   3175423   3169144   3162872   3156631   3150441  
  5020.000000   3144323   3138288   3132353   3126513   3120781  
  5010.000000   3115146   3109624   3104205   3098910   3093739  
  5000.000000   3088719   3083851   3079168   3074669   3070388  
  4990.000000   3066316   3062488   3058889   3055547   3052438  
  4980.000000   3049585   3046955   3044571   3042406   3040495  
  4970.000000   3038823   3037443   3036344   3035578   3035122  
  4960.000000   3035015   3035221   3035770   3036627   3037828  
  4950.000000   3039345   3041219   3043417   3045971   3048838  
  4940.000000   3052041   3055534   3059346   3063438   3067846  
  4930.000000   3072539   3077554   3082862   3088500   3094441  
  4920.000000   3100719   3107307   3114226   3121440   3128956  
  4910.000000   3136730   3144767   3153030   3161524   3170220  
  4900.000000   3179112   3188164   3197354   3206639   3215989  
  4890.000000   3225373   3234763   3244133   3253440   3262650  
  4880.000000   3271698   3280541   3289113   3297392   3305332  
  4870.000000   3312936   3320170   3327043   3333514   3339591  
  4860.000000   3345236   3350474   3355294   3359750   3363851  
  4850.000000   3367664   3371200   3374518   3377621   3380559  
  4840.000000   3383330   3385975   3388489   3390902   3393202  
  4830.000000   3395412   3397525   3399566   3401544   3403491  
  4820.000000   3405419   3407350   3409285   3411227   3413162  
  4810.000000   3415083   3416980   3418855   3420707   3422546  
  4800.000000   3424379   3426216   3428060   3429916   3431781  
  4790.000000   3433656   3435532   3437407   3439269   3441115  
  4780.000000   3442936   3444735   3446506   3448255   3449971  
  4770.000000   3451651   3453274   3454827   3456284   3457640  
  4760.000000   3458882   3460025   3461073   3462052   3462965  
  4750.000000   3463826   3464616   3465327   3465923   3466385  
  4740.000000   3466682   3466812   3466770   3466582   3466267  
  4730.000000   3465861   3465387   3464866   3464301   3463694  
  4720.000000   3463034   3462318   3461546   3460732   3459899  
  4710.000000   3459076   3458298   3457592   3456980   3456470  
  4700.000000   3456064   3455755   3455540   3455411   3455375  
  4690.000000   3455435   3455606   3455891   3456299   3456819  
  4680.000000   3457438   3458120   3458843   3459561   3460258  
  4670.000000   3460907   3461513   3462076   3462625   3463178  
  4660.000000   3463771   3464427   3465185   3466065   3467104  
  4650.000000   3468319   3469736   3471357   3473182   3475189  
  4640.000000   3477355   3479641   3482016   3484449   3486916  
  4630.000000   3489395   3491870   3494323   3496733   3499081  
  4620.000000   3501342   3503496   3505518   3507392   3509095  
  4610.000000   3510617   3511946   3513093   3514070   3514918  
  4600.000000   3515669   3516374   3517054   3517737   3518405  
  4590.000000   3519047   3519620   3520102   3520455   3520676  
  4580.000000   3520754   3520702   3520522   3520229   3519819  
  4570.000000   3519304   3518678   3517955   3517135   3516239  
  4560.000000   3515272   3514258   3513201   3512119   3511013  
  4550.000000   3509893   3508750   3507584   3506381   3505137  
  4540.000000   3503848   3502521   3501174   3499827   3498507  
  4530.000000   3497226   3496003   3494827   3493705   3492622  
  4520.000000   3491603   3490646   3489807   3489098   3488586  
  4510.000000   3488278   3488236   3488458   3489017   3489915  
  4500.000000   3491240   3492998   3495274   3498054   3501402  
  4490.000000   3505279   3509743   3514756   3520386   3526606  
  4480.000000   3533489   3541000   3549188   3557992   3567428  
  4470.000000   3577416   3587955   3598959   3610422   3622258  
  4460.000000   3634457   3646937   3659680   3672609   3685702  
  4450.000000   3698888   3712144   3725421   3738705   3751978  
  4440.000000   3765243   3778515   3791800   3805117   3818449  
  4430.000000   3831795   3845098   3858335   3871416   3884314  
  4420.000000   3896926   3909226   3921109   3932547   3943430  
  4410.000000   3953729   3963337   3972239   3980354   3987702  
  4400.000000   3994256   4000087   4005219   4009767   4013788  
  4390.000000   4017415   4020717   4023821   4026790   4029727  
  4380.000000   4032666   4035670   4038745   4041925   4045212  
  4370.000000   4048636   4052216   4055987   4059973   4064193  
  4360.000000   4068646   4073322   4078185   4083210   4088333  
  4350.000000   4093530   4098723   4103901   4108996   4114028  
  4340.000000   4118958   4123820   4128544   4133060   4137138  
  4330.000000   4140495   4142720   4143432   4142297   4139198  
  4320.000000   4134231   4127777   4120382   4112719   4105386  
  4310.000000   4098881   4093458   4089208   4086018   4083717  
  4300.000000   4082083   4080937   4080142   4079605   4079282  
  4290.000000   4079120   4079115   4079235   4079500   4079909  
  4280.000000   4080499   4081282   4082271   4083467   4084844  
  4270.000000   4086384   4088030   4089724   4091342   4092729  
  4260.000000   4093657   4093887   4093174   4091354   4088363  
  4250.000000   4084291   4079348   4073859   4068162   4062599  
  4240.000000   4057403   4052736   4048617   4045009   4041794  
  4230.000000   4038859   4036075   4033350   4030614   4027820  
  4220.000000   4024963   4022042   4019110   4016208   4013430  
  4210.000000   4010834   4008509   4006486   4004803   4003440  
  4200.000000   4002381   4001568   4000966   4000511   4000181  
  4190.000000   3999921   3999733   3999579   3999486   3999435  
  4180.000000   3999476   3999609   3999900   4000353   4001041  
  4170.000000   4001972   4003224   4004813   4006823   4009270  
  4160.000000   4012227   4015683   4019679   4024161   4029142  
  4150.000000   4034553   4040408   4046651   4053321   4060380  
  4140.000000   4067886   4075803   4084182   4092978   4102223  
  4130.000000   4111858   4121905   4132302   4143072   4154166  
  4120.000000   4165616   4177396   4189552   4202080   4215034  
  4110.000000   4228411   4242251   4256519   4271205   4286226  
  4100.000000   4301524   4316996   4332587   4348234   4363931  
  4090.000000   4379675   4395491   4411393   4427390   4443480  
  4080.000000   4459643   4475876   4492151   4508476   4524806  
  4070.000000   4541128   4557352   4573427   4589233   4604727  
  4060.000000   4619811   4634491   4648697   4662458   4675702  
  4050.000000   4688461   4700665   4712374   4723542   4734250  
  4040.000000   4744435   4754147   4763267   4771802   4779614  
  4030.000000   4786727   4793041   4798614   4803378   4807386  
  4020.000000   4810545   4812917   4814487   4815355   4815501  
  4010.000000   4815082   4814180   4812821   4810795   4808155  
  4000.000000   4805199  
##END= 
