##TITLE= Sample 020 By ssteindl date Donnerstag, November 22 2018
##JCAMP-DX= 4.24
##DATA TYPE= INFRARED SPECTRUM
##ORIGIN= Exported PE Spectrum Data File
##OWNER= Sandra Steindl
##DATE= 18/11/22
##TIME= 12:58:50.00
##SPECTROMETER/DATA SYSTEM= PERKIN-ELMER Frontier FT-IR/NIR IR
##INSTRUMENT PARAMETERS=
  APODIZATION=stark
  DETECTOR=INGAAS
##RESOLUTION= 16.000000
##DELTAX= -2.000000
##XUNITS= 1/CM
##YUNITS= A
##XFACTOR= 1.00
##YFACTOR= 0.00000011920928955078
##FIRSTX= 10000.00
##LASTX= 4000.00
##NPOINTS= 3001
##FIRSTY= 0.285506
##MAXY= 0.614992
##MINY= 0.217432
##XYDATA= (X++(Y..Y))
 10000.000000   2394999   2391332   2387835   2384714   2381967  
  9990.000000   2379038   2375209   2370119   2364311   2359102  
  9980.000000   2355978   2355983   2359294   2365252   2372636  
  9970.000000   2380224   2387172   2393161   2398166   2402189  
  9960.000000   2404999   2406159   2405210   2402004   2396909  
  9950.000000   2390752   2384614   2379327   2375253   2372073  
  9940.000000   2369014   2365161   2359809   2352746   2344261  
  9930.000000   2335102   2326269   2318919   2314182   2313086  
  9920.000000   2316221   2323540   2334062   2345969   2357027  
  9910.000000   2365157   2369226   2369209   2366280   2362060  
  9900.000000   2358063   2354907   2352286   2349169   2344631  
  9890.000000   2338497   2331711   2326127   2323663   2325577  
  9880.000000   2331660   2340449   2349585   2356884   2361028  
  9870.000000   2362016   2360969   2359456   2358781   2359375  
  9860.000000   2360802   2362018   2362018   2360211   2356635  
  9850.000000   2351783   2346255   2340601   2335128   2330178  
  9840.000000   2326122   2323524   2322892   2324442   2327850  
  9830.000000   2332143   2335957   2337889   2337025   2333222  
  9820.000000   2327195   2320216   2313715   2308801   2306062  
  9810.000000   2305545   2306938   2309802   2313633   2317933  
  9800.000000   2322062   2325354   2327139   2327037   2325085  
  9790.000000   2321802   2318047   2314652   2312175   2310592  
  9780.000000   2309415   2307827   2305089   2300808   2295116  
  9770.000000   2288624   2282185   2276660   2272636   2270406  
  9760.000000   2269914   2270936   2273113   2276081   2279471  
  9750.000000   2282925   2286114   2288725   2290542   2291376  
  9740.000000   2291161   2289807   2287321   2283698   2279097  
  9730.000000   2273786   2268249   2263087   2258949   2256363  
  9720.000000   2255602   2256638   2259112   2262506   2266175  
  9710.000000   2269602   2272414   2274548   2276196   2277772  
  9700.000000   2279745   2282461   2285978   2289939   2293619  
  9690.000000   2296049   2296332   2293920   2288859   2281820  
  9680.000000   2273899   2266306   2259961   2255310   2252228  
  9670.000000   2250250   2248780   2247445   2246124   2245026  
  9660.000000   2244371   2244327   2244768   2245416   2245926  
  9650.000000   2246073   2245858   2245381   2244789   2243986  
  9640.000000   2242684   2240358   2236544   2230998   2223939  
  9630.000000   2216002   2208129   2201276   2196192   2193269  
  9620.000000   2192526   2193705   2196353   2199930   2203856  
  9610.000000   2207569   2210627   2212760   2213999   2214616  
  9600.000000   2215108   2215958   2217500   2219715   2222265  
  9590.000000   2224583   2226147   2226680   2226265   2225278  
  9580.000000   2224159   2223216   2222448   2221626   2220421  
  9570.000000   2218667   2216465   2214216   2212418   2211492  
  9560.000000   2211536   2212340   2213440   2214357   2214793  
  9550.000000   2214693   2214225   2213578   2212830   2211859  
  9540.000000   2210404   2208272   2205468   2202337   2199459  
  9530.000000   2197510   2197023   2198186   2200760   2204087  
  9520.000000   2207274   2209342   2209530   2207388   2203001  
  9510.000000   2196905   2190086   2183730   2178992   2176765  
  9500.000000   2177387   2180681   2185892   2192078   2198272  
  9490.000000   2203870   2208640   2212689   2216188   2219105  
  9480.000000   2221085   2221446   2219484   2214699   2207148  
  9470.000000   2197504   2186995   2177096   2169084   2163757  
  9460.000000   2161148   2160711   2161444   2162333   2162553  
  9450.000000   2161710   2159835   2157304   2154670   2152446  
  9440.000000   2150990   2150359   2150413   2150803   2151210  
  9430.000000   2151345   2151102   2150498   2149650   2148695  
  9420.000000   2147706   2146670   2145523   2144211   2142809  
  9410.000000   2141480   2140503   2140075   2140278   2140946  
  9400.000000   2141728   2142173   2141898   2140788   2139057  
  9390.000000   2137267   2136129   2136307   2138181   2141758  
  9380.000000   2146633   2152099   2157255   2161206   2163253  
  9370.000000   2163057   2160745   2156834   2152136   2147505  
  9360.000000   2143666   2140999   2139453   2138595   2137795  
  9350.000000   2136549   2134685   2132502   2130582   2129607  
  9340.000000   2130004   2131813   2134604   2137636   2140128  
  9330.000000   2141532   2141732   2141011   2139869   2138780  
  9320.000000   2138007   2137540   2137192   2136690   2135847  
  9310.000000   2134568   2132853   2130740   2128213   2125254  
  9300.000000   2121861   2118236   2114802   2112177   2110970  
  9290.000000   2111515   2113708   2116945   2120269   2122615  
  9280.000000   2123141   2121508   2118022   2113521   2109091  
  9270.000000   2105745   2104144   2104484   2106478   2109474  
  9260.000000   2112643   2115183   2116527   2116397   2114808  
  9250.000000   2111989   2108296   2104150   2099962   2096103  
  9240.000000   2092886   2090566   2089353   2089389   2090676  
  9230.000000   2093012   2095935   2098803   2100911   2101666  
  9220.000000   2100767   2098293   2094758   2090950   2087717  
  9210.000000   2085692   2085118   2085835   2087376   2089147  
  9200.000000   2090627   2091498   2091705   2091368   2090639  
  9190.000000   2089584   2088145   2086226   2083805   2081044  
  9180.000000   2078317   2076155   2075093   2075489   2077331  
  9170.000000   2080213   2083398   2086066   2087539   2087451  
  9160.000000   2085820   2083007   2079610   2076249   2073398  
  9150.000000   2071307   2070019   2069440   2069390   2069694  
  9140.000000   2070173   2070688   2071069   2071170   2070851  
  9130.000000   2070062   2068847   2067333   2065679   2064002  
  9120.000000   2062355   2060683   2058886   2056874   2054668  
  9110.000000   2052408   2050308   2048555   2047225   2046234  
  9100.000000   2045388   2044451   2043296   2041942   2040609  
  9090.000000   2039588   2039145   2039366   2040139   2041190  
  9080.000000   2042214   2043019   2043587   2044109   2044851  
  9070.000000   2046062   2047819   2050011   2052359   2054511  
  9060.000000   2056142   2056985   2056891   2055778   2053665  
  9050.000000   2050620   2046792   2042452   2037985   2033865  
  9040.000000   2030521   2028302   2027376   2027735   2029156  
  9030.000000   2031324   2033862   2036401   2038566   2040035  
  9020.000000   2040611   2040233   2039051   2037381   2035710  
  9010.000000   2034492   2034020   2034298   2035062   2035874  
  9000.000000   2036302   2036109   2035349   2034337   2033464  
  8990.000000   2033018   2033020   2033231   2033255   2032776  
  8980.000000   2031728   2030363   2029149   2028580   2028959  
  8970.000000   2030250   2032078   2033858   2035033   2035211  
  8960.000000   2034295   2032436   2029959   2027237   2024592  
  8950.000000   2022311   2020631   2019791   2019944   2021139  
  8940.000000   2023223   2025840   2028455   2030506   2031536  
  8930.000000   2031319   2029893   2027492   2024491   2021239  
  8920.000000   2018047   2015111   2012577   2010544   2009069  
  8910.000000   2008160   2007704   2007533   2007417   2007213  
  8900.000000   2006891   2006580   2006512   2006884   2007776  
  8890.000000   2009005   2010204   2010869   2010593   2009173  
  8880.000000   2006744   2003696   2000597   1998011   1996388  
  8870.000000   1995954   1996693   1998388   2000678   2003153  
  8860.000000   2005403   2007123   2008165   2008604   2008704  
  8850.000000   2008853   2009415   2010581   2012270   2014122  
  8840.000000   2015629   2016297   2015851   2014329   2012074  
  8830.000000   2009594   2007352   2005616   2004397   2003527  
  8820.000000   2002779   2002026   2001288   2000748   2000614  
  8810.000000   2001041   2002006   2003344   2004796   2006122  
  8800.000000   2007171   2007866   2008218   2008216   2007869  
  8790.000000   2007157   2006131   2004898   2003646   2002573  
  8780.000000   2001821   2001438   2001373   2001560   2001972  
  8770.000000   2002694   2003857   2005582   2007808   2010266  
  8760.000000   2012495   2013998   2014457   2013847   2012503  
  8750.000000   2010937   2009649   2008863   2008444   2007953  
  8740.000000   2006884   2004939   2002214   1999229   1996724  
  8730.000000   1995414   1995661   1997379   2000037   2002917  
  8720.000000   2005375   2007048   2007935   2008270   2008375  
  8710.000000   2008453   2008536   2008496   2008187   2007542  
  8700.000000   2006668   2005787   2005153   2004934   2005128  
  8690.000000   2005610   2006164   2006630   2006937   2007133  
  8680.000000   2007340   2007659   2008130   2008676   2009154  
  8670.000000   2009386   2009237   2008648   2007669   2006452  
  8660.000000   2005236   2004306   2003929   2004304   2005463  
  8650.000000   2007260   2009364   2011352   2012838   2013587  
  8640.000000   2013604   2013103   2012439   2011931   2011765  
  8630.000000   2011890   2012105   2012143   2011842   2011225  
  8620.000000   2010497   2009978   2009938   2010523   2011686  
  8610.000000   2013261   2015049   2016901   2018771   2020652  
  8600.000000   2022526   2024263   2025643   2026421   2026453  
  8590.000000   2025807   2024781   2023850   2023494   2024045  
  8580.000000   2025528   2027689   2030059   2032166   2033648  
  8570.000000   2034370   2034393   2033906   2033111   2032148  
  8560.000000   2031069   2029875   2028580   2027250   2026025  
  8550.000000   2025064   2024496   2024362   2024599   2025077  
  8540.000000   2025628   2026115   2026448   2026612   2026661  
  8530.000000   2026707   2026904   2027416   2028387   2029874  
  8520.000000   2031819   2034010   2036135   2037834   2038828  
  8510.000000   2038987   2038402   2037333   2036141   2035159  
  8500.000000   2034608   2034552   2034920   2035588   2036448  
  8490.000000   2037454   2038597   2039873   2041226   2042539  
  8480.000000   2043668   2044490   2044995   2045266   2045475  
  8470.000000   2045775   2046254   2046880   2047536   2048104  
  8460.000000   2048547   2048971   2049578   2050602   2052173  
  8450.000000   2054251   2056591   2058823   2060557   2061533  
  8440.000000   2061683   2061148   2060192   2059119   2058169  
  8430.000000   2057486   2057097   2056977   2057056   2057270  
  8420.000000   2057526   2057727   2057748   2057489   2056894  
  8410.000000   2055990   2054892   2053758   2052735   2051888  
  8400.000000   2051183   2050510   2049754   2048865   2047908  
  8390.000000   2047052   2046506   2046423   2046824   2047570  
  8380.000000   2048404   2049033   2049236   2048928   2048173  
  8370.000000   2047164   2046139   2045316   2044831   2044729  
  8360.000000   2044978   2045478   2046076   2046583   2046789  
  8350.000000   2046507   2045601   2044049   2041962   2039592  
  8340.000000   2037273   2035324   2033956   2033207   2032939  
  8330.000000   2032889   2032758   2032322   2031503   2030386  
  8320.000000   2029173   2028093   2027327   2026942   2026880  
  8310.000000   2026996   2027127   2027154   2027048   2026872  
  8300.000000   2026746   2026793   2027077   2027565   2028126  
  8290.000000   2028565   2028689   2028359   2027535   2026296  
  8280.000000   2024811   2023305   2021990   2021010   2020414  
  8270.000000   2020148   2020075   2020011   2019754   2019146  
  8260.000000   2018094   2016617   2014822   2012913   2011137  
  8250.000000   2009742   2008911   2008696   2008993   2009550  
  8240.000000   2010035   2010116   2009560   2008292   2006415  
  8230.000000   2004181   2001916   1999935   1998454   1997558  
  8220.000000   1997195   1997223   1997446   1997676   1997749  
  8210.000000   1997557   1997039   1996188   1995034   1993636  
  8200.000000   1992072   1990420   1988749   1987101   1985498  
  8190.000000   1983945   1982448   1981035   1979736   1978591  
  8180.000000   1977607   1976772   1976026   1975299   1974525  
  8170.000000   1973676   1972769   1971847   1970966   1970136  
  8160.000000   1969322   1968432   1967366   1966042   1964450  
  8150.000000   1962658   1960805   1959069   1957614   1956554  
  8140.000000   1955921   1955675   1955702   1955863   1956004  
  8130.000000   1956007   1955790   1955341   1954699   1953947  
  8120.000000   1953173   1952429   1951704   1950899   1949872  
  8110.000000   1948457   1946563   1944189   1941466   1938619  
  8100.000000   1935906   1933562   1931727   1930456   1929706  
  8090.000000   1929423   1929546   1930049   1930897   1932009  
  8080.000000   1933219   1934271   1934867   1934735   1933739  
  8070.000000   1931899   1929436   1926669   1923971   1921629  
  8060.000000   1919803   1918491   1917561   1916820   1916075  
  8050.000000   1915215   1914212   1913142   1912134   1911345  
  8040.000000   1910906   1910889   1911291   1912017   1912909  
  8030.000000   1913760   1914374   1914590   1914329   1913600  
  8020.000000   1912490   1911136   1909682   1908253   1906931  
  8010.000000   1905768   1904777   1903965   1903319   1902820  
  8000.000000   1902420   1902048   1901606   1900989   1900116  
  7990.000000   1898945   1897503   1895873   1894184   1892588  
  7980.000000   1891224   1890210   1889615   1889463   1889724  
  7970.000000   1890324   1891148   1892044   1892849   1893404  
  7960.000000   1893583   1893310   1892588   1891490   1890165  
  7950.000000   1888797   1887584   1886680   1886169   1886031  
  7940.000000   1886146   1886324   1886349   1886053   1885366  
  7930.000000   1884348   1883177   1882092   1881325   1881014  
  7920.000000   1881164   1881643   1882236   1882717   1882933  
  7910.000000   1882853   1882566   1882241   1882048   1882091  
  7900.000000   1882369   1882774   1883143   1883307   1883167  
  7890.000000   1882708   1882008   1881198   1880417   1879766  
  7880.000000   1879280   1878936   1878666   1878399   1878088  
  7870.000000   1877735   1877383   1877111   1876990   1877065  
  7860.000000   1877316   1877672   1878014   1878220   1878202  
  7850.000000   1877928   1877446   1876845   1876233   1875680  
  7840.000000   1875192   1874711   1874142   1873401   1872461  
  7830.000000   1871388   1870328   1869472   1868989   1868977  
  7820.000000   1869411   1870151   1870973   1871625   1871906  
  7810.000000   1871709   1871055   1870080   1868993   1868019  
  7800.000000   1867337   1867034   1867084   1867373   1867727  
  7790.000000   1867978   1867997   1867737   1867212   1866495  
  7780.000000   1865669   1864803   1863939   1863086   1862244  
  7770.000000   1861413   1860606   1859850   1859167   1858571  
  7760.000000   1858055   1857607   1857208   1856860   1856577  
  7750.000000   1856381   1856284   1856264   1856270   1856221  
  7740.000000   1856040   1855675   1855123   1854426   1853650  
  7730.000000   1852866   1852117   1851420   1850766   1850144  
  7720.000000   1849552   1849005   1848517   1848087   1847681  
  7710.000000   1847238   1846687   1845976   1845106   1844131  
  7700.000000   1843148   1842267   1841571   1841093   1840813  
  7690.000000   1840676   1840617   1840591   1840581   1840591  
  7680.000000   1840621   1840649   1840627   1840483   1840159  
  7670.000000   1839619   1838882   1838002   1837064   1836146  
  7660.000000   1835307   1834573   1833943   1833414   1832983  
  7650.000000   1832670   1832496   1832487   1832636   1832912  
  7640.000000   1833247   1833555   1833752   1833771   1833586  
  7630.000000   1833189   1832612   1831880   1831021   1830050  
  7620.000000   1828983   1827853   1826718   1825675   1824843  
  7610.000000   1824349   1824275   1824641   1825370   1826312  
  7600.000000   1827267   1828040   1828492   1828556   1828264  
  7590.000000   1827703   1827001   1826269   1825597   1825026  
  7580.000000   1824572   1824238   1824027   1823955   1824030  
  7570.000000   1824257   1824610   1825051   1825524   1825973  
  7560.000000   1826353   1826629   1826788   1826821   1826735  
  7550.000000   1826548   1826293   1826016   1825770   1825598  
  7540.000000   1825521   1825537   1825618   1825733   1825859  
  7530.000000   1825993   1826152   1826354   1826603   1826867  
  7520.000000   1827094   1827222   1827218   1827093   1826918  
  7510.000000   1826788   1826800   1826997   1827371   1827851  
  7500.000000   1828352   1828803   1829189   1829546   1829949  
  7490.000000   1830462   1831120   1831907   1832777   1833673  
  7480.000000   1834570   1835473   1836418   1837432   1838516  
  7470.000000   1839620   1840663   1841563   1842280   1842836  
  7460.000000   1843317   1843843   1844521   1845406   1846477  
  7450.000000   1847650   1848816   1849876   1850776   1851520  
  7440.000000   1852160   1852767   1853405   1854107   1854879  
  7430.000000   1855695   1856527   1857340   1858123   1858874  
  7420.000000   1859609   1860352   1861136   1862001   1862984  
  7410.000000   1864117   1865426   1866913   1868566   1870342  
  7400.000000   1872185   1874021   1875780   1877394   1878822  
  7390.000000   1880048   1881095   1882019   1882892   1883802  
  7380.000000   1884823   1886012   1887388   1888940   1890621  
  7370.000000   1892369   1894100   1895723   1897150   1898301  
  7360.000000   1899130   1899628   1899848   1899892   1899898  
  7350.000000   1900016   1900376   1901061   1902084   1903405  
  7340.000000   1904941   1906606   1908320   1910020   1911658  
  7330.000000   1913186   1914560   1915734   1916686   1917421  
  7320.000000   1917988   1918466   1918951   1919527   1920254  
  7310.000000   1921153   1922208   1923379   1924612   1925856  
  7300.000000   1927064   1928199   1929235   1930159   1930984  
  7290.000000   1931743   1932492   1933294   1934198   1935225  
  7280.000000   1936361   1937561   1938760   1939900   1940937  
  7270.000000   1941854   1942653   1943348   1943966   1944531  
  7260.000000   1945079   1945649   1946289   1947035   1947906  
  7250.000000   1948886   1949933   1950981   1951982   1952915  
  7240.000000   1953812   1954739   1955784   1957008   1958440  
  7230.000000   1960046   1961772   1963537   1965300   1967032  
  7220.000000   1968756   1970490   1972269   1974095   1975977  
  7210.000000   1977904   1979893   1981961   1984151   1986491  
  7200.000000   1989001   1991661   1994435   1997264   2000102  
  7190.000000   2002913   2005698   2008472   2011275   2014137  
  7180.000000   2017088   2020128   2023245   2026394   2029527  
  7170.000000   2032580   2035519   2038321   2041017   2043661  
  7160.000000   2046342   2049135   2052098   2055243   2058556  
  7150.000000   2061998   2065550   2069199   2072974   2076895  
  7140.000000   2080985   2085212   2089521   2093820   2098051  
  7130.000000   2102176   2106242   2110322   2114529   2118939  
  7120.000000   2123601   2128487   2133545   2138697   2143895  
  7110.000000   2149111   2154357   2159634   2164947   2170259  
  7100.000000   2175532   2180717   2185802   2190793   2195740  
  7090.000000   2200692   2205701   2210799   2216007   2221331  
  7080.000000   2226784   2232365   2238071   2243869   2249706  
  7070.000000   2255505   2261200   2266750   2272163   2277488  
  7060.000000   2282800   2288163   2293617   2299161   2304765  
  7050.000000   2310381   2315969   2321495   2326932   2332249  
  7040.000000   2337408   2342376   2347139   2351736   2356252  
  7030.000000   2360817   2365556   2370562   2375844   2381344  
  7020.000000   2386933   2392475   2397845   2402976   2407836  
  7010.000000   2412433   2416780   2420898   2424813   2428582  
  7000.000000   2432285   2436031   2439909   2443978   2448209  
  6990.000000   2452530   2456808   2460943   2464870   2468606  
  6980.000000   2472204   2475736   2479225   2482646   2485917  
  6970.000000   2488954   2491703   2494185   2496481   2498725  
  6960.000000   2501025   2503463   2506041   2508724   2511438  
  6950.000000   2514124   2516726   2519219   2521571   2523758  
  6940.000000   2525747   2527533   2529130   2530603   2532034  
  6930.000000   2533521   2535129   2536890   2538781   2540757  
  6920.000000   2542752   2544715   2546592   2548338   2549897  
  6910.000000   2551221   2552272   2553062   2553654   2554176  
  6900.000000   2554774   2555583   2556663   2557992   2559465  
  6890.000000   2560940   2562283   2563419   2564335   2565082  
  6880.000000   2565724   2566324   2566912   2567504   2568108  
  6870.000000   2568748   2569454   2570258   2571161   2572130  
  6860.000000   2573087   2573950   2574652   2575183   2575590  
  6850.000000   2575962   2576393   2576945   2577624   2578386  
  6840.000000   2579159   2579874   2580496   2581030   2581512  
  6830.000000   2581987   2582485   2583014   2583552   2584068  
  6820.000000   2584525   2584906   2585212   2585470   2585721  
  6810.000000   2586021   2586411   2586923   2587546   2588236  
  6800.000000   2588909   2589466   2589813   2589898   2589724  
  6790.000000   2589350   2588868   2588378   2587951   2587615  
  6780.000000   2587355   2587131   2586905   2586656   2586386  
  6770.000000   2586115   2585861   2585636   2585440   2585269  
  6760.000000   2585127   2585028   2584992   2585032   2585144  
  6750.000000   2585302   2585468   2585596   2585664   2585662  
  6740.000000   2585605   2585509   2585390   2585250   2585089  
  6730.000000   2584916   2584756   2584651   2584645   2584764  
  6720.000000   2584996   2585293   2585582   2585795   2585890  
  6710.000000   2585870   2585770   2585643   2585524   2585431  
  6700.000000   2585346   2585249   2585120   2584964   2584794  
  6690.000000   2584630   2584468   2584285   2584035   2583676  
  6680.000000   2583183   2582565   2581852   2581086   2580285  
  6670.000000   2579450   2578556   2577587   2576547   2575491  
  6660.000000   2574494   2573642   2572981   2572502   2572128  
  6650.000000   2571747   2571242   2570536   2569610   2568505  
  6640.000000   2567295   2566065   2564873   2563751   2562696  
  6630.000000   2561690   2560705   2559717   2558698   2557621  
  6620.000000   2556459   2555191   2553810   2552333   2550793  
  6610.000000   2549241   2547726   2546288   2544946   2543705  
  6600.000000   2542551   2541463   2540405   2539339   2538212  
  6590.000000   2536973   2535584   2534029   2532331   2530543  
  6580.000000   2528735   2526977   2525309   2523742   2522249  
  6570.000000   2520793   2519340   2517881   2516426   2515004  
  6560.000000   2513638   2512337   2511086   2509851   2508593  
  6550.000000   2507279   2505892   2504431   2502910   2501352  
  6540.000000   2499788   2498248   2496763   2495358   2494039  
  6530.000000   2492791   2491578   2490355   2489085   2487761  
  6520.000000   2486408   2485084   2483856   2482769   2481830  
  6510.000000   2480993   2480179   2479295   2478271   2477080  
  6500.000000   2475738   2474296   2472818   2471358   2469953  
  6490.000000   2468619   2467361   2466181   2465077   2464045  
  6480.000000   2463061   2462093   2461093   2460023   2458858  
  6470.000000   2457604   2456292   2454967   2453675   2452444  
  6460.000000   2451286   2450189   2449136   2448105   2447080  
  6450.000000   2446039   2444966   2443838   2442640   2441370  
  6440.000000   2440051   2438726   2437458   2436304   2435307  
  6430.000000   2434476   2433791   2433205   2432669   2432132  
  6420.000000   2431566   2430952   2430293   2429595   2428878  
  6410.000000   2428160   2427471   2426833   2426273   2425797  
  6400.000000   2425403   2425068   2424774   2424500   2424242  
  6390.000000   2424005   2423803   2423639   2423509   2423392  
  6380.000000   2423268   2423119   2422946   2422763   2422589  
  6370.000000   2422439   2422302   2422155   2421959   2421691  
  6360.000000   2421345   2420949   2420544   2420176   2419860  
  6350.000000   2419585   2419304   2418966   2418523   2417962  
  6340.000000   2417299   2416582   2415861   2415183   2414568  
  6330.000000   2414019   2413516   2413032   2412532   2411987  
  6320.000000   2411366   2410648   2409817   2408880   2407860  
  6310.000000   2406799   2405745   2404742   2403809   2402945  
  6300.000000   2402119   2401297   2400439   2399528   2398556  
  6290.000000   2397537   2396483   2395412   2394332   2393252  
  6280.000000   2392170   2391089   2389999   2388890   2387740  
  6270.000000   2386530   2385243   2383883   2382468   2381033  
  6260.000000   2379612   2378233   2376896   2375588   2374278  
  6250.000000   2372944   2371574   2370184   2368798   2367445  
  6240.000000   2366138   2364874   2363631   2362381   2361101  
  6230.000000   2359778   2358410   2356999   2355547   2354049  
  6220.000000   2352504   2350914   2349297   2347682   2346105  
  6210.000000   2344596   2343167   2341813   2340519   2339267  
  6200.000000   2338053   2336889   2335800   2334805   2333910  
  6190.000000   2333092   2332312   2331513   2330653   2329703  
  6180.000000   2328667   2327566   2326442   2325333   2324274  
  6170.000000   2323290   2322394   2321585   2320854   2320175  
  6160.000000   2319518   2318842   2318118   2317320   2316447  
  6150.000000   2315511   2314534   2313543   2312560   2311602  
  6140.000000   2310685   2309826   2309049   2308373   2307811  
  6130.000000   2307352   2306961   2306581   2306153   2305625  
  6120.000000   2304979   2304226   2303411   2302589   2301819  
  6110.000000   2301144   2300590   2300164   2299867   2299686  
  6100.000000   2299606   2299599   2299634   2299669   2299675  
  6090.000000   2299632   2299550   2299448   2299370   2299345  
  6080.000000   2299398   2299525   2299717   2299945   2300197  
  6070.000000   2300456   2300730   2301020   2301341   2301698  
  6060.000000   2302114   2302603   2303208   2303955   2304881  
  6050.000000   2305987   2307263   2308658   2310125   2311608  
  6040.000000   2313086   2314554   2316043   2317582   2319211  
  6030.000000   2320937   2322770   2324688   2326688   2328750  
  6020.000000   2330877   2333052   2335267   2337492   2339708  
  6010.000000   2341890   2344040   2346168   2348309   2350490  
  6000.000000   2352740   2355062   2357456   2359905   2362407  
  5990.000000   2364957   2367567   2370238   2372974   2375755  
  5980.000000   2378565   2381377   2384191   2387013   2389878  
  5970.000000   2392815   2395857   2399007   2402266   2405607  
  5960.000000   2409018   2412482   2416000   2419565   2423178  
  5950.000000   2426822   2430483   2434142   2437802   2441480  
  5940.000000   2445212   2449040   2452996   2457088   2461296  
  5930.000000   2465576   2469867   2474113   2478257   2482260  
  5920.000000   2486085   2489709   2493111   2496287   2499245  
  5910.000000   2502017   2504637   2507153   2509592   2511980  
  5900.000000   2514317   2516611   2518860   2521086   2523306  
  5890.000000   2525552   2527835   2530167   2532530   2534910  
  5880.000000   2537277   2539615   2541902   2544118   2546238  
  5870.000000   2548230   2550068   2551737   2553253   2554654  
  5860.000000   2556006   2557376   2558819   2560366   2562024  
  5850.000000   2563783   2565631   2567564   2569587   2571706  
  5840.000000   2573919   2576204   2578531   2580856   2583156  
  5830.000000   2585415   2587649   2589879   2592133   2594423  
  5820.000000   2596753   2599111   2601497   2603914   2606377  
  5810.000000   2608904   2611497   2614146   2616810   2619458  
  5800.000000   2622044   2624576   2627061   2629555   2632078  
  5790.000000   2634658   2637245   2639779   2642126   2644166  
  5780.000000   2645748   2646770   2647137   2646822   2645823  
  5770.000000   2644219   2642107   2639654   2637012   2634353  
  5760.000000   2631788   2629409   2627231   2625260   2623455  
  5750.000000   2621800   2620258   2618822   2617469   2616182  
  5740.000000   2614934   2613697   2612456   2611199   2609933  
  5730.000000   2608663   2607398   2606134   2604865   2603581  
  5720.000000   2602286   2600992   2599725   2598511   2597370  
  5710.000000   2596302   2595297   2594332   2593392   2592472  
  5700.000000   2591581   2590731   2589934   2589192   2588493  
  5690.000000   2587827   2587177   2586547   2585938   2585364  
  5680.000000   2584815   2584278   2583709   2583061   2582278  
  5670.000000   2581318   2580142   2578731   2577069   2575154  
  5660.000000   2572992   2570614   2568068   2565430   2562782  
  5650.000000   2560209   2557765   2555482   2553352   2551354  
  5640.000000   2549452   2547615   2545822   2544059   2542315  
  5630.000000   2540579   2538850   2537127   2535431   2533785  
  5620.000000   2532226   2530769   2529422   2528154   2526931  
  5610.000000   2525706   2524458   2523186   2521925   2520718  
  5600.000000   2519613   2518634   2517783   2517033   2516353  
  5590.000000   2515705   2515071   2514438   2513808   2513181  
  5580.000000   2512557   2511929   2511294   2510649   2509993  
  5570.000000   2509327   2508646   2507941   2507196   2506399  
  5560.000000   2505540   2504626   2503667   2502683   2501689  
  5550.000000   2500694   2499698   2498701   2497703   2496714  
  5540.000000   2495744   2494808   2493911   2493048   2492205  
  5530.000000   2491368   2490524   2489673   2488820   2487974  
  5520.000000   2487143   2486326   2485513   2484693   2483855  
  5510.000000   2482992   2482096   2481165   2480189   2479160  
  5500.000000   2478073   2476933   2475755   2474568   2473393  
  5490.000000   2472243   2471104   2469947   2468728   2467421  
  5480.000000   2466016   2464537   2463024   2461529   2460081  
  5470.000000   2458693   2457345   2456006   2454640   2453227  
  5460.000000   2451756   2450232   2448659   2447041   2445374  
  5450.000000   2443663   2441915   2440150   2438395   2436670  
  5440.000000   2434991   2433357   2431763   2430203   2428684  
  5430.000000   2427217   2425814   2424472   2423175   2421886  
  5420.000000   2420581   2419246   2417914   2416638   2415503  
  5410.000000   2414564   2413854   2413339   2412969   2412663  
  5400.000000   2412384   2412105   2411861   2411684   2411632  
  5390.000000   2411722   2411976   2412376   2412932   2413638  
  5380.000000   2414526   2415603   2416894   2418369   2420009  
  5370.000000   2421753   2423581   2425450   2427384   2429376  
  5360.000000   2431480   2433694   2436080   2438639   2441448  
  5350.000000   2444524   2447954   2451747   2455968   2460580  
  5340.000000   2465619   2471029   2476863   2483087   2489774  
  5330.000000   2496881   2504457   2512420   2520794   2529503  
  5320.000000   2538623   2548149   2558237   2568919   2580355  
  5310.000000   2592528   2605519   2619232   2633699   2648817  
  5300.000000   2664650   2681152   2698450   2716545   2735572  
  5290.000000   2755505   2776404   2798144   2820674   2843803  
  5280.000000   2867468   2891552   2916110   2941164   2966857  
  5270.000000   2993225   3020297   3047933   3075948   3104085  
  5260.000000   3132148   3160031   3187740   3215377   3243030  
  5250.000000   3270757   3298462   3325997   3353080   3379527  
  5240.000000   3405135   3429913   3453854   3477130   3499793  
  5230.000000   3521989   3543668   3564846   3585363   3605179  
  5220.000000   3624146   3642304   3659608   3676207   3692124  
  5210.000000   3707522   3722373   3736738   3750476   3763568  
  5200.000000   3775856   3787379   3798084   3808110   3817467  
  5190.000000   3826293   3834546   3842284   3849403   3855934  
  5180.000000   3861793   3867058   3871690   3875781   3879284  
  5170.000000   3882254   3884624   3886450   3887695   3888455  
  5160.000000   3888731   3888623   3888114   3887261   3886011  
  5150.000000   3884402   3882394   3880040   3877322   3874294  
  5140.000000   3870931   3867269   3863283   3859023   3854501  
  5130.000000   3849797   3844944   3840009   3834998   3829929  
  5120.000000   3824772   3819527   3814178   3808749   3803254  
  5110.000000   3797730   3792196   3786676   3781177   3775717  
  5100.000000   3770302   3764952   3759672   3754466   3749321  
  5090.000000   3744222   3739146   3734083   3729027   3723990  
  5080.000000   3718977   3713999   3709046   3704107   3699154  
  5070.000000   3694170   3689131   3684031   3678851   3673587  
  5060.000000   3668219   3662742   3657143   3651439   3645638  
  5050.000000   3639773   3633854   3627895   3621876   3615778  
  5040.000000   3609563   3603220   3596741   3590156   3583497  
  5030.000000   3576810   3570128   3563476   3556856   3550267  
  5020.000000   3543701   3537153   3530627   3524131   3517679  
  5010.000000   3511279   3504949   3498693   3492533   3486474  
  5000.000000   3480548   3474763   3469156   3463731   3458521  
  4990.000000   3453519   3448752   3444201   3439885   3435776  
  4980.000000   3431890   3428198   3424732   3421474   3418477  
  4970.000000   3415736   3413308   3411180   3409391   3407910  
  4960.000000   3406762   3405911   3405394   3405186   3405335  
  4950.000000   3405816   3406668   3407846   3409373   3411198  
  4940.000000   3413356   3415815   3418636   3421802   3425373  
  4930.000000   3429318   3433668   3438369   3443437   3448823  
  4920.000000   3454558   3460612   3467026   3473778   3480897  
  4910.000000   3488349   3496146   3504247   3512652   3521322  
  4900.000000   3530244   3539371   3548670   3558091   3567586  
  4890.000000   3577108   3586603   3596033   3605335   3614473  
  4880.000000   3623372   3632004   3640291   3648214   3655696  
  4870.000000   3662720   3669203   3675130   3680426   3685107  
  4860.000000   3689136   3692578   3695439   3697807   3699691  
  4850.000000   3701163   3702210   3702884   3703176   3703150  
  4840.000000   3702831   3702308   3701630   3700882   3700102  
  4830.000000   3699343   3698617   3697952   3697350   3696828  
  4820.000000   3696392   3696055   3695825   3695705   3695702  
  4810.000000   3695807   3696024   3696338   3696748   3697235  
  4800.000000   3697803   3698438   3699154   3699949   3700848  
  4790.000000   3701854   3702986   3704236   3705602   3707061  
  4780.000000   3708597   3710187   3711820   3713483   3715173  
  4770.000000   3716887   3718626   3720386   3722166   3723957  
  4760.000000   3725752   3727539   3729304   3731029   3732700  
  4750.000000   3734308   3735850   3737336   3738778   3740200  
  4740.000000   3741616   3743041   3744478   3745923   3747368  
  4730.000000   3748800   3750208   3751583   3752920   3754215  
  4720.000000   3755473   3756694   3757895   3759087   3760301  
  4710.000000   3761556   3762888   3764316   3765872   3767567  
  4700.000000   3769423   3771445   3773648   3776029   3778594  
  4690.000000   3781330   3784235   3787289   3790489   3793810  
  4680.000000   3797247   3800766   3804349   3807945   3811521  
  4670.000000   3815022   3818426   3821704   3824876   3827967  
  4660.000000   3831041   3834161   3837410   3840850   3844538  
  4650.000000   3848498   3852733   3857218   3861903   3866728  
  4640.000000   3871624   3876535   3881411   3886230   3890974  
  4630.000000   3895649   3900244   3904760   3909169   3913447  
  4620.000000   3917538   3921404   3924981   3928238   3931128  
  4610.000000   3933653   3935800   3937615   3939126   3940412  
  4600.000000   3941518   3942525   3943457   3944365   3945233  
  4590.000000   3946075   3946842   3947523   3948059   3948427  
  4580.000000   3948571   3948468   3948077   3947398   3946425  
  4570.000000   3945198   3943750   3942152   3940448   3938701  
  4560.000000   3936929   3935160   3933378   3931581   3929736  
  4550.000000   3927835   3925850   3923777   3921600   3919321  
  4540.000000   3916938   3914467   3911927   3909351   3906774  
  4530.000000   3904225   3901731   3899295   3896920   3894582  
  4520.000000   3892280   3889994   3887746   3885539   3883428  
  4510.000000   3881432   3879623   3878016   3876692   3875659  
  4500.000000   3875000   3874713   3874882   3875494   3876629  
  4490.000000   3878265   3880490   3883290   3886767   3890913  
  4480.000000   3895832   3901499   3907988   3915240   3923289  
  4470.000000   3932044   3941515   3951599   3962300   3973521  
  4460.000000   3985265   3997439   4010042   4022987   4036264  
  4450.000000   4049790   4063555   4077494   4091600   4105836  
  4440.000000   4120196   4134655   4149191   4163776   4178359  
  4430.000000   4192903   4207340   4221640   4235735   4249613  
  4420.000000   4263207   4276513   4289453   4302012   4314089  
  4410.000000   4325651   4336581   4346847   4356352   4365102  
  4400.000000   4373062   4380310   4386885   4392925   4398516  
  4390.000000   4403812   4408897   4413901   4418867   4423876  
  4380.000000   4428926   4434047   4439208   4444418   4449653  
  4370.000000   4454933   4460256   4465651   4471121   4476675  
  4360.000000   4482291   4487951   4493604   4499235   4504775  
  4350.000000   4510230   4515523   4520684   4525648   4530487  
  4340.000000   4535173   4539798   4544298   4548625   4552496  
  4330.000000   4555559   4557262   4557086   4554551   4549451  
  4320.000000   4541872   4532270   4521345   4509956   4498898  
  4310.000000   4488821   4480083   4472817   4466927   4462232  
  4300.000000   4458517   4455616   4453424   4451869   4450919  
  4290.000000   4450497   4450562   4451003   4451785   4452829  
  4280.000000   4454136   4455672   4457440   4459421   4461591  
  4270.000000   4463932   4466400   4468952   4471472   4473802  
  4260.000000   4475675   4476788   4476799   4475444   4472565  
  4250.000000   4468201   4462550   4455988   4448937   4441857  
  4240.000000   4435091   4428909   4423401   4418582   4414345  
  4230.000000   4410566   4407087   4403773   4400508   4397204  
  4220.000000   4393831   4390377   4386916   4383512   4380313  
  4210.000000   4377412   4374942   4372945   4371468   4370469  
  4200.000000   4369917   4369724   4369841   4370190   4370744  
  4190.000000   4371448   4372300   4373255   4374328   4375480  
  4180.000000   4376741   4378087   4379561   4381149   4382901  
  4170.000000   4384805   4386913   4389218   4391779   4394601  
  4160.000000   4397750   4401231   4405107   4409362   4414037  
  4150.000000   4419095   4424560   4430390   4436617   4443211  
  4140.000000   4450228   4457644   4465516   4473803   4482536  
  4130.000000   4491644   4501137   4510940   4521084   4531537  
  4120.000000   4542377   4553625   4565386   4577692   4590628  
  4110.000000   4604187   4618394   4633182   4648506   4664246  
  4100.000000   4680314   4696585   4712978   4729414   4745866  
  4090.000000   4762319   4778782   4795266   4811768   4828291  
  4080.000000   4844802   4861298   4877731   4894101   4910330  
  4070.000000   4926386   4942138   4957517   4972368   4986645  
  4060.000000   5000242   5013187   5025436   5037063   5048039  
  4050.000000   5058450   5068267   5077593   5086412   5094831  
  4040.000000   5102811   5110415   5117543   5124207   5130284  
  4030.000000   5135798   5140664   5144941   5148587   5151667  
  4020.000000   5154128   5156044   5157428   5158365   5158828  
  4010.000000   5158925   5158703   5158133   5156976   5155243  
  4000.000000   5153216  
##END= 
