##TITLE= Sample 017 By ssteindl date Donnerstag, November 22 2018
##JCAMP-DX= 4.24
##DATA TYPE= INFRARED SPECTRUM
##ORIGIN= Exported PE Spectrum Data File
##OWNER= Sandra Steindl
##DATE= 18/11/22
##TIME= 12:55:33.00
##SPECTROMETER/DATA SYSTEM= PERKIN-ELMER Frontier FT-IR/NIR IR
##INSTRUMENT PARAMETERS=
  APODIZATION=stark
  DETECTOR=INGAAS
##RESOLUTION= 16.000000
##DELTAX= -2.000000
##XUNITS= 1/CM
##YUNITS= A
##XFACTOR= 1.00
##YFACTOR= 0.00000011920928955078
##FIRSTX= 10000.00
##LASTX= 4000.00
##NPOINTS= 3001
##FIRSTY= 0.217204
##MAXY= 0.689521
##MINY= 0.186288
##XYDATA= (X++(Y..Y))
 10000.000000   1822035   1817058   1813688   1814025   1818321  
  9990.000000   1825324   1833823   1842838   1851067   1857073  
  9980.000000   1860012   1859833   1857111   1852959   1848890  
  9970.000000   1846411   1846428   1849018   1853273   1857636  
  9960.000000   1860349   1860119   1856489   1849985   1841821  
  9950.000000   1833401   1825786   1819328   1813726   1808267  
  9940.000000   1802376   1795944   1789492   1783992   1780402  
  9930.000000   1779336   1780759   1784140   1788709   1793765  
  9920.000000   1798916   1803939   1808717   1812918   1816068  
  9910.000000   1817586   1817125   1814761   1811110   1807183  
  9900.000000   1804065   1802550   1802865   1804656   1807140  
  9890.000000   1809457   1810881   1811023   1809729   1807054  
  9880.000000   1803116   1798162   1792628   1787209   1782801  
  9870.000000   1780249   1780029   1781985   1785278   1788641  
  9860.000000   1790784   1790875   1788817   1785264   1781365  
  9850.000000   1778275   1776781   1776989   1778416   1780197  
  9840.000000   1781475   1781676   1780682   1778787   1776560  
  9830.000000   1774649   1773606   1773765   1775166   1777527  
  9820.000000   1780273   1782660   1783967   1783749   1782036  
  9810.000000   1779383   1776748   1775154   1775316   1777317  
  9800.000000   1780513   1783730   1785627   1785251   1782337  
  9790.000000   1777528   1772091   1767573   1765209   1765582  
  9780.000000   1768423   1772700   1776947   1779603   1779497  
  9770.000000   1776058   1769546   1760904   1751572   1743091  
  9760.000000   1736730   1733189   1732474   1734013   1736939  
  9750.000000   1740439   1744013   1747562   1751221   1755132  
  9740.000000   1759170   1762866   1765572   1766700   1766100  
  9730.000000   1764117   1761566   1759371   1758212   1758264  
  9720.000000   1759147   1760171   1760621   1760111   1758640  
  9710.000000   1756549   1754222   1751892   1749526   1746953  
  9700.000000   1744114   1741222   1738813   1737485   1737600  
  9690.000000   1739008   1741011   1742657   1743108   1742119  
  9680.000000   1740116   1738121   1737263   1738330   1741403  
  9670.000000   1745817   1750436   1754051   1755785   1755276  
  9660.000000   1752637   1748285   1742714   1736422   1729903  
  9650.000000   1723745   1718639   1715261   1714018   1714799  
  9640.000000   1716849   1718959   1719811   1718540   1715040  
  9630.000000   1710090   1705035   1701283   1699781   1700674  
  9620.000000   1703355   1706711   1709620   1711269   1711381  
  9610.000000   1710108   1707853   1705015   1701879   1698601  
  9600.000000   1695344   1692341   1689954   1688525   1688226  
  9590.000000   1688922   1690158   1691349   1691998   1691924  
  9580.000000   1691353   1690764   1690703   1691456   1692938  
  9570.000000   1694669   1695988   1696335   1695507   1693790  
  9560.000000   1691882   1690682   1690949   1693054   1696758  
  9550.000000   1701311   1705594   1708512   1709289   1707719  
  9540.000000   1704203   1699595   1694929   1691080   1688532  
  9530.000000   1687236   1686707   1686201   1685024   1682770  
  9520.000000   1679442   1675466   1671492   1668241   1666267  
  9510.000000   1665874   1667060   1669550   1672875   1676441  
  9500.000000   1679650   1681982   1683121   1682996   1681830  
  9490.000000   1680055   1678226   1676801   1676037   1675853  
  9480.000000   1675929   1675812   1675135   1673768   1671853  
  9470.000000   1669777   1667952   1666712   1666137   1666134  
  9460.000000   1666500   1667085   1667857   1668882   1670220  
  9450.000000   1671809   1673381   1674519   1674752   1673776  
  9440.000000   1671567   1668468   1665079   1662078   1659981  
  9430.000000   1658966   1658844   1659112   1659147   1658360  
  9420.000000   1656377   1653087   1648678   1643584   1638405  
  9410.000000   1633825   1630478   1628860   1629183   1631358  
  9400.000000   1634946   1639287   1643595   1647179   1649558  
  9390.000000   1650564   1650337   1649189   1647509   1645549  
  9380.000000   1643443   1641119   1638467   1635376   1631874  
  9370.000000   1628154   1624539   1621430   1619153   1617922  
  9360.000000   1617742   1618473   1619843   1621561   1623359  
  9350.000000   1625051   1626522   1627722   1628640   1629281  
  9340.000000   1629676   1629858   1629890   1629799   1629577  
  9330.000000   1629119   1628250   1626757   1624485   1621415  
  9320.000000   1617730   1613811   1610150   1607219   1605292  
  9310.000000   1604393   1604289   1604630   1605088   1605493  
  9300.000000   1605876   1606416   1607316   1608643   1610266  
  9290.000000   1611840   1612987   1613398   1613024   1612047  
  9280.000000   1610839   1609786   1609136   1608958   1609123  
  9270.000000   1609467   1609838   1610230   1610712   1611392  
  9260.000000   1612275   1613215   1613924   1614058   1613357  
  9250.000000   1611709   1609205   1606070   1602611   1599124  
  9240.000000   1595853   1592994   1590707   1589149   1588437  
  9230.000000   1588614   1589583   1591112   1592858   1594465  
  9220.000000   1595644   1596262   1596354   1596091   1595714  
  9210.000000   1595412   1595313   1595434   1595760   1596202  
  9200.000000   1596648   1596932   1596890   1596372   1595280  
  9190.000000   1593636   1591596   1589497   1587765   1586828  
  9180.000000   1586958   1588217   1590424   1593192   1596003  
  9170.000000   1598337   1599784   1600121   1599329   1597588  
  9160.000000   1595253   1592785   1590663   1589246   1588692  
  9150.000000   1588920   1589649   1590463   1590919   1590709  
  9140.000000   1589732   1588133   1586192   1584255   1582626  
  9130.000000   1581506   1580972   1580995   1581482   1582300  
  9120.000000   1583284   1584222   1584890   1585094   1584756  
  9110.000000   1583926   1582794   1581619   1580648   1580005  
  9100.000000   1579661   1579450   1579197   1578819   1578391  
  9090.000000   1578114   1578209   1578789   1579766   1580858  
  9080.000000   1581708   1582027   1581754   1581056   1580279  
  9070.000000   1579761   1579702   1580077   1580677   1581235  
  9060.000000   1581578   1581747   1581950   1582484   1583521  
  9050.000000   1585062   1586870   1588605   1589915   1590604  
  9040.000000   1590674   1590277   1589611   1588779   1587753  
  9030.000000   1586366   1584434   1581838   1578632   1575038  
  9020.000000   1571402   1568096   1565420   1563592   1562699  
  9010.000000   1562741   1563607   1565136   1567113   1569293  
  9000.000000   1571422   1573275   1574726   1575721   1576309  
  8990.000000   1576540   1576508   1576228   1575716   1574946  
  8980.000000   1573942   1572768   1571524   1570338   1569329  
  8970.000000   1568626   1568345   1568614   1569541   1571174  
  8960.000000   1573442   1576102   1578769   1580971   1582325  
  8950.000000   1582646   1582076   1581011   1579996   1579519  
  8940.000000   1579858   1581008   1582722   1584666   1586563  
  8930.000000   1588315   1589945   1591565   1593199   1594766  
  8920.000000   1596044   1596811   1596968   1596619   1596052  
  8910.000000   1595594   1595456   1595611   1595779   1595554  
  8900.000000   1594580   1592751   1590276   1587642   1585425  
  8890.000000   1584090   1583822   1584502   1585765   1587167  
  8880.000000   1588325   1589019   1589231   1589070   1588727  
  8870.000000   1588373   1588161   1588179   1588481   1589047  
  8860.000000   1589809   1590629   1591349   1591846   1592087  
  8850.000000   1592178   1592329   1592789   1593734   1595173  
  8840.000000   1596933   1598673   1600032   1600707   1600591  
  8830.000000   1599757   1598446   1596968   1595645   1594741  
  8820.000000   1594449   1594874   1596041   1597887   1600261  
  8810.000000   1602930   1605617   1608070   1610135   1611810  
  8800.000000   1613232   1614626   1616207   1618090   1620258  
  8790.000000   1622574   1624862   1626966   1628800   1630328  
  8780.000000   1631533   1632366   1632730   1632528   1631732  
  8770.000000   1630463   1629001   1627744   1627085   1627298  
  8760.000000   1628434   1630326   1632633   1634983   1637076  
  8750.000000   1638759   1640031   1640987   1641768   1642490  
  8740.000000   1643237   1644060   1645007   1646124   1647455  
  8730.000000   1649005   1650733   1652541   1654303   1655890  
  8720.000000   1657205   1658191   1658833   1659126   1659088  
  8710.000000   1658753   1658221   1657652   1657271   1657312  
  8700.000000   1657951   1659246   1661111   1663349   1665713  
  8690.000000   1667996   1670084   1671964   1673690   1675311  
  8680.000000   1676849   1678258   1679497   1680531   1681424  
  8670.000000   1682280   1683250   1684419   1685805   1687329  
  8660.000000   1688882   1690387   1691861   1693436   1695302  
  8650.000000   1697635   1700499   1703825   1707415   1711021  
  8640.000000   1714425   1717494   1720209   1722603   1724725  
  8630.000000   1726572   1728111   1729288   1730090   1730573  
  8620.000000   1730876   1731198   1731731   1732628   1733967  
  8610.000000   1735755   1737927   1740382   1742971   1745522  
  8600.000000   1747838   1749757   1751194   1752203   1752994  
  8590.000000   1753879   1755186   1757122   1759678   1762606  
  8580.000000   1765482   1767854   1769404   1770075   1770100  
  8570.000000   1769913   1769979   1770628   1771946   1773769  
  8560.000000   1775779   1777641   1779146   1780263   1781137  
  8550.000000   1781995   1783048   1784417   1786111   1788057  
  8540.000000   1790151   1792316   1794524   1796791   1799141  
  8530.000000   1801579   1804070   1806557   1808947   1811159  
  8520.000000   1813108   1814736   1816010   1816940   1817584  
  8510.000000   1818055   1818489   1819008   1819658   1820387  
  8500.000000   1821038   1821419   1821377   1820901   1820154  
  8490.000000   1819454   1819167   1819584   1820810   1822706  
  8480.000000   1824938   1827078   1828786   1829882   1830415  
  8470.000000   1830597   1830737   1831107   1831880   1833105  
  8460.000000   1834763   1836813   1839222   1841966   1844987  
  8450.000000   1848163   1851279   1854078   1856321   1857875  
  8440.000000   1858769   1859174   1859349   1859527   1859851  
  8430.000000   1860325   1860848   1861291   1861568   1861692  
  8420.000000   1861764   1861935   1862320   1862971   1863842  
  8410.000000   1864851   1865903   1866966   1868055   1869233  
  8400.000000   1870555   1872035   1873630   1875238   1876747  
  8390.000000   1878052   1879084   1879787   1880115   1880029  
  8380.000000   1879523   1878659   1877586   1876560   1875891  
  8370.000000   1875867   1876626   1878115   1880050   1882022  
  8360.000000   1883583   1884424   1884454   1883839   1882928  
  8350.000000   1882112   1881696   1881786   1882282   1882907  
  8340.000000   1883318   1883239   1882546   1881313   1879745  
  8330.000000   1878164   1876891   1876199   1876232   1876981  
  8320.000000   1878302   1879918   1881485   1882616   1882968  
  8310.000000   1882339   1880731   1878384   1875732   1873328  
  8300.000000   1871721   1871312   1872229   1874274   1876966  
  8290.000000   1879678   1881800   1882896   1882809   1881676  
  8280.000000   1879875   1877883   1876128   1874875   1874186  
  8270.000000   1873959   1874004   1874143   1874257   1874329  
  8260.000000   1874379   1874446   1874500   1874457   1874191  
  8250.000000   1873590   1872608   1871291   1869768   1868212  
  8240.000000   1866780   1865578   1864638   1863945   1863439  
  8230.000000   1863065   1862760   1862466   1862110   1861613  
  8220.000000   1860907   1859957   1858794   1857508   1856245  
  8210.000000   1855146   1854316   1853774   1853458   1853260  
  8200.000000   1853057   1852774   1852380   1851912   1851426  
  8190.000000   1850985   1850615   1850311   1850019   1849665  
  8180.000000   1849152   1848392   1847300   1845828   1843978  
  8170.000000   1841826   1839519   1837253   1835205   1833477  
  8160.000000   1832043   1830764   1829429   1827857   1825971  
  8150.000000   1823857   1821739   1819910   1818604   1817902  
  8140.000000   1817687   1817688   1817576   1817095   1816137  
  8130.000000   1814773   1813198   1811641   1810273   1809143  
  8120.000000   1808188   1807256   1806190   1804857   1803194  
  8110.000000   1801190   1798885   1796352   1793696   1791063  
  8100.000000   1788627   1786571   1785041   1784101   1783701  
  8090.000000   1783688   1783850   1783985   1783956   1783728  
  8080.000000   1783348   1782907   1782487   1782119   1781791  
  8070.000000   1781451   1781056   1780579   1780020   1779383  
  8060.000000   1778652   1777788   1776740   1775480   1774027  
  8050.000000   1772466   1770920   1769508   1768295   1767277  
  8040.000000   1766382   1765526   1764650   1763766   1762946  
  8030.000000   1762284   1761838   1761590   1761439   1761232  
  8020.000000   1760834   1760174   1759282   1758258   1757234  
  8010.000000   1756305   1755501   1754771   1754032   1753194  
  8000.000000   1752221   1751121   1749952   1748777   1747650  
  7990.000000   1746600   1745648   1744817   1744145   1743674  
  7980.000000   1743427   1743393   1743508   1743687   1743850  
  7970.000000   1743972   1744096   1744313   1744715   1745322  
  7960.000000   1746048   1746692   1747003   1746743   1745799  
  7950.000000   1744203   1742154   1739940   1737864   1736160  
  7940.000000   1734943   1734224   1733929   1733975   1734286  
  7930.000000   1734823   1735549   1736414   1737319   1738137  
  7920.000000   1738733   1739008   1738946   1738601   1738107  
  7910.000000   1737598   1737187   1736905   1736711   1736508  
  7900.000000   1736189   1735683   1734985   1734162   1733326  
  7890.000000   1732601   1732073   1731784   1731707   1731782  
  7880.000000   1731931   1732092   1732238   1732374   1732529  
  7870.000000   1732729   1732975   1733231   1733430   1733489  
  7860.000000   1733344   1732975   1732424   1731791   1731204  
  7850.000000   1730796   1730646   1730777   1731126   1731583  
  7840.000000   1732013   1732296   1732359   1732176   1731770  
  7830.000000   1731178   1730437   1729568   1728587   1727514  
  7820.000000   1726400   1725328   1724407   1723747   1723416  
  7810.000000   1723428   1723709   1724141   1724572   1724879  
  7800.000000   1724991   1724906   1724673   1724365   1724037  
  7790.000000   1723705   1723342   1722893   1722303   1721548  
  7780.000000   1720643   1719643   1718614   1717622   1716701  
  7770.000000   1715865   1715101   1714401   1713759   1713182  
  7760.000000   1712677   1712238   1711837   1711428   1710958  
  7750.000000   1710391   1709722   1708978   1708217   1707489  
  7740.000000   1706830   1706238   1705682   1705125   1704544  
  7730.000000   1703954   1703400   1702951   1702659   1702533  
  7720.000000   1702529   1702549   1702479   1702218   1701715  
  7710.000000   1700976   1700064   1699070   1698092   1697205  
  7700.000000   1696456   1695859   1695412   1695092   1694874  
  7690.000000   1694715   1694561   1694350   1694026   1693559  
  7680.000000   1692965   1692311   1691710   1691285   1691145  
  7670.000000   1691339   1691845   1692561   1693337   1694001  
  7660.000000   1694407   1694463   1694161   1693566   1692813  
  7650.000000   1692057   1691454   1691104   1691047   1691241  
  7640.000000   1691591   1691969   1692265   1692415   1692422  
  7630.000000   1692356   1692319   1692413   1692698   1693172  
  7620.000000   1693784   1694454   1695115   1695732   1696311  
  7610.000000   1696879   1697464   1698062   1698636   1699122  
  7600.000000   1699468   1699649   1699693   1699661   1699634  
  7590.000000   1699673   1699806   1700022   1700297   1700616  
  7580.000000   1700996   1701480   1702128   1702968   1703984  
  7570.000000   1705094   1706186   1707136   1707874   1708390  
  7560.000000   1708760   1709096   1709531   1710163   1711052  
  7550.000000   1712198   1713569   1715099   1716724   1718371  
  7540.000000   1719981   1721495   1722883   1724126   1725250  
  7530.000000   1726297   1727336   1728422   1729594   1730852  
  7520.000000   1732184   1733568   1735007   1736525   1738170  
  7510.000000   1739980   1741968   1744096   1746292   1748463  
  7500.000000   1750539   1752484   1754329   1756124   1757940  
  7490.000000   1759812   1761747   1763716   1765688   1767641  
  7480.000000   1769591   1771572   1773628   1775780   1778022  
  7470.000000   1780311   1782599   1784844   1787042   1789211  
  7460.000000   1791394   1793619   1795901   1798226   1800577  
  7450.000000   1802945   1805354   1807850   1810494   1813326  
  7440.000000   1816349   1819516   1822745   1825942   1829035  
  7430.000000   1831979   1834778   1837454   1840045   1842581  
  7420.000000   1845085   1847572   1850058   1852571   1855141  
  7410.000000   1857796   1860549   1863397   1866315   1869266  
  7400.000000   1872207   1875101   1877918   1880633   1883230  
  7390.000000   1885703   1888072   1890375   1892672   1895034  
  7380.000000   1897520   1900165   1902959   1905864   1908822  
  7370.000000   1911792   1914751   1917707   1920679   1923671  
  7360.000000   1926661   1929588   1932374   1934950   1937291  
  7350.000000   1939424   1941430   1943418   1945480   1947678  
  7340.000000   1950015   1952459   1954959   1957479   1959995  
  7330.000000   1962499   1964978   1967408   1969744   1971948  
  7320.000000   1974002   1975934   1977813   1979736   1981784  
  7310.000000   1984000   1986350   1988747   1991063   1993197  
  7300.000000   1995091   1996762   1998275   1999718   2001153  
  7290.000000   2002590   2003980   2005240   2006286   2007078  
  7280.000000   2007637   2008046   2008426   2008907   2009581  
  7270.000000   2010494   2011633   2012943   2014352   2015786  
  7260.000000   2017204   2018583   2019939   2021294   2022690  
  7250.000000   2024151   2025705   2027348   2029080   2030867  
  7240.000000   2032697   2034538   2036402   2038296   2040265  
  7230.000000   2042341   2044565   2046946   2049491   2052173  
  7220.000000   2054988   2057921   2060996   2064232   2067666  
  7210.000000   2071293   2075097   2078995   2082903   2086718  
  7200.000000   2090394   2093921   2097379   2100874   2104553  
  7190.000000   2108519   2112845   2117509   2122448   2127530  
  7180.000000   2132637   2137655   2142546   2147304   2152002  
  7170.000000   2156717   2161567   2166626   2171971   2177601  
  7160.000000   2183497   2189573   2195748   2201921   2208043  
  7150.000000   2214092   2220121   2226209   2232480   2239022  
  7140.000000   2245899   2253084   2260512   2268050   2275592  
  7130.000000   2283033   2290348   2297537   2304674   2311823  
  7120.000000   2319080   2326491   2334107   2341923   2349935  
  7110.000000   2358106   2366416   2374833   2383362   2392007  
  7100.000000   2400805   2409778   2418949   2428289   2437742  
  7090.000000   2447204   2456578   2465778   2474782   2483620  
  7080.000000   2492380   2501154   2510021   2518994   2528042  
  7070.000000   2537091   2546081   2554987   2563840   2572709  
  7060.000000   2581667   2590755   2599961   2609231   2618492  
  7050.000000   2627692   2636822   2645911   2655004   2664126  
  7040.000000   2673256   2682331   2691267   2700009   2708547  
  7030.000000   2716937   2725266   2733627   2742062   2750571  
  7020.000000   2759086   2767533   2775837   2783968   2791914  
  7010.000000   2799692   2807299   2814736   2821986   2829065  
  7000.000000   2836007   2842897   2849814   2856835   2863963  
  6990.000000   2871166   2878338   2885394   2892252   2898902  
  6980.000000   2905355   2911655   2917805   2923783   2929512  
  6970.000000   2934925   2939965   2944651   2949041   2953253  
  6960.000000   2957385   2961529   2965701   2969907   2974095  
  6950.000000   2978244   2982315   2986309   2990210   2994028  
  6940.000000   2997750   3001385   3004928   3008397   3011781  
  6930.000000   3015070   3018215   3021168   3023882   3026357  
  6920.000000   3028636   3030822   3033023   3035336   3037784  
  6910.000000   3040328   3042864   3045282   3047490   3049467  
  6900.000000   3051239   3052886   3054482   3056092   3057742  
  6890.000000   3059444   3061198   3063020   3064923   3066913  
  6880.000000   3068964   3071019   3072991   3074805   3076413  
  6870.000000   3077832   3079128   3080403   3081746   3083214  
  6860.000000   3084807   3086484   3088175   3089814   3091344  
  6850.000000   3092739   3093981   3095077   3096038   3096901  
  6840.000000   3097714   3098536   3099413   3100364   3101358  
  6830.000000   3102334   3103209   3103928   3104475   3104902  
  6820.000000   3105291   3105736   3106282   3106925   3107595  
  6810.000000   3108206   3108683   3109004   3109193   3109324  
  6800.000000   3109464   3109666   3109929   3110231   3110524  
  6790.000000   3110780   3110985   3111146   3111264   3111336  
  6780.000000   3111328   3111212   3110957   3110571   3110085  
  6770.000000   3109560   3109048   3108583   3108162   3107758  
  6760.000000   3107323   3106824   3106243   3105594   3104904  
  6750.000000   3104218   3103569   3102989   3102489   3102067  
  6740.000000   3101694   3101324   3100890   3100324   3099572  
  6730.000000   3098620   3097497   3096283   3095068   3093937  
  6720.000000   3092931   3092042   3091217   3090390   3089509  
  6710.000000   3088559   3087553   3086533   3085527   3084551  
  6700.000000   3083589   3082623   3081634   3080629   3079628  
  6690.000000   3078660   3077733   3076832   3075906   3074899  
  6680.000000   3073758   3072463   3071028   3069495   3067916  
  6670.000000   3066341   3064797   3063306   3061871   3060506  
  6660.000000   3059212   3057993   3056827   3055686   3054518  
  6650.000000   3053280   3051940   3050492   3048947   3047325  
  6640.000000   3045637   3043887   3042064   3040167   3038210  
  6630.000000   3036228   3034265   3032362   3030527   3028740  
  6620.000000   3026951   3025109   3023184   3021187   3019164  
  6610.000000   3017181   3015290   3013510   3011816   3010151  
  6600.000000   3008453   3006675   3004806   3002866   3000895  
  6590.000000   2998935   2997013   2995140   2993310   2991509  
  6580.000000   2989718   2987912   2986066   2984151   2982149  
  6570.000000   2980058   2977903   2975738   2973635   2971663  
  6560.000000   2969866   2968250   2966783   2965403   2964050  
  6550.000000   2962676   2961266   2959824   2958373   2956928  
  6540.000000   2955501   2954086   2952681   2951282   2949900  
  6530.000000   2948550   2947253   2946021   2944864   2943779  
  6520.000000   2942762   2941803   2940892   2940009   2939126  
  6510.000000   2938207   2937219   2936139   2934977   2933763  
  6500.000000   2932553   2931401   2930347   2929399   2928535  
  6490.000000   2927719   2926914   2926106   2925308   2924552  
  6480.000000   2923875   2923291   2922781   2922293   2921753  
  6470.000000   2921091   2920262   2919258   2918120   2916920  
  6460.000000   2915743   2914663   2913723   2912927   2912234  
  6450.000000   2911579   2910885   2910096   2909190   2908184  
  6440.000000   2907136   2906116   2905189   2904390   2903719  
  6430.000000   2903137   2902599   2902058   2901492   2900903  
  6420.000000   2900311   2899737   2899192   2898672   2898168  
  6410.000000   2897671   2897189   2896742   2896355   2896049  
  6400.000000   2895823   2895654   2895506   2895341   2895135  
  6390.000000   2894881   2894586   2894258   2893900   2893497  
  6380.000000   2893032   2892491   2891876   2891215   2890548  
  6370.000000   2889918   2889356   2888870   2888449   2888072  
  6360.000000   2887721   2887388   2887074   2886783   2886506  
  6350.000000   2886225   2885908   2885530   2885074   2884547  
  6340.000000   2883966   2883356   2882730   2882090   2881424  
  6330.000000   2880723   2879984   2879229   2878480   2877771  
  6320.000000   2877105   2876473   2875835   2875151   2874380  
  6310.000000   2873509   2872540   2871492   2870375   2869197  
  6300.000000   2867939   2866593   2865150   2863634   2862081  
  6290.000000   2860546   2859061   2857644   2856267   2854883  
  6280.000000   2853426   2851850   2850127   2848271   2846312  
  6270.000000   2844302   2842280   2840277   2838297   2836333  
  6260.000000   2834363   2832367   2830331   2828255   2826148  
  6250.000000   2824034   2821937   2819881   2817872   2815903  
  6240.000000   2813948   2811975   2809955   2807876   2805746  
  6230.000000   2803596   2801460   2799368   2797331   2795337  
  6220.000000   2793357   2791359   2789320   2787239   2785127  
  6210.000000   2783009   2780903   2778817   2776736   2774636  
  6200.000000   2772490   2770280   2768003   2765673   2763319  
  6190.000000   2760976   2758676   2756447   2754305   2752252  
  6180.000000   2750278   2748362   2746473   2744583   2742669  
  6170.000000   2740724   2738758   2736797   2734874   2733017  
  6160.000000   2731244   2729555   2727932   2726346   2724764  
  6150.000000   2723156   2721501   2719789   2718023   2716212  
  6140.000000   2714375   2712532   2710704   2708903   2707137  
  6130.000000   2705406   2703706   2702037   2700411   2698844  
  6120.000000   2697363   2695985   2694720   2693550   2692447  
  6110.000000   2691366   2690273   2689138   2687963   2686755  
  6100.000000   2685544   2684349   2683196   2682097   2681069  
  6090.000000   2680125   2679285   2678563   2677967   2677481  
  6080.000000   2677079   2676718   2676361   2675977   2675567  
  6070.000000   2675139   2674725   2674347   2674027   2673765  
  6060.000000   2673563   2673404   2673286   2673198   2673142  
  6050.000000   2673109   2673100   2673108   2673143   2673213  
  6040.000000   2673350   2673575   2673918   2674386   2674981  
  6030.000000   2675684   2676483   2677363   2678328   2679377  
  6020.000000   2680519   2681737   2683011   2684295   2685551  
  6010.000000   2686741   2687858   2688906   2689920   2690926  
  6000.000000   2691961   2693033   2694153   2695310   2696501  
  5990.000000   2697713   2698949   2700203   2701481   2702786  
  5980.000000   2704139   2705553   2707062   2708682   2710435  
  5970.000000   2712309   2714292   2716348   2718458   2720606  
  5960.000000   2722809   2725085   2727473   2729986   2732629  
  5950.000000   2735371   2738178   2740997   2743799   2746559  
  5940.000000   2749283   2751982   2754677   2757385   2760122  
  5930.000000   2762895   2765710   2768569   2771465   2774389  
  5920.000000   2777317   2780228   2783094   2785898   2788624  
  5910.000000   2791265   2793812   2796255   2798584   2800795  
  5900.000000   2802900   2804930   2806935   2808973   2811090  
  5890.000000   2813311   2815629   2818015   2820427   2822836  
  5880.000000   2825229   2827613   2830001   2832397   2834789  
  5870.000000   2837135   2839395   2841527   2843529   2845421  
  5860.000000   2847262   2849114   2851039   2853073   2855233  
  5850.000000   2857517   2859921   2862437   2865059   2867777  
  5840.000000   2870576   2873424   2876292   2879151   2881990  
  5830.000000   2884811   2887630   2890460   2893306   2896159  
  5820.000000   2898996   2901797   2904546   2907244   2909891  
  5810.000000   2912492   2915025   2917465   2919760   2921886  
  5800.000000   2923815   2925578   2927202   2928754   2930260  
  5790.000000   2931753   2933202   2934580   2935816   2936862  
  5780.000000   2937652   2938151   2938316   2938139   2937616  
  5770.000000   2936786   2935706   2934473   2933180   2931921  
  5760.000000   2930753   2929709   2928781   2927959   2927224  
  5750.000000   2926582   2926041   2925620   2925323   2925133  
  5740.000000   2925022   2924947   2924882   2924807   2924730  
  5730.000000   2924659   2924612   2924584   2924575   2924570  
  5720.000000   2924572   2924587   2924640   2924752   2924941  
  5710.000000   2925208   2925541   2925924   2926350   2926820  
  5700.000000   2927351   2927956   2928637   2929373   2930129  
  5690.000000   2930861   2931536   2932146   2932705   2933245  
  5680.000000   2933792   2934361   2934936   2935486   2935961  
  5670.000000   2936322   2936534   2936585   2936467   2936190  
  5660.000000   2935759   2935196   2934520   2933770   2932978  
  5650.000000   2932184   2931406   2930657   2929927   2929207  
  5640.000000   2928479   2927742   2926996   2926248   2925498  
  5630.000000   2924745   2923983   2923212   2922440   2921689  
  5620.000000   2920986   2920353   2919794   2919294   2918814  
  5610.000000   2918311   2917747   2917106   2916393   2915634  
  5600.000000   2914861   2914105   2913381   2912697   2912041  
  5590.000000   2911398   2910740   2910041   2909265   2908386  
  5580.000000   2907384   2906263   2905042   2903762   2902463  
  5570.000000   2901177   2899908   2898644   2897352   2896007  
  5560.000000   2894596   2893132   2891644   2890169   2888731  
  5550.000000   2887338   2885978   2884632   2883283   2881927  
  5540.000000   2880572   2879231   2877909   2876603   2875299  
  5530.000000   2873983   2872652   2871314   2869991   2868705  
  5520.000000   2867466   2866273   2865107   2863944   2862765  
  5510.000000   2861565   2860348   2859125   2857903   2856683  
  5500.000000   2855456   2854216   2852959   2851693   2850426  
  5490.000000   2849164   2847895   2846597   2845240   2843804  
  5480.000000   2842281   2840693   2839065   2837429   2835793  
  5470.000000   2834148   2832458   2830690   2828815   2826832  
  5460.000000   2824755   2822613   2820429   2818216   2815978  
  5450.000000   2813718   2811444   2809178   2806951   2804786  
  5440.000000   2802692   2800658   2798664   2796689   2794733  
  5430.000000   2792804   2790934   2789137   2787427   2785783  
  5420.000000   2784196   2782650   2781169   2779787   2778570  
  5410.000000   2777549   2776746   2776121   2775631   2775207  
  5400.000000   2774827   2774478   2774204   2774035   2774022  
  5390.000000   2774166   2774474   2774913   2775491   2776202  
  5380.000000   2777092   2778175   2779488   2781003   2782709  
  5370.000000   2784542   2786496   2788532   2790696   2792987  
  5360.000000   2795476   2798155   2801085   2804250   2807724  
  5350.000000   2811515   2815726   2820373   2825545   2831212  
  5340.000000   2837415   2844082   2851247   2858846   2866936  
  5330.000000   2875459   2884477   2893922   2903855   2914223  
  5320.000000   2925133   2936581   2948720   2961554   2975218  
  5310.000000   2989657   3004944   3020974   3037803   3055347  
  5300.000000   3073708   3092859   3112952   3133987   3156110  
  5290.000000   3179284   3203574   3228842   3255035   3281944  
  5280.000000   3309496   3337553   3366167   3395355   3425271  
  5270.000000   3455961   3487461   3519634   3552276   3585111  
  5260.000000   3617905   3650529   3682955   3715272   3747531  
  5250.000000   3779770   3811843   3843573   3874634   3904843  
  5240.000000   3933988   3962125   3989267   4015643   4041307  
  5230.000000   4066427   4090914   4114770   4137770   4159867  
  5220.000000   4180877   4200870   4219809   4237895   4255166  
  5210.000000   4271823   4287818   4303214   4317820   4331611  
  5200.000000   4344398   4356247   4367112   4377184   4386488  
  5190.000000   4395193   4403245   4410699   4417416   4423416  
  5180.000000   4428589   4433019   4436667   4439649   4441935  
  5170.000000   4443617   4444653   4445137   4445053   4444517  
  5160.000000   4443524   4442162   4440377   4438200   4435550  
  5150.000000   4432461   4428897   4424936   4420582   4415915  
  5140.000000   4410921   4405647   4400069   4394236   4388158  
  5130.000000   4381912   4375521   4369043   4362466   4355803  
  5120.000000   4349025   4342152   4335191   4328202   4321215  
  5110.000000   4314275   4307374   4300504   4293620   4286706  
  5100.000000   4279743   4272753   4265753   4258771   4251804  
  5090.000000   4244846   4237861   4230829   4223724   4216549  
  5080.000000   4209299   4201987   4194598   4187127   4179543  
  5070.000000   4171846   4164025   4156109   4148113   4140070  
  5060.000000   4131983   4123855   4115663   4107400   4099048  
  5050.000000   4090626   4082149   4073651   4065154   4056677  
  5040.000000   4048220   4039782   4031355   4022937   4014534  
  5030.000000   4006155   3997818   3989535   3981323   3973190  
  5020.000000   3965151   3957203   3949354   3941591   3933915  
  5010.000000   3926307   3918778   3911325   3903986   3896784  
  5000.000000   3889777   3882987   3876462   3870192   3864201  
  4990.000000   3858453   3852965   3847704   3842701   3837937  
  4980.000000   3833457   3829247   3825359   3821781   3818573  
  4970.000000   3815726   3813303   3811287   3809723   3808569  
  4960.000000   3807847   3807498   3807541   3807926   3808688  
  4950.000000   3809790   3811274   3813093   3815278   3817769  
  4940.000000   3820590   3823690   3827110   3830820   3834874  
  4930.000000   3839252   3844002   3849093   3854560   3860364  
  4920.000000   3866528   3873007   3879819   3886917   3894313  
  4910.000000   3901968   3909905   3918100   3926580   3935323  
  4900.000000   3944339   3953585   3963040   3972647   3982375  
  4890.000000   3992177   4002031   4011908   4021785   4031632  
  4880.000000   4041416   4051107   4060673   4070104   4079381  
  4870.000000   4088509   4097467   4106251   4114823   4123168  
  4860.000000   4131250   4139071   4146620   4153933   4161023  
  4850.000000   4167944   4174707   4181362   4187906   4194370  
  4840.000000   4200738   4207023   4213193   4219257   4225179  
  4830.000000   4230971   4236608   4242103   4247433   4252598  
  4820.000000   4257561   4262315   4266824   4271101   4275146  
  4810.000000   4279007   4282712   4286318   4289840   4293305  
  4800.000000   4296695   4300014   4303239   4306376   4309416  
  4790.000000   4312374   4315242   4318031   4320728   4323345  
  4780.000000   4325880   4328360   4330793   4333207   4335594  
  4770.000000   4337953   4340244   4342445   4344513   4346441  
  4760.000000   4348209   4349836   4351316   4352663   4353858  
  4750.000000   4354903   4355767   4356457   4356956   4357289  
  4740.000000   4357454   4357483   4357372   4357142   4356779  
  4730.000000   4356292   4355661   4354893   4353966   4352885  
  4720.000000   4351636   4350230   4348666   4346972   4345169  
  4710.000000   4343300   4341393   4339488   4337597   4335737  
  4700.000000   4333899   4332080   4330260   4328434   4326584  
  4690.000000   4324713   4322813   4320887   4318930   4316940  
  4680.000000   4314908   4312822   4310675   4308458   4306173  
  4670.000000   4303828   4301443   4299040   4296651   4294296  
  4660.000000   4292007   4289798   4287697   4285717   4283887  
  4650.000000   4282220   4280739   4279445   4278340   4277402  
  4640.000000   4276614   4275949   4275395   4274937   4274578  
  4630.000000   4274310   4274130   4274010   4273923   4273820  
  4620.000000   4273662   4273407   4273039   4272547   4271942  
  4610.000000   4271240   4270464   4269635   4268779   4267921  
  4600.000000   4267086   4266304   4265595   4264977   4264451  
  4590.000000   4264015   4263646   4263328   4263031   4262734  
  4580.000000   4262411   4262041   4261602   4261079   4260456  
  4570.000000   4259732   4258912   4258009   4257040   4256021  
  4560.000000   4254961   4253867   4252735   4251566   4250352  
  4550.000000   4249097   4247796   4246451   4245057   4243611  
  4540.000000   4242115   4240574   4239009   4237443   4235913  
  4530.000000   4234438   4233051   4231746   4230544   4229424  
  4520.000000   4228418   4227518   4226783   4226223   4225920  
  4510.000000   4225883   4226200   4226876   4228003   4229586  
  4500.000000   4231724   4234419   4237763   4241751   4246463  
  4490.000000   4251883   4258085   4265037   4272785   4281254  
  4480.000000   4290426   4300162   4310386   4320933   4331737  
  4470.000000   4342682   4353769   4364959   4376306   4387808  
  4460.000000   4399512   4411394   4423457   4435644   4447921  
  4450.000000   4460227   4472531   4484797   4497020   4509208  
  4440.000000   4521379   4533570   4545801   4558105   4570475  
  4430.000000   4582919   4595383   4607850   4620230   4632491  
  4420.000000   4644527   4656311   4667732   4678771   4689317  
  4410.000000   4699351   4708756   4717509   4725487   4732673  
  4400.000000   4738965   4744375   4748846   4752443   4755168  
  4390.000000   4757133   4758393   4759094   4759317   4759209  
  4380.000000   4758852   4758368   4757822   4757311   4756894  
  4370.000000   4756660   4756684   4757050   4757832   4759083  
  4360.000000   4760841   4763098   4765835   4768994   4772520  
  4350.000000   4776349   4780431   4784736   4789248   4793973  
  4340.000000   4798910   4804052   4809347   4814693   4819919  
  4330.000000   4824797   4829064   4832469   4834818   4836038  
  4320.000000   4836182   4835457   4834150   4832620   4831165  
  4310.000000   4830046   4829371   4829179   4829383   4829886  
  4300.000000   4830544   4831260   4831934   4832517   4832962  
  4290.000000   4833248   4833362   4833311   4833120   4832837  
  4280.000000   4832520   4832243   4832060   4832032   4832171  
  4270.000000   4832494   4832954   4833497   4834003   4834342  
  4260.000000   4834338   4833835   4832692   4830841   4828289  
  4250.000000   4825138   4821557   4817765   4813972   4810371  
  4240.000000   4807073   4804143   4801560   4799277   4797206  
  4230.000000   4795270   4793389   4791501   4789557   4787516  
  4220.000000   4785362   4783083   4780707   4778263   4775830  
  4210.000000   4773471   4771275   4769295   4767582   4766131  
  4200.000000   4764938   4763946   4763123   4762403   4761776  
  4190.000000   4761207   4760730   4760350   4760139   4760113  
  4180.000000   4760351   4760853   4761682   4762822   4764329  
  4170.000000   4766192   4768489   4771227   4774498   4778302  
  4160.000000   4782704   4787660   4793191   4799207   4805710  
  4150.000000   4812612   4819936   4827627   4835743   4844258  
  4140.000000   4853255   4862721   4872739   4883289   4894435  
  4130.000000   4906126   4918390   4931147   4944397   4958056  
  4120.000000   4972133   4986572   5001410   5016623   5032264  
  4110.000000   5048316   5064824   5081757   5099127   5116878  
  4100.000000   5134990   5153393   5172050   5190898   5209912  
  4090.000000   5229059   5248329   5267714   5287208   5306815  
  4080.000000   5326525   5346350   5366268   5386279   5406323  
  4070.000000   5426363   5446286   5466029   5485466   5504568  
  4060.000000   5523249   5541535   5559362   5576764   5593651  
  4050.000000   5610046   5625847   5641106   5655746   5669850  
  4040.000000   5683327   5696230   5708409   5719873   5730458  
  4030.000000   5740199   5748975   5756865   5763777   5769767  
  4020.000000   5774696   5778612   5781454   5783311   5784121  
  4010.000000   5784072   5783270   5781778   5779362   5776129  
  4000.000000   5772485  
##END= 
