##TITLE= Sample 006 By ssteindl date Donnerstag, November 22 2018
##JCAMP-DX= 4.24
##DATA TYPE= INFRARED SPECTRUM
##ORIGIN= Exported PE Spectrum Data File
##OWNER= Sandra Steindl
##DATE= 18/11/22
##TIME= 12:42:36.00
##SPECTROMETER/DATA SYSTEM= PERKIN-ELMER Frontier FT-IR/NIR IR
##INSTRUMENT PARAMETERS=
  APODIZATION=stark
  DETECTOR=INGAAS
##RESOLUTION= 16.000000
##DELTAX= -2.000000
##XUNITS= 1/CM
##YUNITS= A
##XFACTOR= 1.00
##YFACTOR= 0.00000011920928955078
##FIRSTX= 10000.00
##LASTX= 4000.00
##NPOINTS= 3001
##FIRSTY= 0.222653
##MAXY= 0.702706
##MINY= 0.189922
##XYDATA= (X++(Y..Y))
 10000.000000   1867751   1868594   1870928   1876362   1884225  
  9990.000000   1892331   1898899   1903090   1904419   1902869  
  9980.000000   1899230   1894878   1891051   1888635   1888053  
  9970.000000   1889312   1891896   1895021   1897771   1899340  
  9960.000000   1899167   1897111   1893381   1888526   1883187  
  9950.000000   1877982   1873342   1869478   1866457   1864262  
  9940.000000   1862875   1862266   1862285   1862631   1862791  
  9930.000000   1862210   1860485   1857585   1853982   1850488  
  9920.000000   1848021   1847159   1847935   1849723   1851539  
  9910.000000   1852400   1851780   1849785   1847077   1844563  
  9900.000000   1842977   1842633   1843357   1844686   1846133  
  9890.000000   1847415   1848520   1849554   1850579   1851406  
  9880.000000   1851669   1850937   1849004   1846011   1842460  
  9870.000000   1839019   1836249   1834446   1833561   1833417  
  9860.000000   1833846   1834912   1836787   1839640   1843322  
  9850.000000   1847266   1850547   1852161   1851437   1848292  
  9840.000000   1843337   1837610   1832197   1827811   1824590  
  9830.000000   1822196   1820087   1817895   1815608   1813576  
  9820.000000   1812243   1811892   1812398   1813265   1813803  
  9810.000000   1813442   1812000   1809721   1807212   1805118  
  9800.000000   1803915   1803709   1804265   1805147   1805908  
  9790.000000   1806245   1806068   1805460   1804604   1803708  
  9780.000000   1802920   1802351   1801986   1801772   1801537  
  9770.000000   1801124   1800386   1799311   1798024   1796738  
  9760.000000   1795677   1794863   1794101   1792860   1790514  
  9750.000000   1786465   1780485   1772840   1764337   1756160  
  9740.000000   1749587   1745675   1745032   1747697   1753190  
  9730.000000   1760604   1768783   1776493   1782627   1786410  
  9720.000000   1787596   1786548   1784227   1781913   1780902  
  9710.000000   1782017   1785413   1790425   1795858   1800327  
  9700.000000   1802694   1802429   1799633   1795039   1789631  
  9690.000000   1784478   1780425   1778066   1777670   1779211  
  9680.000000   1782317   1786296   1790144   1792774   1793235  
  9670.000000   1791095   1786601   1780697   1774745   1770042  
  9660.000000   1767404   1766849   1767678   1768763   1769007  
  9650.000000   1767784   1765077   1761475   1757814   1754896  
  9640.000000   1753190   1752788   1753465   1754822   1756414  
  9630.000000   1757784   1758476   1758063   1756252   1753033  
  9620.000000   1748796   1744300   1740483   1738102   1737450  
  9610.000000   1738142   1739272   1739713   1738605   1735698  
  9600.000000   1731477   1726986   1723404   1721594   1721797  
  9590.000000   1723613   1726273   1728978   1731219   1732848  
  9580.000000   1733969   1734742   1735202   1735257   1734777  
  9570.000000   1733747   1732383   1731041   1730135   1729848  
  9560.000000   1730063   1730318   1729995   1728583   1725878  
  9550.000000   1722146   1717996   1714237   1711593   1710547  
  9540.000000   1711247   1713527   1716953   1720911   1724655  
  9530.000000   1727421   1728546   1727648   1724794   1720547  
  9520.000000   1715905   1711972   1709635   1709173   1710184  
  9510.000000   1711682   1712517   1711793   1709234   1705275  
  9500.000000   1700871   1697153   1694984   1694719   1696114  
  9490.000000   1698541   1701263   1703742   1705768   1707429  
  9480.000000   1708941   1710474   1712037   1713463   1714496  
  9470.000000   1714847   1714344   1712896   1710571   1707511  
  9460.000000   1703940   1700150   1696474   1693312   1691011  
  9450.000000   1689845   1689868   1690944   1692737   1694850  
  9440.000000   1696884   1698548   1699633   1700037   1699715  
  9430.000000   1698692   1697080   1695067   1692941   1690994  
  9420.000000   1689498   1688541   1687996   1687496   1686546  
  9410.000000   1684716   1681802   1677974   1673726   1669771  
  9400.000000   1666821   1665384   1665643   1667386   1670102  
  9390.000000   1673090   1675661   1677268   1677630   1676752  
  9380.000000   1674917   1672622   1670501   1669190   1669177  
  9370.000000   1670652   1673390   1676830   1680147   1682561  
  9360.000000   1683470   1682714   1680561   1677664   1674802  
  9350.000000   1672571   1671166   1670266   1669213   1667228  
  9340.000000   1663751   1658633   1652228   1645336   1638957  
  9330.000000   1634045   1631197   1630571   1631877   1634553  
  9320.000000   1637930   1641391   1644465   1646839   1648377  
  9310.000000   1649041   1648927   1648163   1646997   1645651  
  9300.000000   1644371   1643261   1642329   1641463   1640532  
  9290.000000   1639504   1638464   1637680   1637434   1637996  
  9280.000000   1639423   1641563   1644039   1646395   1648242  
  9270.000000   1649351   1649705   1649383   1648524   1647169  
  9260.000000   1645322   1642939   1640086   1636959   1633927  
  9250.000000   1631430   1629846   1629385   1629981   1631418  
  9240.000000   1633356   1635553   1637865   1640322   1643037  
  9230.000000   1646070   1649339   1652540   1655260   1657027  
  9220.000000   1657477   1656400   1653833   1650072   1645657  
  9210.000000   1641280   1637658   1635436   1635008   1636405  
  9200.000000   1639146   1642396   1645120   1646460   1645953  
  9190.000000   1643750   1640572   1637490   1635543   1635332  
  9180.000000   1636825   1639365   1641960   1643603   1643611  
  9170.000000   1641845   1638718   1634998   1631495   1628828  
  9160.000000   1627290   1626832   1627150   1627804   1628383  
  9150.000000   1628557   1628149   1627145   1625710   1624173  
  9140.000000   1622927   1622341   1622607   1623699   1625352  
  9130.000000   1627186   1628827   1630081   1630984   1631768  
  9120.000000   1632700   1633868   1635089   1635892   1635730  
  9110.000000   1634119   1630887   1626252   1620823   1615406  
  9100.000000   1610757   1607453   1605774   1605769   1607213  
  9090.000000   1609772   1612972   1616320   1619279   1621394  
  9080.000000   1622395   1622254   1621253   1619792   1618313  
  9070.000000   1616998   1615768   1614241   1611974   1608686  
  9060.000000   1604483   1599952   1595988   1593533   1593184  
  9050.000000   1595039   1598633   1603105   1607476   1610934  
  9040.000000   1613077   1613866   1613541   1612449   1610967  
  9030.000000   1609412   1608051   1607140   1606948   1607681  
  9020.000000   1609350   1611745   1614414   1616803   1618349  
  9010.000000   1618716   1617863   1616043   1613662   1611117  
  9000.000000   1608727   1606631   1604839   1603279   1601884  
  8990.000000   1600633   1599528   1598607   1597885   1597402  
  8980.000000   1597194   1597335   1597902   1598928   1600360  
  8970.000000   1601998   1603544   1604654   1605079   1604728  
  8960.000000   1603736   1602400   1601113   1600204   1599875  
  8950.000000   1600123   1600795   1601648   1602412   1602887  
  8940.000000   1602952   1602625   1602023   1601385   1600994  
  8930.000000   1601131   1601979   1603538   1605593   1607712  
  8920.000000   1609365   1610073   1609584   1607955   1605544  
  8910.000000   1602902   1600612   1599105   1598567   1598894  
  8900.000000   1599790   1600864   1601772   1602279   1602297  
  8890.000000   1601867   1601137   1600321   1599670   1599425  
  8880.000000   1599791   1600851   1602562   1604716   1607024  
  8870.000000   1609170   1610922   1612182   1612996   1613519  
  8860.000000   1613934   1614374   1614899   1615491   1616128  
  8850.000000   1616803   1617557   1618435   1619448   1620535  
  8840.000000   1621560   1622366   1622838   1622979   1622912  
  8830.000000   1622863   1623064   1623696   1624817   1626383  
  8820.000000   1628276   1630355   1632485   1634534   1636363  
  8810.000000   1637798   1638674   1638847   1638299   1637157  
  8800.000000   1635717   1634364   1633475   1633308   1633939  
  8790.000000   1635278   1637114   1639233   1641457   1643704  
  8780.000000   1645944   1648162   1650307   1652286   1653985  
  8770.000000   1655317   1656257   1656850   1657209   1657451  
  8760.000000   1657687   1657983   1658379   1658883   1659481  
  8750.000000   1660125   1660729   1661171   1661332   1661138  
  8740.000000   1660639   1660019   1659587   1659677   1660553  
  8730.000000   1662299   1664808   1667788   1670890   1673796  
  8720.000000   1676336   1678499   1680398   1682186   1683989  
  8710.000000   1685863   1687812   1689816   1691889   1694062  
  8700.000000   1696365   1698775   1701187   1703416   1705254  
  8690.000000   1706543   1707250   1707486   1707481   1707502  
  8680.000000   1707774   1708416   1709426   1710716   1712165  
  8670.000000   1713689   1715262   1716915   1718702   1720666  
  8660.000000   1722817   1725114   1727480   1729808   1731990  
  8650.000000   1733929   1735581   1736955   1738151   1739327  
  8640.000000   1740678   1742351   1744395   1746715   1749086  
  8630.000000   1751242   1752953   1754155   1754965   1755682  
  8620.000000   1756669   1758233   1760510   1763404   1766628  
  8610.000000   1769776   1772467   1774421   1775534   1775865  
  8600.000000   1775608   1775051   1774523   1774372   1774903  
  8590.000000   1776360   1778830   1782229   1786250   1790455  
  8580.000000   1794343   1797497   1799666   1800837   1801207  
  8570.000000   1801096   1800829   1800632   1800620   1800795  
  8560.000000   1801130   1801603   1802230   1803044   1804041  
  8550.000000   1805159   1806262   1807200   1807874   1808295  
  8540.000000   1808601   1809020   1809797   1811106   1812986  
  8530.000000   1815350   1818019   1820804   1823549   1826160  
  8520.000000   1828600   1830835   1832806   1834410   1835541  
  8510.000000   1836125   1836181   1835826   1835274   1834775  
  8500.000000   1834555   1834759   1835416   1836456   1837728  
  8490.000000   1839076   1840358   1841504   1842511   1843444  
  8480.000000   1844415   1845536   1846890   1848496   1850297  
  8470.000000   1852175   1853988   1855618   1857011   1858212  
  8460.000000   1859337   1860537   1861922   1863512   1865216  
  8450.000000   1866850   1868198   1869074   1869396   1869201  
  8440.000000   1868643   1867948   1867358   1867080   1867244  
  8430.000000   1867899   1869001   1870453   1872101   1873799  
  8420.000000   1875413   1876882   1878209   1879480   1880814  
  8410.000000   1882319   1884033   1885870   1887642   1889086  
  8400.000000   1889973   1890160   1889677   1888709   1887560  
  8390.000000   1886551   1885916   1885760   1886022   1886576  
  8380.000000   1887254   1887974   1888738   1889652   1890833  
  8370.000000   1892353   1894137   1895978   1897567   1898579  
  8360.000000   1898789   1898133   1896772   1895012   1893240  
  8350.000000   1891778   1890808   1890315   1890120   1889964  
  8340.000000   1889627   1889033   1888277   1887615   1887346  
  8330.000000   1887725   1888840   1890595   1892720   1894873  
  8320.000000   1896748   1898157   1899067   1899570   1899815  
  8310.000000   1899933   1899978   1899925   1899699   1899228  
  8300.000000   1898479   1897485   1896312   1895055   1893792  
  8290.000000   1892588   1891483   1890521   1889739   1889162  
  8280.000000   1888767   1888489   1888211   1887826   1887274  
  8270.000000   1886597   1885944   1885535   1885569   1886132  
  8260.000000   1887127   1888289   1889257   1889696   1889413  
  8250.000000   1888409   1886887   1885146   1883476   1882046  
  8240.000000   1880860   1879796   1878676   1877374   1875867  
  8230.000000   1874275   1872797   1871663   1871013   1870876  
  8220.000000   1871126   1871540   1871848   1871800   1871231  
  8210.000000   1870092   1868468   1866543   1864557   1862733  
  8200.000000   1861223   1860068   1859195   1858449   1857654  
  8190.000000   1856691   1855528   1854251   1852990   1851885  
  8180.000000   1850997   1850300   1849688   1849031   1848239  
  8170.000000   1847294   1846258   1845220   1844242   1843303  
  8160.000000   1842301   1841095   1839573   1837716   1835628  
  8150.000000   1833508   1831587   1830048   1828961   1828272  
  8140.000000   1827837   1827485   1827077   1826545   1825888  
  8130.000000   1825150   1824382   1823622   1822884   1822173  
  8120.000000   1821494   1820857   1820265   1819706   1819135  
  8110.000000   1818497   1817730   1816809   1815742   1814574  
  8100.000000   1813358   1812121   1810847   1809473   1807924  
  8090.000000   1806151   1804174   1802091   1800056   1798240  
  8080.000000   1796772   1795714   1795037   1794652   1794434  
  8070.000000   1794254   1794011   1793627   1793060   1792280  
  8060.000000   1791290   1790106   1788780   1787378   1785980  
  8050.000000   1784659   1783468   1782445   1781604   1780965  
  8040.000000   1780542   1780354   1780397   1780629   1780951  
  8030.000000   1781208   1781224   1780829   1779924   1778498  
  8020.000000   1776654   1774572   1772482   1770597   1769071  
  8010.000000   1767975   1767275   1766877   1766640   1766442  
  8000.000000   1766200   1765903   1765590   1765333   1765189  
  7990.000000   1765163   1765198   1765172   1764956   1764441  
  7980.000000   1763606   1762512   1761305   1760152   1759190  
  7970.000000   1758484   1758003   1757657   1757337   1756974  
  7960.000000   1756559   1756147   1755814   1755623   1755579  
  7950.000000   1755628   1755674   1755615   1755381   1754945  
  7940.000000   1754330   1753574   1752722   1751799   1750825  
  7930.000000   1749814   1748801   1747832   1746964   1746243  
  7920.000000   1745687   1745292   1745031   1744885   1744851  
  7910.000000   1744951   1745218   1745668   1746290   1747020  
  7900.000000   1747761   1748393   1748806   1748924   1748727  
  7890.000000   1748253   1747605   1746928   1746393   1746156  
  7880.000000   1746317   1746880   1747730   1748650   1749363  
  7870.000000   1749613   1749247   1748271   1746863   1745321  
  7860.000000   1743974   1743077   1742733   1742880   1743328  
  7850.000000   1743853   1744273   1744518   1744623   1744686  
  7840.000000   1744794   1744968   1745140   1745182   1744964  
  7830.000000   1744416   1743566   1742537   1741504   1740643  
  7820.000000   1740059   1739777   1739725   1739786   1739823  
  7810.000000   1739732   1739452   1738977   1738335   1737573  
  7800.000000   1736731   1735833   1734885   1733881   1732821  
  7790.000000   1731717   1730603   1729532   1728559   1727732  
  7780.000000   1727070   1726568   1726191   1725898   1725647  
  7770.000000   1725405   1725152   1724866   1724526   1724093  
  7760.000000   1723535   1722827   1721977   1721031   1720063  
  7750.000000   1719163   1718404   1717827   1717435   1717196  
  7740.000000   1717066   1716994   1716928   1716800   1716528  
  7730.000000   1716014   1715174   1713977   1712486   1710867  
  7720.000000   1709369   1708251   1707700   1707760   1708305  
  7710.000000   1709082   1709786   1710173   1710127   1709693  
  7700.000000   1709040   1708386   1707910   1707690   1707693  
  7690.000000   1707794   1707846   1707723   1707370   1706791  
  7680.000000   1706045   1705202   1704326   1703465   1702648  
  7670.000000   1701910   1701284   1700812   1700535   1700487  
  7660.000000   1700686   1701130   1701784   1702579   1703409  
  7650.000000   1704135   1704615   1704729   1704429   1703751  
  7640.000000   1702827   1701843   1700995   1700420   1700161  
  7630.000000   1700161   1700291   1700413   1700430   1700326  
  7620.000000   1700155   1700003   1699953   1700032   1700220  
  7610.000000   1700442   1700626   1700706   1700670   1700536  
  7600.000000   1700362   1700217   1700180   1700331   1700746  
  7590.000000   1701484   1702566   1703949   1705526   1707123  
  7580.000000   1708558   1709675   1710406   1710775   1710903  
  7570.000000   1710945   1711054   1711321   1711771   1712370  
  7560.000000   1713073   1713851   1714718   1715714   1716878  
  7550.000000   1718208   1719651   1721101   1722442   1723580  
  7540.000000   1724494   1725225   1725891   1726625   1727560  
  7530.000000   1728773   1730276   1732014   1733890   1735785  
  7520.000000   1737602   1739277   1740806   1742227   1743626  
  7510.000000   1745088   1746687   1748441   1750333   1752285  
  7500.000000   1754219   1756054   1757765   1759367   1760928  
  7490.000000   1762525   1764235   1766101   1768138   1770321  
  7480.000000   1772623   1775003   1777440   1779908   1782393  
  7470.000000   1784864   1787298   1789667   1791964   1794197  
  7460.000000   1796400   1798615   1800898   1803287   1805814  
  7450.000000   1808485   1811285   1814178   1817115   1820036  
  7440.000000   1822890   1825650   1828330   1830981   1833686  
  7430.000000   1836523   1839537   1842704   1845936   1849085  
  7420.000000   1852009   1854603   1856853   1858836   1860708  
  7410.000000   1862648   1864814   1867295   1870106   1873191  
  7400.000000   1876450   1879779   1883082   1886294   1889372  
  7390.000000   1892300   1895083   1897748   1900334   1902884  
  7380.000000   1905439   1908013   1910599   1913168   1915691  
  7370.000000   1918157   1920583   1923010   1925479   1928013  
  7360.000000   1930595   1933175   1935690   1938097   1940397  
  7350.000000   1942645   1944925   1947324   1949885   1952596  
  7340.000000   1955399   1958223   1961008   1963735   1966410  
  7330.000000   1969049   1971643   1974153   1976515   1978678  
  7320.000000   1980628   1982412   1984116   1985845   1987662  
  7310.000000   1989580   1991545   1993475   1995295   1996982  
  7300.000000   1998561   2000102   2001660   2003257   2004854  
  7290.000000   2006384   2007774   2009000   2010091   2011129  
  7280.000000   2012205   2013382   2014670   2016020   2017357  
  7270.000000   2018606   2019734   2020750   2021705   2022655  
  7260.000000   2023652   2024721   2025880   2027140   2028526  
  7250.000000   2030059   2031760   2033602   2035535   2037457  
  7240.000000   2039288   2040966   2042518   2044020   2045611  
  7230.000000   2047406   2049492   2051868   2054497   2057289  
  7220.000000   2060186   2063138   2066158   2069259   2072478  
  7210.000000   2075811   2079255   2082775   2086368   2090032  
  7200.000000   2093814   2097748   2101888   2106236   2110788  
  7190.000000   2115489   2120301   2125167   2130068   2134977  
  7180.000000   2139896   2144804   2149701   2154568   2159422  
  7170.000000   2164276   2169193   2174218   2179416   2184795  
  7160.000000   2190352   2196026   2201765   2207510   2213260  
  7150.000000   2219036   2224924   2231003   2237369   2244046  
  7140.000000   2251027   2258215   2265512   2272793   2280005  
  7130.000000   2287133   2294259   2301486   2308962   2316779  
  7120.000000   2324992   2333551   2342363   2351264   2360125  
  7110.000000   2368829   2377354   2385721   2394031   2402381  
  7100.000000   2410891   2419627   2428632   2437881   2447330  
  7090.000000   2456894   2466502   2476087   2485625   2495114  
  7080.000000   2504592   2514092   2523651   2533264   2542909  
  7070.000000   2552531   2562087   2571543   2580915   2590233  
  7060.000000   2599553   2608909   2618313   2627749   2637188  
  7050.000000   2646612   2656031   2665493   2675055   2684767  
  7040.000000   2694630   2704595   2714565   2724426   2734076  
  7030.000000   2743459   2752561   2761417   2770067   2778566  
  7020.000000   2786945   2795242   2803475   2811688   2819899  
  7010.000000   2828138   2836385   2844613   2852753   2860752  
  7000.000000   2868546   2876118   2883450   2890558   2897430  
  6990.000000   2904077   2910493   2916715   2922788   2928807  
  6980.000000   2934846   2940978   2947189   2953428   2959570  
  6970.000000   2965512   2971160   2976508   2981588   2986497  
  6960.000000   2991306   2996074   3000792   3005435   3009946  
  6950.000000   3014299   3018474   3022499   3026382   3030155  
  6940.000000   3033815   3037386   3040876   3044330   3047777  
  6930.000000   3051255   3054744   3058201   3061533   3064656  
  6920.000000   3067503   3070074   3072415   3074619   3076766  
  6910.000000   3078918   3081078   3083227   3085322   3087348  
  6900.000000   3089307   3091241   3093188   3095183   3097223  
  6890.000000   3099288   3101341   3103361   3105336   3107279  
  6880.000000   3109199   3111102   3112971   3114780   3116502  
  6870.000000   3118129   3119672   3121161   3122624   3124077  
  6860.000000   3125507   3126888   3128179   3129363   3130444  
  6850.000000   3131457   3132452   3133478   3134558   3135691  
  6840.000000   3136839   3137955   3138982   3139891   3140669  
  6830.000000   3141347   3141971   3142606   3143303   3144092  
  6820.000000   3144956   3145846   3146675   3147361   3147842  
  6810.000000   3148111   3148208   3148217   3148228   3148320  
  6800.000000   3148516   3148802   3149126   3149436   3149693  
  6790.000000   3149893   3150045   3150175   3150280   3150350  
  6780.000000   3150348   3150252   3150053   3149783   3149486  
  6770.000000   3149216   3148990   3148797   3148578   3148265  
  6760.000000   3147791   3147128   3146280   3145296   3144235  
  6750.000000   3143167   3142137   3141182   3140308   3139513  
  6740.000000   3138767   3138031   3137247   3136361   3135328  
  6730.000000   3134140   3132825   3131453   3130108   3128871  
  6720.000000   3127784   3126846   3126010   3125205   3124362  
  6710.000000   3123434   3122404   3121283   3120098   3118882  
  6700.000000   3117661   3116456   3115280   3114144   3113048  
  6690.000000   3111989   3110945   3109896   3108811   3107675  
  6680.000000   3106476   3105216   3103896   3102517   3101068  
  6670.000000   3099542   3097929   3096245   3094515   3092785  
  6660.000000   3091086   3089440   3087834   3086242   3084622  
  6650.000000   3082955   3081236   3079485   3077726   3075979  
  6640.000000   3074239   3072490   3070708   3068884   3067027  
  6630.000000   3065164   3063317   3061498   3059683   3057834  
  6620.000000   3055903   3053870   3051746   3049579   3047426  
  6610.000000   3045342   3043339   3041399   3039475   3037520  
  6600.000000   3035502   3033417   3031272   3029075   3026822  
  6590.000000   3024500   3022100   3019638   3017170   3014778  
  6580.000000   3012550   3010544   3008767   3007167   3005659  
  6570.000000   3004156   3002607   3001004   2999385   2997789  
  6560.000000   2996245   2994735   2993219   2991640   2989974  
  6550.000000   2988230   2986468   2984762   2983181   2981754  
  6540.000000   2980471   2979286   2978142   2976987   2975793  
  6530.000000   2974545   2973246   2971897   2970504   2969079  
  6520.000000   2967646   2966241   2964908   2963675   2962554  
  6510.000000   2961526   2960553   2959599   2958641   2957685  
  6500.000000   2956752   2955867   2955039   2954242   2953433  
  6490.000000   2952554   2951568   2950463   2949267   2948026  
  6480.000000   2946797   2945623   2944528   2943523   2942609  
  6470.000000   2941787   2941059   2940420   2939851   2939317  
  6460.000000   2938772   2938170   2937481   2936700   2935848  
  6450.000000   2934961   2934080   2933235   2932448   2931726  
  6440.000000   2931070   2930474   2929926   2929399   2928858  
  6430.000000   2928260   2927572   2926780   2925902   2924981  
  6420.000000   2924074   2923228   2922468   2921787   2921159  
  6410.000000   2920556   2919964   2919388   2918849   2918365  
  6400.000000   2917938   2917546   2917151   2916714   2916220  
  6390.000000   2915677   2915121   2914595   2914130   2913737  
  6380.000000   2913399   2913085   2912761   2912407   2912014  
  6370.000000   2911584   2911121   2910624   2910090   2909518  
  6360.000000   2908918   2908308   2907708   2907130   2906567  
  6350.000000   2905998   2905389   2904720   2903986   2903213  
  6340.000000   2902437   2901700   2901022   2900400   2899808  
  6330.000000   2899218   2898599   2897949   2897268   2896568  
  6320.000000   2895845   2895085   2894258   2893339   2892312  
  6310.000000   2891185   2889975   2888710   2887398   2886041  
  6300.000000   2884618   2883124   2881556   2879947   2878329  
  6290.000000   2876748   2875217   2873732   2872252   2870734  
  6280.000000   2869130   2867418   2865585   2863643   2861596  
  6270.000000   2859458   2857231   2854931   2852578   2850208  
  6260.000000   2847852   2845533   2843243   2840952   2838609  
  6250.000000   2836175   2833629   2830996   2828327   2825695  
  6240.000000   2823156   2820748   2818465   2816282   2814159  
  6230.000000   2812055   2809940   2807787   2805574   2803276  
  6220.000000   2800873   2798354   2795729   2793032   2790315  
  6210.000000   2787634   2785037   2782549   2780167   2777877  
  6200.000000   2775652   2773472   2771318   2769178   2767038  
  6190.000000   2764881   2762694   2760472   2758225   2755978  
  6180.000000   2753761   2751596   2749488   2747416   2745349  
  6170.000000   2743252   2741110   2738931   2736743   2734582  
  6160.000000   2732471   2730413   2728386   2726354   2724291  
  6150.000000   2722187   2720061   2717952   2715901   2713940  
  6140.000000   2712079   2710301   2708576   2706867   2705143  
  6130.000000   2703384   2701585   2699748   2697889   2696023  
  6120.000000   2694177   2692374   2690642   2688995   2687445  
  6110.000000   2685984   2684602   2683276   2681996   2680744  
  6100.000000   2679521   2678321   2677150   2676004   2674894  
  6090.000000   2673826   2672822   2671896   2671073   2670357  
  6080.000000   2669749   2669227   2668770   2668346   2667938  
  6070.000000   2667531   2667131   2666740   2666374   2666037  
  6060.000000   2665747   2665506   2665332   2665225   2665194  
  6050.000000   2665226   2665315   2665442   2665605   2665803  
  6040.000000   2666063   2666412   2666887   2667508   2668286  
  6030.000000   2669203   2670236   2671345   2672502   2673671  
  6020.000000   2674831   2675958   2677039   2678060   2679028  
  6010.000000   2679958   2680881   2681825   2682819   2683862  
  6000.000000   2684943   2686026   2687083   2688095   2689072  
  5990.000000   2690041   2691050   2692139   2693338   2694650  
  5980.000000   2696068   2697569   2699142   2700774   2702470  
  5970.000000   2704225   2706046   2707920   2709851   2711834  
  5960.000000   2713890   2716031   2718282   2720641   2723104  
  5950.000000   2725637   2728212   2730795   2733382   2735977  
  5940.000000   2738610   2741298   2744057   2746878   2749742  
  5930.000000   2752620   2755494   2758355   2761210   2764068  
  5920.000000   2766937   2769814   2772684   2775528   2778322  
  5910.000000   2781047   2783686   2786222   2788643   2790946  
  5900.000000   2793139   2795255   2797345   2799471   2801686  
  5890.000000   2804023   2806475   2809005   2811555   2814072  
  5880.000000   2816518   2818883   2821178   2823419   2825613  
  5870.000000   2827748   2829807   2831769   2833638   2835433  
  5860.000000   2837204   2838995   2840848   2842777   2844786  
  5850.000000   2846865   2849017   2851252   2853600   2856083  
  5840.000000   2858711   2861465   2864311   2867199   2870092  
  5830.000000   2872970   2875836   2878707   2881596   2884504  
  5820.000000   2887409   2890278   2893072   2895772   2898358  
  5810.000000   2900837   2903199   2905446   2907553   2909515  
  5800.000000   2911311   2912961   2914472   2915885   2917207  
  5790.000000   2918453   2919592   2920603   2921433   2922057  
  5780.000000   2922438   2922568   2922429   2922029   2921371  
  5770.000000   2920491   2919430   2918262   2917055   2915882  
  5760.000000   2914783   2913783   2912873   2912044   2911283  
  5750.000000   2910591   2909980   2909461   2909035   2908689  
  5740.000000   2908405   2908161   2907957   2907804   2907732  
  5730.000000   2907759   2907892   2908102   2908346   2908569  
  5720.000000   2908737   2908840   2908907   2908980   2909107  
  5710.000000   2909315   2909610   2909974   2910385   2910823  
  5700.000000   2911285   2911776   2912302   2912861   2913439  
  5690.000000   2914016   2914574   2915110   2915629   2916151  
  5680.000000   2916682   2917226   2917756   2918240   2918634  
  5670.000000   2918908   2919035   2919009   2918823   2918484  
  5660.000000   2917991   2917358   2916601   2915759   2914868  
  5650.000000   2913973   2913097   2912254   2911436   2910633  
  5640.000000   2909833   2909043   2908272   2907534   2906832  
  5630.000000   2906152   2905465   2904740   2903953   2903102  
  5620.000000   2902207   2901303   2900421   2899585   2898799  
  5610.000000   2898058   2897345   2896657   2895989   2895349  
  5600.000000   2894730   2894123   2893497   2892820   2892059  
  5590.000000   2891198   2890234   2889183   2888060   2886884  
  5580.000000   2885660   2884394   2883082   2881728   2880335  
  5570.000000   2878909   2877449   2875955   2874419   2872844  
  5560.000000   2871235   2869616   2868011   2866446   2864930  
  5550.000000   2863461   2862020   2860586   2859144   2857693  
  5540.000000   2856243   2854811   2853405   2852024   2850657  
  5530.000000   2849286   2847902   2846503   2845105   2843724  
  5520.000000   2842375   2841067   2839791   2838537   2837290  
  5510.000000   2836038   2834771   2833484   2832167   2830815  
  5500.000000   2829423   2827997   2826552   2825116   2823708  
  5490.000000   2822340   2820993   2819640   2818238   2816760  
  5480.000000   2815192   2813549   2811856   2810142   2808414  
  5470.000000   2806663   2804858   2802969   2800975   2798876  
  5460.000000   2796686   2794427   2792112   2789746   2787326  
  5450.000000   2784856   2782355   2779858   2777411   2775051  
  5440.000000   2772794   2770632   2768542   2766500   2764501  
  5430.000000   2762552   2760676   2758875   2757147   2755451  
  5420.000000   2753760   2752045   2750334   2748673   2747155  
  5410.000000   2745845   2744792   2743973   2743346   2742833  
  5400.000000   2742398   2742011   2741705   2741503   2741456  
  5390.000000   2741564   2741838   2742247   2742803   2743503  
  5380.000000   2744399   2745508   2746870   2748454   2750244  
  5370.000000   2752161   2754189   2756281   2758482   2760799  
  5360.000000   2763316   2766041   2769049   2772328   2775949  
  5350.000000   2779903   2784273   2789053   2794318   2800030  
  5340.000000   2806238   2812881   2820015   2827592   2835686  
  5330.000000   2844246   2853337   2862883   2872942   2883450  
  5320.000000   2894513   2906123   2918444   2931487   2945406  
  5310.000000   2960160   2975838   2992339   3009720   3027885  
  5300.000000   3046924   3066787   3087611   3109382   3132248  
  5290.000000   3156178   3181255   3207362   3234469   3262376  
  5280.000000   3291015   3320241   3350092   3380567   3411809  
  5270.000000   3443851   3476730   3510303   3544367   3578643  
  5260.000000   3612889   3646966   3680840   3714587   3748255  
  5250.000000   3781880   3815314   3848387   3880774   3912299  
  5240.000000   3942750   3972190   4000628   4028294   4055239  
  5230.000000   4081629   4107366   4132450   4156650   4179921  
  5220.000000   4202074   4223184   4243211   4262362   4280667  
  5210.000000   4298329   4315297   4331636   4347157   4361842  
  5200.000000   4375501   4388202   4399885   4410728   4420728  
  5190.000000   4430036   4438577   4446407   4453394   4459588  
  5180.000000   4464911   4469479   4473272   4476417   4478867  
  5170.000000   4480700   4481843   4482370   4482249   4481598  
  5160.000000   4480419   4478820   4476766   4474307   4471369  
  5150.000000   4467990   4464124   4459843   4455140   4450095  
  5140.000000   4444698   4439008   4433013   4426777   4420310  
  5130.000000   4413690   4406925   4400059   4393064   4385943  
  5120.000000   4378657   4371228   4363659   4356009   4348304  
  5110.000000   4340588   4332854   4325108   4317324   4309511  
  5100.000000   4301674   4293853   4286066   4278341   4270664  
  5090.000000   4263020   4255373   4247709   4240016   4232308  
  5080.000000   4224590   4216871   4209130   4201347   4193487  
  5070.000000   4185539   4177500   4169398   4161255   4153102  
  5060.000000   4144938   4136760   4128540   4120269   4111933  
  5050.000000   4103548   4095129   4086699   4078261   4069815  
  5040.000000   4061342   4052829   4044264   4035652   4027004  
  5030.000000   4018338   4009669   4001006   3992365   3983757  
  5020.000000   3975210   3966750   3958416   3950228   3942211  
  5010.000000   3934354   3926661   3919104   3911695   3904424  
  5000.000000   3897331   3890420   3883746   3877309   3871156  
  4990.000000   3865273   3859705   3854437   3849513   3844911  
  4980.000000   3840671   3836758   3833204   3829975   3827117  
  4970.000000   3824611   3822523   3820837   3819610   3818803  
  4960.000000   3818449   3818489   3818950   3819781   3821024  
  4950.000000   3822641   3824675   3827077   3829878   3833018  
  4940.000000   3836529   3840367   3844581   3849143   3854105  
  4930.000000   3859426   3865131   3871162   3877532   3884192  
  4920.000000   3891175   3898455   3906079   3914026   3922325  
  4910.000000   3930937   3939870   3949079   3958568   3968299  
  4900.000000   3978274   3988456   3998831   4009353   4019991  
  4890.000000   4030699   4041446   4052197   4062924   4073600  
  4880.000000   4084200   4094706   4105094   4115356   4125467  
  4870.000000   4135422   4145183   4154737   4164041   4173087  
  4860.000000   4181850   4190351   4198586   4206595   4214377  
  4850.000000   4221964   4229339   4236526   4243506   4250313  
  4840.000000   4256941   4263432   4269785   4276031   4282151  
  4830.000000   4288160   4294026   4299754   4305311   4310700  
  4820.000000   4315892   4320896   4325694   4330306   4334732  
  4810.000000   4339007   4343135   4347149   4351043   4354832  
  4800.000000   4358499   4362058   4365500   4368850   4372113  
  4790.000000   4375315   4378454   4381542   4384560   4387510  
  4780.000000   4390370   4393150   4395835   4398439   4400949  
  4770.000000   4403372   4405684   4407885   4409950   4411882  
  4760.000000   4413657   4415286   4416748   4418054   4419187  
  4750.000000   4420162   4420966   4421615   4422093   4422411  
  4740.000000   4422543   4422494   4422243   4421805   4421172  
  4730.000000   4420374   4419409   4418301   4417039   4415634  
  4720.000000   4414069   4412359   4410506   4408541   4406481  
  4710.000000   4404366   4402208   4400031   4397834   4395625  
  4700.000000   4393395   4391149   4388874   4386574   4384238  
  4690.000000   4381871   4379470   4377045   4374603   4372152  
  4680.000000   4369691   4367205   4364674   4362068   4359366  
  4670.000000   4356557   4353660   4350705   4347745   4344828  
  4660.000000   4342008   4339310   4336762   4334368   4332140  
  4650.000000   4330080   4328203   4326513   4325022   4323724  
  4640.000000   4322615   4321670   4320872   4320187   4319590  
  4630.000000   4319044   4318526   4318003   4317459   4316878  
  4620.000000   4316259   4315599   4314901   4314156   4313356  
  4610.000000   4312481   4311517   4310461   4309327   4308149  
  4600.000000   4306968   4305829   4304759   4303774   4302863  
  4590.000000   4302012   4301197   4300409   4299640   4298890  
  4580.000000   4298153   4297418   4296656   4295843   4294950  
  4570.000000   4293967   4292898   4291764   4290586   4289388  
  4560.000000   4288177   4286952   4285699   4284406   4283058  
  4550.000000   4281651   4280176   4278625   4276986   4275244  
  4540.000000   4273392   4271436   4269404   4267334   4265283  
  4530.000000   4263291   4261406   4259633   4257990   4256455  
  4520.000000   4255051   4253764   4252651   4251721   4251058  
  4510.000000   4250675   4250663   4251028   4251862   4253166  
  4500.000000   4255038   4257474   4260570   4264312   4268791  
  4490.000000   4273987   4279982   4286743   4294325   4302656  
  4480.000000   4311744   4321473   4331819   4342662   4353991  
  4470.000000   4365720   4377869   4390376   4403261   4416455  
  4460.000000   4429948   4443658   4457553   4471557   4485636  
  4450.000000   4499731   4513814   4527845   4541805   4555683  
  4440.000000   4569472   4583187   4596826   4610414   4623931  
  4430.000000   4637401   4650781   4664088   4677259   4690306  
  4420.000000   4703136   4715739   4727981   4739822   4751099  
  4410.000000   4761762   4771649   4780729   4788873   4796086  
  4400.000000   4802287   4807527   4811774   4815124   4817589  
  4390.000000   4819293   4820279   4820679   4820553   4820032  
  4380.000000   4819185   4818137   4816966   4815793   4814702  
  4370.000000   4813805   4813188   4812940   4813134   4813818  
  4360.000000   4815033   4816776   4819036   4821764   4824912  
  4350.000000   4828409   4832205   4836256   4840543   4845060  
  4340.000000   4849807   4854767   4859892   4865078   4870166  
  4330.000000   4874948   4879195   4882697   4885299   4886946  
  4320.000000   4887691   4887705   4887222   4886529   4885865  
  4310.000000   4885441   4885343   4885610   4886166   4886936  
  4300.000000   4887789   4888643   4889406   4890043   4890518  
  4290.000000   4890829   4890975   4890975   4890845   4890619  
  4280.000000   4890326   4890009   4889696   4889434   4889235  
  4270.000000   4889129   4889100   4889133   4889154   4889080  
  4260.000000   4888783   4888142   4887036   4885399   4883213  
  4250.000000   4880543   4877503   4874263   4870988   4867841  
  4240.000000   4864924   4862297   4859949   4857838   4855885  
  4230.000000   4854012   4852142   4850219   4848211   4846096  
  4220.000000   4843886   4841590   4839249   4836894   4834588  
  4210.000000   4832369   4830301   4828412   4826747   4825308  
  4200.000000   4824109   4823123   4822348   4821741   4821306  
  4190.000000   4821009   4820881   4820909   4821152   4821606  
  4180.000000   4822330   4823305   4824573   4826098   4827927  
  4170.000000   4830043   4832532   4835415   4838806   4842724  
  4160.000000   4847259   4852378   4858115   4864391   4871216  
  4150.000000   4878509   4886295   4894513   4903206   4912323  
  4140.000000   4921921   4931962   4942522   4953580   4965219  
  4130.000000   4977412   4990206   5003533   5017390   5031682  
  4120.000000   5046400   5061472   5076932   5092761   5109023  
  4110.000000   5125715   5142885   5160495   5178544   5196960  
  4100.000000   5215712   5234728   5253984   5273440   5293095  
  4090.000000   5312930   5332939   5353099   5373375   5393739  
  4080.000000   5414149   5434601   5455072   5475583   5496104  
  4070.000000   5516631   5537076   5557391   5577445   5597198  
  4060.000000   5616544   5635496   5653986   5672058   5689632  
  4050.000000   5706746   5723300   5739339   5754766   5769644  
  4040.000000   5783866   5797478   5810340   5822485   5833768  
  4030.000000   5844249   5853809   5862516   5870254   5877047  
  4020.000000   5882722   5887309   5890741   5893112   5894372  
  4010.000000   5894726   5894299   5893156   5891037   5888050  
  4000.000000   5884627  
##END= 
