##TITLE= Sample 033 By ssteindl date Donnerstag, November 22 2018
##JCAMP-DX= 4.24
##DATA TYPE= INFRARED SPECTRUM
##ORIGIN= Exported PE Spectrum Data File
##OWNER= Sandra Steindl
##DATE= 18/11/22
##TIME= 11:22:59.00
##SPECTROMETER/DATA SYSTEM= PERKIN-ELMER Frontier FT-IR/NIR IR
##INSTRUMENT PARAMETERS=
  APODIZATION=stark
  DETECTOR=INGAAS
##RESOLUTION= 16.000000
##DELTAX= -2.000000
##XUNITS= 1/CM
##YUNITS= A
##XFACTOR= 1.00
##YFACTOR= 0.00000011920928955078
##FIRSTX= 10000.00
##LASTX= 4000.00
##NPOINTS= 3001
##FIRSTY= 0.306896
##MAXY= 0.617892
##MINY= 0.225595
##XYDATA= (X++(Y..Y))
 10000.000000   2574432   2575101   2575321   2574362   2571865  
  9990.000000   2567909   2562842   2557352   2552439   2549124  
  9980.000000   2547843   2548323   2549683   2550868   2551069  
  9970.000000   2550038   2548168   2546146   2544592   2543625  
  9960.000000   2542848   2541482   2538853   2534721   2529549  
  9950.000000   2524321   2520261   2518352   2519037   2522134  
  9940.000000   2526907   2532404   2537631   2541840   2544575  
  9930.000000   2545732   2545579   2544666   2543752   2543529  
  9920.000000   2544358   2546018   2547666   2548101   2546206  
  9910.000000   2541518   2534510   2526616   2519734   2515572  
  9900.000000   2514929   2517337   2521213   2524417   2525122  
  9890.000000   2522438   2516732   2509384   2502191   2496755  
  9880.000000   2493974   2494011   2496428   2500563   2505739  
  9870.000000   2511379   2516932   2521803   2525313   2526845  
  9860.000000   2526010   2522827   2517793   2511690   2505414  
  9850.000000   2499581   2494488   2490056   2486044   2482248  
  9840.000000   2478571   2475069   2471820   2468914   2466419  
  9830.000000   2464485   2463346   2463334   2464691   2467403  
  9820.000000   2471079   2474968   2478287   2480439   2481376  
  9810.000000   2481440   2481280   2481289   2481494   2481322  
  9800.000000   2480039   2477054   2472450   2467093   2462399  
  9790.000000   2459912   2460593   2464667   2471443   2479887  
  9780.000000   2488886   2497772   2506210   2514083   2521086  
  9770.000000   2526541   2529513   2529092   2524943   2517448  
  9760.000000   2507766   2497329   2487373   2478521   2470705  
  9750.000000   2463546   2456725   2450484   2445519   2442809  
  9740.000000   2442944   2445822   2450458   2455375   2459160  
  9730.000000   2461020   2461091   2460194   2459448   2459598  
  9720.000000   2460782   2462441   2463752   2464015   2463015  
  9710.000000   2461038   2458628   2456261   2454056   2451843  
  9700.000000   2449309   2446364   2443238   2440452   2438519  
  9690.000000   2437610   2437422   2437230   2436237   2433923  
  9680.000000   2430288   2425844   2421380   2417644   2415096  
  9670.000000   2413833   2413712   2414519   2416131   2418471  
  9660.000000   2421405   2424546   2427254   2428749   2428434  
  9650.000000   2426176   2422465   2418283   2414770   2412800  
  9640.000000   2412680   2414094   2416284   2418405   2419809  
  9630.000000   2420236   2419730   2418514   2416768   2414599  
  9620.000000   2412032   2409169   2406238   2403600   2401636  
  9610.000000   2400549   2400290   2400524   2400772   2400594  
  9600.000000   2399667   2397893   2395271   2391925   2388030  
  9590.000000   2383920   2380102   2377232   2375957   2376619  
  9580.000000   2379030   2382325   2385163   2386054   2383938  
  9570.000000   2378510   2370484   2361316   2352850   2346655  
  9560.000000   2343634   2343782   2346352   2350223   2354330  
  9550.000000   2358007   2361070   2363748   2366439   2369517  
  9540.000000   2373141   2377224   2381445   2385325   2388359  
  9530.000000   2390100   2390334   2389122   2386857   2384168  
  9520.000000   2381684   2379826   2378548   2377378   2375578  
  9510.000000   2372518   2367989   2362414   2356714   2352062  
  9500.000000   2349350   2348945   2350437   2352911   2355263  
  9490.000000   2356698   2357013   2356553   2355992   2355826  
  9480.000000   2356147   2356471   2356028   2354020   2350089  
  9470.000000   2344434   2337905   2331679   2326941   2324520  
  9460.000000   2324643   2326990   2330762   2335047   2338987  
  9450.000000   2342051   2344073   2345244   2346008   2346839  
  9440.000000   2348103   2349807   2351642   2352951   2353042  
  9430.000000   2351376   2347824   2342781   2337041   2331701  
  9420.000000   2327779   2326073   2326855   2329923   2334567  
  9410.000000   2339817   2344564   2347822   2348861   2347362  
  9400.000000   2343509   2337944   2331699   2325867   2321354  
  9390.000000   2318531   2317166   2316524   2315689   2313959  
  9380.000000   2311112   2307539   2304048   2301576   2300748  
  9370.000000   2301626   2303664   2305947   2307604   2308098  
  9360.000000   2307420   2305969   2304390   2303246   2302852  
  9350.000000   2303167   2303890   2304599   2304921   2304611  
  9340.000000   2303578   2301868   2299654   2297252   2295058  
  9330.000000   2293514   2292918   2293350   2294549   2295981  
  9320.000000   2297008   2297107   2296114   2294251   2292044  
  9310.000000   2290012   2288444   2287239   2286013   2284297  
  9300.000000   2281833   2278777   2275703   2273427   2272624  
  9290.000000   2273578   2276012   2279253   2282475   2285011  
  9280.000000   2286535   2287046   2286749   2285848   2284441  
  9270.000000   2282523   2280095   2277286   2274398   2271833  
  9260.000000   2269951   2268886   2268487   2268370   2268082  
  9250.000000   2267284   2265845   2263879   2261646   2259428  
  9240.000000   2257455   2255874   2254844   2254546   2255183  
  9230.000000   2256853   2259428   2262520   2265518   2267789  
  9220.000000   2268861   2268670   2267586   2266299   2265518  
  9210.000000   2265656   2266668   2268066   2269115   2269089  
  9200.000000   2267502   2264290   2259777   2254580   2249349  
  9190.000000   2244680   2240966   2238426   2237041   2236614  
  9180.000000   2236787   2237108   2237114   2236407   2234787  
  9170.000000   2232281   2229175   2225841   2222647   2219775  
  9160.000000   2217290   2215137   2213311   2211889   2211062  
  9150.000000   2211056   2211987   2213786   2216133   2218601  
  9140.000000   2220762   2222354   2223320   2223785   2223974  
  9130.000000   2224020   2223944   2223595   2222825   2221501  
  9120.000000   2219618   2217237   2214468   2211413   2208155  
  9110.000000   2204850   2201749   2199312   2198039   2198392  
  9100.000000   2200501   2204138   2208679   2213269   2217051  
  9090.000000   2219397   2220107   2219296   2217309   2214466  
  9080.000000   2211039   2207168   2202989   2198723   2194756  
  9070.000000   2191596   2189688   2189284   2190294   2192365  
  9060.000000   2194946   2197492   2199567   2200942   2201570  
  9050.000000   2201482   2200756   2199475   2197842   2196141  
  9040.000000   2194752   2194014   2194101   2194915   2196020  
  9030.000000   2196846   2196842   2195809   2193928   2191775  
  9020.000000   2190034   2189255   2189594   2190716   2191911  
  9010.000000   2192347   2191385   2188759   2184649   2179587  
  9000.000000   2174293   2169453   2165558   2162859   2161404  
  8990.000000   2161050   2161517   2162413   2163328   2163866  
  8980.000000   2163767   2162956   2161627   2160147   2158975  
  8970.000000   2158458   2158785   2159882   2161519   2163389  
  8960.000000   2165273   2167091   2168893   2170769   2172754  
  8950.000000   2174760   2176588   2177997   2178805   2178970  
  8940.000000   2178600   2177935   2177222   2176705   2176509  
  8930.000000   2176703   2177242   2178058   2179024   2179971  
  8920.000000   2180664   2180833   2180231   2178675   2176113  
  8910.000000   2172657   2168589   2164309   2160255   2156856  
  8900.000000   2154479   2153373   2153600   2155029   2157311  
  8890.000000   2159946   2162335   2163947   2164461   2163867  
  8880.000000   2162481   2160828   2159490   2158886   2159147  
  8870.000000   2160075   2161241   2162139   2162383   2161813  
  8860.000000   2160530   2158805   2156935   2155135   2153447  
  8850.000000   2151787   2150004   2148014   2145877   2143816  
  8840.000000   2142173   2141285   2141388   2142484   2144314  
  8830.000000   2146380   2148084   2148872   2148440   2146821  
  8820.000000   2144456   2142056   2140432   2140220   2141682  
  8810.000000   2144600   2148337   2152038   2154904   2156458  
  8800.000000   2156674   2155941   2154878   2154083   2153915  
  8790.000000   2154385   2155203   2155928   2156173   2155770  
  8780.000000   2154806   2153602   2152520   2151891   2151835  
  8770.000000   2152325   2153171   2154149   2155046   2155696  
  8760.000000   2155987   2155823   2155122   2153813   2151862  
  8750.000000   2149322   2146337   2143163   2140106   2137485  
  8740.000000   2135559   2134493   2134323   2134937   2136072  
  8730.000000   2137348   2138322   2138591   2137884   2136158  
  8720.000000   2133639   2130793   2128221   2126478   2125925  
  8710.000000   2126579   2128140   2130021   2131583   2132246  
  8700.000000   2131713   2129967   2127298   2124165   2121099  
  8690.000000   2118568   2116912   2116336   2116924   2118663  
  8680.000000   2121433   2125030   2129146   2133411   2137410  
  8670.000000   2140751   2143152   2144464   2144744   2144144  
  8660.000000   2142927   2141331   2139597   2137896   2136355  
  8650.000000   2135084   2134162   2133695   2133725   2134288  
  8640.000000   2135325   2136753   2138427   2140203   2141942  
  8630.000000   2143517   2144831   2145781   2146294   2146311  
  8620.000000   2145851   2145010   2143967   2142961   2142212  
  8610.000000   2141894   2142047   2142607   2143410   2144276  
  8600.000000   2145058   2145666   2146057   2146194   2146013  
  8590.000000   2145414   2144298   2142647   2140596   2138452  
  8580.000000   2136636   2135595   2135647   2136875   2139056  
  8570.000000   2141738   2144363   2146426   2147610   2147828  
  8560.000000   2147223   2146046   2144591   2143091   2141744  
  8550.000000   2140684   2140029   2139868   2140245   2141138  
  8540.000000   2142404   2143839   2145197   2146317   2147146  
  8530.000000   2147786   2148412   2149188   2150165   2151236  
  8520.000000   2152178   2152732   2152723   2152125   2151082  
  8510.000000   2149835   2148631   2147619   2146819   2146148  
  8500.000000   2145495   2144810   2144129   2143587   2143339  
  8490.000000   2143507   2144110   2145084   2146312   2147681  
  8480.000000   2149112   2150559   2151973   2153259   2154270  
  8470.000000   2154828   2154811   2154210   2153177   2151973  
  8460.000000   2150912   2150209   2149924   2149922   2149951  
  8450.000000   2149743   2149135   2148153   2147005   2146025  
  8440.000000   2145534   2145767   2146787   2148510   2150721  
  8430.000000   2153166   2155605   2157854   2159790   2161335  
  8420.000000   2162462   2163165   2163480   2163453   2163143  
  8410.000000   2162595   2161842   2160907   2159809   2158617  
  8400.000000   2157435   2156456   2155867   2155843   2156421  
  8390.000000   2157511   2158855   2160105   2160881   2160894  
  8380.000000   2160018   2158320   2156036   2153506   2151100  
  8370.000000   2149122   2147746   2146992   2146731   2146749  
  8360.000000   2146797   2146670   2146256   2145563   2144709  
  8350.000000   2143857   2143163   2142692   2142411   2142172  
  8340.000000   2141800   2141143   2140173   2138994   2137824  
  8330.000000   2136935   2136546   2136774   2137557   2138708  
  8320.000000   2139953   2141030   2141734   2141963   2141706  
  8310.000000   2141017   2139981   2138682   2137190   2135566  
  8300.000000   2133870   2132156   2130470   2128838   2127260  
  8290.000000   2125722   2124201   2122689   2121190   2119734  
  8280.000000   2118362   2117122   2116050   2115169   2114494  
  8270.000000   2114026   2113758   2113652   2113640   2113615  
  8260.000000   2113462   2113080   2112427   2111529   2110488  
  8250.000000   2109438   2108502   2107735   2107111   2106537  
  8240.000000   2105899   2105122   2104193   2103179   2102177  
  8230.000000   2101278   2100505   2099813   2099103   2098274  
  8220.000000   2097274   2096125   2094910   2093734   2092666  
  8210.000000   2091708   2090786   2089798   2088662   2087361  
  8200.000000   2085960   2084577   2083332   2082300   2081461  
  8190.000000   2080728   2079963   2079056   2077956   2076707  
  8180.000000   2075414   2074204   2073171   2072329   2071610  
  8170.000000   2070865   2069917   2068601   2066828   2064604  
  8160.000000   2062055   2059392   2056870   2054735   2053164  
  8150.000000   2052224   2051856   2051894   2052118   2052311  
  8140.000000   2052324   2052094   2051644   2051038   2050356  
  8130.000000   2049638   2048897   2048109   2047261   2046361  
  8120.000000   2045456   2044621   2043915   2043376   2042974  
  8110.000000   2042646   2042292   2041820   2041162   2040285  
  8100.000000   2039178   2037845   2036286   2034503   2032512  
  8090.000000   2030363   2028146   2025984   2024010   2022323  
  8080.000000   2020965   2019888   2018981   2018081   2017041  
  8070.000000   2015758   2014227   2012530   2010844   2009381  
  8060.000000   2008353   2007906   2008081   2008800   2009879  
  8050.000000   2011078   2012162   2012962   2013409   2013529  
  8040.000000   2013414   2013158   2012827   2012414   2011874  
  8030.000000   2011143   2010187   2009036   2007770   2006517  
  8020.000000   2005380   2004440   2003707   2003172   2002787  
  8010.000000   2002517   2002314   2002124   2001863   2001419  
  8000.000000   2000679   1999565   1998078   1996309   1994429  
  7990.000000   1992627   1991052   1989755   1988688   1987736  
  7980.000000   1986781   1985775   1984759   1983863   1983229  
  7970.000000   1982960   1983056   1983414   1983869   1984241  
  7960.000000   1984407   1984302   1983938   1983343   1982559  
  7950.000000   1981603   1980498   1979285   1978046   1976909  
  7940.000000   1976011   1975469   1975332   1975580   1976117  
  7930.000000   1976815   1977532   1978145   1978545   1978642  
  7920.000000   1978364   1977668   1976571   1975150   1973561  
  7910.000000   1971983   1970589   1969476   1968645   1968015  
  7900.000000   1967462   1966890   1966263   1965627   1965071  
  7890.000000   1964684   1964507   1964522   1964666   1964873  
  7880.000000   1965114   1965401   1965777   1966259   1966814  
  7870.000000   1967334   1967674   1967697   1967333   1966605  
  7860.000000   1965622   1964536   1963487   1962565   1961803  
  7850.000000   1961202   1960748   1960447   1960302   1960313  
  7840.000000   1960434   1960584   1960664   1960600   1960377  
  7830.000000   1960049   1959708   1959435   1959251   1959093  
  7820.000000   1958846   1958398   1957710   1956856   1956003  
  7810.000000   1955352   1955044   1955104   1955407   1955738  
  7800.000000   1955865   1955630   1955004   1954082   1953037  
  7790.000000   1952038   1951185   1950493   1949893   1949302  
  7780.000000   1948655   1947950   1947233   1946581   1946048  
  7770.000000   1945648   1945332   1945014   1944589   1943967  
  7760.000000   1943097   1941982   1940677   1939281   1937921  
  7750.000000   1936719   1935763   1935079   1934620   1934275  
  7740.000000   1933906   1933388   1932659   1931738   1930715  
  7730.000000   1929718   1928860   1928203   1927742   1927416  
  7720.000000   1927144   1926860   1926539   1926186   1925824  
  7710.000000   1925466   1925104   1924708   1924247   1923701  
  7700.000000   1923080   1922413   1921744   1921107   1920524  
  7690.000000   1920001   1919543   1919166   1918889   1918739  
  7680.000000   1918717   1918799   1918920   1919006   1918980  
  7670.000000   1918800   1918456   1917967   1917365   1916674  
  7660.000000   1915903   1915050   1914120   1913138   1912148  
  7650.000000   1911211   1910370   1909647   1909020   1908451  
  7640.000000   1907891   1907316   1906731   1906166   1905660  
  7630.000000   1905234   1904880   1904562   1904232   1903850  
  7620.000000   1903407   1902912   1902405   1901916   1901471  
  7610.000000   1901073   1900715   1900380   1900055   1899735  
  7600.000000   1899415   1899099   1898795   1898519   1898300  
  7590.000000   1898173   1898163   1898267   1898439   1898585  
  7580.000000   1898593   1898351   1897808   1896975   1895949  
  7570.000000   1894872   1893894   1893134   1892646   1892428  
  7560.000000   1892442   1892650   1893031   1893591   1894340  
  7550.000000   1895266   1896315   1897379   1898327   1899022  
  7540.000000   1899372   1899335   1898948   1898294   1897500  
  7530.000000   1896707   1896044   1895614   1895479   1895653  
  7520.000000   1896099   1896729   1897425   1898052   1898501  
  7510.000000   1898708   1898677   1898471   1898198   1897981  
  7500.000000   1897939   1898149   1898645   1899408   1900378  
  7490.000000   1901469   1902585   1903633   1904544   1905279  
  7480.000000   1905840   1906254   1906571   1906830   1907071  
  7470.000000   1907300   1907522   1907727   1907921   1908118  
  7460.000000   1908344   1908631   1909003   1909481   1910077  
  7450.000000   1910810   1911702   1912775   1914038   1915463  
  7440.000000   1916978   1918474   1919838   1920980   1921875  
  7430.000000   1922561   1923146   1923751   1924478   1925367  
  7420.000000   1926394   1927488   1928570   1929587   1930534  
  7410.000000   1931447   1932377   1933366   1934416   1935505  
  7400.000000   1936592   1937648   1938671   1939687   1940730  
  7390.000000   1941819   1942943   1944056   1945094   1946005  
  7380.000000   1946768   1947408   1947989   1948593   1949292  
  7370.000000   1950133   1951122   1952235   1953419   1954607  
  7360.000000   1955726   1956712   1957519   1958132   1958577  
  7350.000000   1958922   1959269   1959720   1960359   1961213  
  7340.000000   1962252   1963398   1964555   1965642   1966622  
  7330.000000   1967503   1968330   1969158   1970038   1970988  
  7320.000000   1972001   1973046   1974089   1975096   1976053  
  7310.000000   1976957   1977818   1978658   1979497   1980358  
  7300.000000   1981251   1982172   1983105   1984018   1984876  
  7290.000000   1985654   1986341   1986950   1987508   1988045  
  7280.000000   1988584   1989131   1989683   1990235   1990791  
  7270.000000   1991363   1991972   1992626   1993309   1993977  
  7260.000000   1994574   1995050   1995401   1995673   1995972  
  7250.000000   1996416   1997119   1998122   1999403   2000859  
  7240.000000   2002368   2003816   2005161   2006413   2007652  
  7230.000000   2008948   2010363   2011891   2013502   2015130  
  7220.000000   2016753   2018369   2020044   2021848   2023864  
  7210.000000   2026120   2028602   2031237   2033939   2036620  
  7200.000000   2039239   2041794   2044330   2046902   2049568  
  7190.000000   2052347   2055239   2058202   2061192   2064156  
  7180.000000   2067066   2069909   2072700   2075460   2078229  
  7170.000000   2081034   2083909   2086867   2089925   2093071  
  7160.000000   2096295   2099559   2102835   2106088   2109317  
  7150.000000   2112541   2115831   2119268   2122953   2126945  
  7140.000000   2131258   2135821   2140523   2145215   2149791  
  7130.000000   2154191   2158451   2162652   2166933   2171394  
  7120.000000   2176111   2181067   2186208   2191427   2196637  
  7110.000000   2201770   2206815   2211786   2216729   2221688  
  7100.000000   2226720   2231864   2237177   2242685   2248412  
  7090.000000   2254326   2260363   2266416   2272372   2278138  
  7080.000000   2283684   2289045   2294323   2299639   2305106  
  7070.000000   2310782   2316661   2322676   2328727   2334706  
  7060.000000   2340526   2346128   2351482   2356588   2361480  
  7050.000000   2366223   2370916   2375678   2380622   2385827  
  7040.000000   2391306   2397005   2402814   2408607   2414269  
  7030.000000   2419743   2425030   2430181   2435259   2440318  
  7020.000000   2445374   2450418   2455415   2460342   2465187  
  7010.000000   2469967   2474695   2479393   2484053   2488662  
  7000.000000   2493179   2497576   2501810   2505864   2509713  
  6990.000000   2513358   2516804   2520094   2523280   2526447  
  6980.000000   2529663   2532988   2536416   2539905   2543362  
  6970.000000   2546697   2549828   2552734   2555432   2557987  
  6960.000000   2560459   2562903   2565329   2567731   2570078  
  6950.000000   2572362   2574576   2576751   2578909   2581084  
  6940.000000   2583278   2585487   2587676   2589809   2591840  
  6930.000000   2593728   2595431   2596932   2598227   2599357  
  6920.000000   2600382   2601402   2602505   2603762   2605185  
  6910.000000   2606733   2608309   2609811   2611138   2612243  
  6900.000000   2613125   2613839   2614460   2615067   2615716  
  6890.000000   2616433   2617211   2618023   2618823   2619573  
  6880.000000   2620245   2620840   2621385   2621938   2622569  
  6870.000000   2623346   2624298   2625409   2626608   2627795  
  6860.000000   2628870   2629770   2630489   2631077   2631609  
  6850.000000   2632161   2632765   2633416   2634070   2634688  
  6840.000000   2635253   2635791   2636347   2636969   2637663  
  6830.000000   2638391   2639066   2639599   2639918   2640009  
  6820.000000   2639910   2639693   2639433   2639184   2638960  
  6810.000000   2638757   2638560   2638377   2638225   2638137  
  6800.000000   2638132   2638212   2638350   2638512   2638660  
  6790.000000   2638780   2638864   2638912   2638907   2638814  
  6780.000000   2638584   2638177   2637592   2636869   2636091  
  6770.000000   2635352   2634717   2634208   2633788   2633397  
  6760.000000   2632974   2632501   2632004   2631549   2631207  
  6750.000000   2631019   2630975   2631018   2631066   2631042  
  6740.000000   2630904   2630648   2630307   2629924   2629540  
  6730.000000   2629180   2628856   2628569   2628323   2628122  
  6720.000000   2627964   2627844   2627737   2627617   2627451  
  6710.000000   2627222   2626926   2626574   2626187   2625783  
  6700.000000   2625373   2624963   2624549   2624130   2623695  
  6690.000000   2623240   2622744   2622191   2621559   2620843  
  6680.000000   2620053   2619224   2618396   2617615   2616891  
  6670.000000   2616214   2615536   2614799   2613950   2612964  
  6660.000000   2611845   2610628   2609357   2608075   2606805  
  6650.000000   2605555   2604314   2603076   2601829   2600579  
  6640.000000   2599330   2598097   2596888   2595717   2594586  
  6630.000000   2593496   2592427   2591350   2590218   2588982  
  6620.000000   2587600   2586056   2584367   2582584   2580771  
  6610.000000   2578996   2577299   2575694   2574159   2572665  
  6600.000000   2571175   2569673   2568154   2566621   2565070  
  6590.000000   2563490   2561853   2560136   2558325   2556432  
  6580.000000   2554493   2552565   2550707   2548968   2547376  
  6570.000000   2545932   2544611   2543366   2542137   2540863  
  6560.000000   2539486   2537973   2536322   2534566   2532769  
  6550.000000   2531009   2529354   2527835   2526440   2525112  
  6540.000000   2523776   2522363   2520834   2519197   2517495  
  6530.000000   2515795   2514159   2512634   2511238   2509971  
  6520.000000   2508815   2507745   2506726   2505717   2504673  
  6510.000000   2503547   2502312   2500964   2499533   2498072  
  6500.000000   2496645   2495294   2494033   2492837   2491662  
  6490.000000   2490466   2489231   2487972   2486730   2485554  
  6480.000000   2484472   2483485   2482563   2481664   2480748  
  6470.000000   2479794   2478800   2477772   2476712   2475609  
  6460.000000   2474444   2473202   2471883   2470511   2469133  
  6450.000000   2467792   2466519   2465316   2464157   2463003  
  6440.000000   2461828   2460626   2459423   2458262   2457195  
  6430.000000   2456253   2455452   2454776   2454200   2453686  
  6420.000000   2453207   2452732   2452246   2451734   2451194  
  6410.000000   2450631   2450068   2449526   2449028   2448578  
  6400.000000   2448166   2447760   2447334   2446869   2446375  
  6390.000000   2445881   2445423   2445025   2444681   2444357  
  6380.000000   2444004   2443580   2443077   2442528   2441994  
  6370.000000   2441539   2441197   2440954   2440748   2440496  
  6360.000000   2440125   2439605   2438959   2438252   2437559  
  6350.000000   2436938   2436400   2435923   2435449   2434930  
  6340.000000   2434328   2433647   2432909   2432155   2431415  
  6330.000000   2430710   2430032   2429364   2428674   2427931  
  6320.000000   2427106   2426182   2425151   2424023   2422823  
  6310.000000   2421594   2420378   2419216   2418125   2417102  
  6300.000000   2416112   2415115   2414064   2412934   2411718  
  6290.000000   2410436   2409118   2407801   2406514   2405273  
  6280.000000   2404081   2402929   2401800   2400677   2399543  
  6270.000000   2398386   2397198   2395981   2394738   2393473  
  6260.000000   2392182   2390858   2389485   2388053   2386559  
  6250.000000   2385018   2383460   2381923   2380434   2379006  
  6240.000000   2377622   2376250   2374850   2373398   2371892  
  6230.000000   2370360   2368841   2367377   2365990   2364675  
  6220.000000   2363408   2362146   2360852   2359497   2358070  
  6210.000000   2356574   2355025   2353446   2351871   2350339  
  6200.000000   2348897   2347584   2346422   2345404   2344490  
  6190.000000   2343611   2342694   2341678   2340536   2339275  
  6180.000000   2337936   2336566   2335210   2333891   2332619  
  6170.000000   2331390   2330206   2329073   2328010   2327028  
  6160.000000   2326129   2325297   2324503   2323714   2322908  
  6150.000000   2322074   2321221   2320359   2319503   2318654  
  6140.000000   2317810   2316966   2316127   2315302   2314506  
  6130.000000   2313748   2313026   2312321   2311609   2310867  
  6120.000000   2310096   2309313   2308557   2307866   2307274  
  6110.000000   2306786   2306393   2306066   2305781   2305518  
  6100.000000   2305275   2305051   2304858   2304693   2304560  
  6090.000000   2304456   2304397   2304397   2304485   2304678  
  6080.000000   2304987   2305390   2305860   2306352   2306836  
  6070.000000   2307289   2307716   2308127   2308547   2308986  
  6060.000000   2309463   2309978   2310548   2311183   2311906  
  6050.000000   2312730   2313669   2314712   2315852   2317062  
  6040.000000   2318331   2319646   2321015   2322436   2323919  
  6030.000000   2325451   2327030   2328639   2330287   2331978  
  6020.000000   2333742   2335592   2337543   2339576   2341665  
  6010.000000   2343760   2345827   2347838   2349802   2351738  
  6000.000000   2353695   2355710   2357826   2360058   2362415  
  5990.000000   2364883   2367443   2370062   2372715   2375369  
  5980.000000   2378015   2380642   2383267   2385906   2388589  
  5970.000000   2391327   2394132   2396990   2399893   2402821  
  5960.000000   2405776   2408759   2411789   2414870   2418012  
  5950.000000   2421200   2424426   2427673   2430947   2434263  
  5940.000000   2437651   2441137   2444737   2448446   2452239  
  5930.000000   2456085   2459945   2463795   2467608   2471364  
  5920.000000   2475028   2478559   2481902   2485013   2487862  
  5910.000000   2490453   2492816   2495007   2497086   2499119  
  5900.000000   2501152   2503236   2505395   2507667   2510060  
  5890.000000   2512583   2515206   2517892   2520578   2523212  
  5880.000000   2525744   2528152   2530427   2532570   2534578  
  5870.000000   2536440   2538142   2539678   2541071   2542369  
  5860.000000   2543649   2544994   2546468   2548103   2549896  
  5850.000000   2551813   2553817   2555880   2557997   2560180  
  5840.000000   2562449   2564812   2567267   2569786   2572345  
  5830.000000   2574912   2577474   2580020   2582551   2585059  
  5820.000000   2587543   2589996   2592427   2594854   2597310  
  5810.000000   2599828   2602422   2605091   2607792   2610487  
  5800.000000   2613114   2615663   2618120   2620533   2622922  
  5790.000000   2625330   2627732   2630097   2632316   2634286  
  5780.000000   2635855   2636910   2637329   2637061   2636083  
  5770.000000   2634462   2632301   2629779   2627070   2624365  
  5760.000000   2621781   2619409   2617247   2615281   2613454  
  5750.000000   2611743   2610123   2608604   2607190   2605885  
  5740.000000   2604673   2603521   2602399   2601277   2600153  
  5730.000000   2599030   2597936   2596886   2595896   2594962  
  5720.000000   2594080   2593234   2592417   2591618   2590832  
  5710.000000   2590049   2589263   2588469   2587677   2586902  
  5700.000000   2586171   2585509   2584928   2584427   2583979  
  5690.000000   2583558   2583125   2582670   2582185   2581689  
  5680.000000   2581192   2580711   2580232   2579732   2579163  
  5670.000000   2578472   2577597   2576490   2575105   2573425  
  5660.000000   2571451   2569223   2566802   2564281   2561748  
  5650.000000   2559291   2556960   2554784   2552752   2550844  
  5640.000000   2549029   2547288   2545611   2543994   2542436  
  5630.000000   2540934   2539483   2538075   2536717   2535410  
  5620.000000   2534170   2532997   2531889   2530825   2529783  
  5610.000000   2528739   2527690   2526642   2525621   2524655  
  5600.000000   2523766   2522959   2522228   2521553   2520919  
  5590.000000   2520312   2519728   2519158   2518592   2518010  
  5580.000000   2517387   2516705   2515959   2515159   2514328  
  5570.000000   2513492   2512663   2511839   2511001   2510126  
  5560.000000   2509194   2508206   2507173   2506120   2505065  
  5550.000000   2504021   2502985   2501949   2500900   2499841  
  5540.000000   2498776   2497724   2496695   2495700   2494735  
  5530.000000   2493798   2492882   2491986   2491109   2490247  
  5520.000000   2489386   2488505   2487579   2486590   2485533  
  5510.000000   2484422   2483283   2482146   2481030   2479947  
  5500.000000   2478887   2477844   2476808   2475780   2474762  
  5490.000000   2473758   2472751   2471717   2470617   2469418  
  5480.000000   2468101   2466672   2465157   2463599   2462033  
  5470.000000   2460485   2458960   2457452   2455944   2454425  
  5460.000000   2452884   2451315   2449709   2448058   2446359  
  5450.000000   2444617   2442855   2441106   2439410   2437791  
  5440.000000   2436260   2434797   2433377   2431971   2430571  
  5430.000000   2429182   2427829   2426526   2425285   2424090  
  5420.000000   2422933   2421798   2420706   2419681   2418774  
  5410.000000   2418012   2417410   2416934   2416548   2416202  
  5400.000000   2415888   2415608   2415411   2415335   2415426  
  5390.000000   2415679   2416086   2416607   2417232   2417953  
  5380.000000   2418810   2419826   2421046   2422459   2424065  
  5370.000000   2425810   2427683   2429643   2431718   2433901  
  5360.000000   2436247   2438752   2441472   2444401   2447613  
  5350.000000   2451122   2455022   2459322   2464091   2469286  
  5340.000000   2474930   2480946   2487368   2494149   2501368  
  5330.000000   2508997   2517119   2525683   2534743   2544235  
  5320.000000   2554233   2564710   2575794   2587488   2599931  
  5310.000000   2613096   2627075   2641781   2657266   2673438  
  5300.000000   2690367   2708002   2726464   2745742   2765970  
  5290.000000   2787118   2809256   2832267   2856109   2880595  
  5280.000000   2905661   2931185   2957217   2983778   3011015  
  5270.000000   3038974   3067693   3097045   3126838   3156811  
  5260.000000   3186737   3216483   3246019   3275421   3304753  
  5250.000000   3334066   3363258   3392193   3420594   3448294  
  5240.000000   3475096   3501032   3526099   3550486   3574245  
  5230.000000   3597524   3620252   3642429   3663855   3684478  
  5220.000000   3704124   3722848   3740614   3757608   3773877  
  5210.000000   3789613   3804792   3819479   3833511   3846860  
  5200.000000   3859345   3870998   3881752   3891741   3900962  
  5190.000000   3909546   3917449   3924745   3931352   3937345  
  5180.000000   3942681   3947472   3951695   3955441   3958639  
  5170.000000   3961320   3963386   3964879   3965753   3966107  
  5160.000000   3965944   3965366   3964353   3962960   3961132  
  5150.000000   3958917   3956287   3953316   3950001   3946409  
  5140.000000   3942513   3938343   3933858   3929093   3924047  
  5130.000000   3918790   3913350   3907796   3902131   3896388  
  5120.000000   3890547   3884633   3878647   3872634   3866611  
  5110.000000   3860610   3854624   3848647   3842648   3836614  
  5100.000000   3830536   3824428   3818307   3812197   3806104  
  5090.000000   3800036   3793986   3787959   3781959   3776005  
  5080.000000   3770102   3764257   3758449   3752653   3746826  
  5070.000000   3740940   3734964   3728899   3722739   3716500  
  5060.000000   3710183   3703796   3697332   3690801   3684198  
  5050.000000   3677537   3670816   3664045   3657210   3650310  
  5040.000000   3643331   3636281   3629163   3621999   3614805  
  5030.000000   3607598   3600383   3593164   3585940   3578719  
  5020.000000   3571522   3564375   3557313   3550362   3543546  
  5010.000000   3536863   3530315   3523886   3517577   3511376  
  5000.000000   3505301   3499352   3493557   3487915   3482453  
  4990.000000   3477163   3472073   3467169   3462474   3457967  
  4980.000000   3453668   3449550   3445639   3441921   3438442  
  4970.000000   3435207   3432275   3429646   3427367   3425412  
  4960.000000   3423807   3422510   3421549   3420889   3420571  
  4950.000000   3420570   3420930   3421616   3422662   3424024  
  4940.000000   3425735   3427761   3430148   3432871   3435979  
  4930.000000   3439437   3443277   3447448   3451974   3456810  
  4920.000000   3461986   3467473   3473312   3479477   3485995  
  4910.000000   3492831   3499993   3507435   3515150   3523093  
  4900.000000   3531246   3539567   3548032   3556603   3565252  
  4890.000000   3573946   3582645   3591313   3599888   3608325  
  4880.000000   3616548   3624522   3632176   3639493   3646413  
  4870.000000   3652929   3658974   3664539   3669555   3674032  
  4860.000000   3677930   3681295   3684127   3686503   3688434  
  4850.000000   3689996   3691196   3692103   3692724   3693131  
  4840.000000   3693343   3693430   3693407   3693322   3693175  
  4830.000000   3692991   3692764   3692515   3692254   3692007  
  4820.000000   3691793   3691638   3691557   3691560   3691656  
  4810.000000   3691843   3692120   3692475   3692905   3693391  
  4800.000000   3693932   3694520   3695172   3695899   3696732  
  4790.000000   3697687   3698783   3700012   3701362   3702795  
  4780.000000   3704284   3705794   3707313   3708833   3710366  
  4770.000000   3711925   3713524   3715170   3716862   3718585  
  4760.000000   3720321   3722041   3723720   3725336   3726871  
  4750.000000   3728323   3729692   3730994   3732243   3733455  
  4740.000000   3734635   3735785   3736896   3737955   3738951  
  4730.000000   3739878   3740736   3741534   3742289   3743013  
  4720.000000   3743725   3744436   3745160   3745903   3746682  
  4710.000000   3747505   3748393   3749358   3750427   3751616  
  4700.000000   3752955   3754464   3756169   3758077   3760202  
  4690.000000   3762532   3765058   3767748   3770577   3773501  
  4680.000000   3776485   3779472   3782425   3785285   3788026  
  4670.000000   3790613   3793058   3795378   3797632   3799878  
  4660.000000   3802194   3804639   3807268   3810110   3813184  
  4650.000000   3816491   3820024   3823773   3827718   3831841  
  4640.000000   3836108   3840484   3844923   3849379   3853795  
  4630.000000   3858125   3862313   3866322   3870108   3873648  
  4620.000000   3876914   3879902   3882594   3885001   3887111  
  4610.000000   3888945   3890503   3891823   3892924   3893866  
  4600.000000   3894677   3895421   3896111   3896786   3897425  
  4590.000000   3898033   3898565   3899006   3899307   3899453  
  4580.000000   3899404   3899154   3898674   3897974   3897045  
  4570.000000   3895916   3894602   3893150   3891582   3889944  
  4560.000000   3888247   3886519   3884754   3882961   3881125  
  4550.000000   3879247   3877308   3875307   3873230   3871079  
  4540.000000   3868854   3866572   3864255   3861934   3859640  
  4530.000000   3857394   3855212   3853088   3851018   3848973  
  4520.000000   3846953   3844935   3842943   3840970   3839065  
  4510.000000   3837235   3835550   3834028   3832765   3831790  
  4500.000000   3831217   3831073   3831461   3832381   3833911  
  4490.000000   3836021   3838773   3842125   3846144   3850786  
  4480.000000   3856115   3862079   3868732   3876012   3883971  
  4470.000000   3892547   3901788   3911632   3922110   3933143  
  4460.000000   3944730   3956771   3969248   3982061   3995189  
  4450.000000   4008551   4022131   4035867   4049749   4063734  
  4440.000000   4077816   4091974   4106198   4120475   4134777  
  4430.000000   4149085   4163338   4177508   4191513   4205327  
  4420.000000   4218861   4232095   4244940   4257374   4269300  
  4410.000000   4280692   4291449   4301552   4310921   4319567  
  4400.000000   4327452   4334634   4341123   4347017   4352365  
  4390.000000   4357297   4361888   4366279   4370552   4374828  
  4380.000000   4379161   4383622   4388217   4392974   4397871  
  4370.000000   4402916   4408094   4413409   4418852   4424423  
  4360.000000   4430110   4435910   4441801   4447790   4453829  
  4350.000000   4459923   4465984   4472014   4477916   4483728  
  4340.000000   4489398   4494994   4500439   4505664   4510365  
  4330.000000   4514155   4516453   4516707   4514429   4509420  
  4320.000000   4501796   4492068   4480995   4469504   4458439  
  4310.000000   4448491   4440037   4433215   4427904   4423893  
  4300.000000   4420915   4418751   4417239   4416263   4415767  
  4290.000000   4415667   4415945   4416528   4417432   4418619  
  4280.000000   4420129   4421944   4424068   4426465   4429093  
  4270.000000   4431910   4434858   4437885   4440875   4443670  
  4260.000000   4446006   4447578   4448041   4447124   4444665  
  4250.000000   4440705   4435448   4429282   4422640   4415990  
  4240.000000   4409679   4403967   4398929   4394556   4390723  
  4230.000000   4387292   4384102   4381023   4377956   4374827  
  4220.000000   4371622   4368334   4365039   4361799   4358759  
  4210.000000   4356015   4353709   4351898   4350645   4349919  
  4200.000000   4349692   4349866   4350375   4351115   4352038  
  4190.000000   4353073   4354215   4355421   4356712   4358056  
  4180.000000   4359481   4360955   4362510   4364125   4365852  
  4170.000000   4367700   4369756   4372056   4374700   4377722  
  4160.000000   4381196   4385117   4389519   4394356   4399639  
  4150.000000   4405309   4411384   4417810   4424619   4431766  
  4140.000000   4439293   4447162   4455424   4464046   4473084  
  4130.000000   4482505   4492362   4502616   4513314   4524423  
  4120.000000   4535993   4548005   4560519   4573530   4587097  
  4110.000000   4601210   4615904   4631137   4646892   4663079  
  4100.000000   4679629   4696421   4713373   4730388   4747419  
  4090.000000   4764431   4781417   4798383   4815328   4832264  
  4080.000000   4849168   4866047   4882855   4899593   4916186  
  4070.000000   4932611   4948755   4964573   4979937   4994822  
  4060.000000   5009127   5022870   5035980   5048498   5060363  
  4050.000000   5071638   5082287   5092420   5102032   5111244  
  4040.000000   5120020   5128418   5136322   5143730   5150501  
  4030.000000   5156654   5162100   5166908   5171040   5174564  
  4020.000000   5177420   5179677   5181334   5182473   5183072  
  4010.000000   5183253   5183081   5182550   5181438   5179764  
  4000.000000   5177803  
##END= 
