##TITLE= Sample 002 By ssteindl date Montag, November 26 2018
##JCAMP-DX= 4.24
##DATA TYPE= INFRARED SPECTRUM
##ORIGIN= Exported PE Spectrum Data File
##OWNER= Sandra Steindl
##DATE= 18/11/26
##TIME= 12:05:01.00
##SPECTROMETER/DATA SYSTEM= PERKIN-ELMER Frontier FT-IR/NIR IR
##INSTRUMENT PARAMETERS=
  APODIZATION=stark
  DETECTOR=INGAAS
##RESOLUTION= 16.000000
##DELTAX= -2.000000
##XUNITS= 1/CM
##YUNITS= A
##XFACTOR= 1.00
##YFACTOR= 0.00000011920928955078
##FIRSTX= 10000.00
##LASTX= 4000.00
##NPOINTS= 3001
##FIRSTY= 0.266030
##MAXY= 0.654368
##MINY= 0.212089
##XYDATA= (X++(Y..Y))
 10000.000000   2231617   2230377   2229390   2228609   2227340  
  9990.000000   2224766   2220730   2215857   2211023   2207080  
  9980.000000   2204547   2203532   2203644   2204313   2205149  
  9970.000000   2206068   2207175   2208463   2209555   2209617  
  9960.000000   2207637   2202860   2195305   2185902   2176394  
  9950.000000   2168699   2164302   2163665   2166074   2169956  
  9940.000000   2173425   2175045   2174243   2171466   2167897  
  9930.000000   2164927   2163705   2164719   2167770   2171997  
  9920.000000   2176217   2179162   2179874   2177899   2173489  
  9910.000000   2167575   2161571   2157045   2155202   2156521  
  9900.000000   2160485   2165741   2170495   2173156   2172890  
  9890.000000   2169914   2165385   2160915   2157919   2157035  
  9880.000000   2157936   2159499   2160373   2159538   2156727  
  9870.000000   2152520   2148022   2144496   2142775   2143143  
  9860.000000   2145193   2148151   2151117   2153322   2154323  
  9850.000000   2153898   2152104   2149035   2144889   2139836  
  9840.000000   2134130   2128049   2121947   2116223   2111299  
  9830.000000   2107675   2105830   2106271   2109292   2114910  
  9820.000000   2122650   2131560   2140321   2147491   2151876  
  9810.000000   2152761   2150170   2144763   2137764   2130537  
  9800.000000   2124356   2120050   2117920   2117732   2118803  
  9790.000000   2120279   2121282   2121259   2120030   2117952  
  9780.000000   2115699   2114117   2113841   2115073   2117497  
  9770.000000   2120343   2122752   2124009   2123850   2122419  
  9760.000000   2120171   2117597   2115029   2112550   2110056  
  9750.000000   2107453   2104805   2102450   2100855   2100472  
  9740.000000   2101445   2103551   2106225   2108773   2110633  
  9730.000000   2111500   2111367   2110359   2108588   2106060  
  9720.000000   2102728   2098690   2094325   2090371   2087735  
  9710.000000   2087196   2089024   2092784   2097352   2101252  
  9700.000000   2103106   2102102   2098230   2092243   2085367  
  9690.000000   2078890   2073816   2070664   2069464   2069856  
  9680.000000   2071265   2073031   2074536   2075259   2074853  
  9670.000000   2073194   2070423   2066932   2063275   2060031  
  9660.000000   2057656   2056385   2056212   2056991   2058486  
  9650.000000   2060523   2062910   2065463   2067869   2069706  
  9640.000000   2070507   2069851   2067570   2063726   2058683  
  9630.000000   2052881   2046801   2040778   2035091   2029958  
  9620.000000   2025660   2022552   2020953   2021072   2022780  
  9610.000000   2025692   2029165   2032616   2035681   2038367  
  9600.000000   2041019   2044046   2047719   2051832   2055757  
  9590.000000   2058514   2059195   2057251   2052782   2046517  
  9580.000000   2039609   2033322   2028638   2026124   2025766  
  9570.000000   2027168   2029597   2032272   2034450   2035614  
  9560.000000   2035524   2034239   2032084   2029500   2026946  
  9550.000000   2024685   2022788   2021075   2019316   2017343  
  9540.000000   2015223   2013280   2011978   2011766   2012834  
  9530.000000   2015027   2017858   2020668   2022874   2024132  
  9520.000000   2024413   2023924   2022954   2021773   2020539  
  9510.000000   2019390   2018461   2017977   2018154   2019118  
  9500.000000   2020727   2022539   2023843   2023877   2022050  
  9490.000000   2018194   2012630   2006089   1999472   1993560  
  9480.000000   1988821   1985345   1982944   1981317   1980205  
  9470.000000   1979451   1978948   1978575   1978112   1977326  
  9460.000000   1976062   1974393   1972672   1971412   1971154  
  9450.000000   1972168   1974375   1977241   1979978   1981714  
  9440.000000   1981817   1980068   1976745   1972514   1968213  
  9430.000000   1964628   1962287   1961405   1961865   1963316  
  9420.000000   1965268   1967219   1968737   1969529   1969443  
  9410.000000   1968469   1966719   1964376   1961711   1958991  
  9400.000000   1956506   1954470   1953023   1952179   1951837  
  9390.000000   1951824   1951951   1952097   1952252   1952512  
  9380.000000   1953041   1953959   1955262   1956736   1958017  
  9370.000000   1958710   1958597   1957762   1956608   1955733  
  9360.000000   1955709   1956877   1959175   1962148   1965066  
  9350.000000   1967190   1968009   1967411   1965651   1963225  
  9340.000000   1960663   1958389   1956638   1955472   1954823  
  9330.000000   1954563   1954515   1954496   1954279   1953667  
  9320.000000   1952521   1950892   1949037   1947375   1946327  
  9310.000000   1946118   1946651   1947506   1948087   1947836  
  9300.000000   1946458   1944080   1941235   1938677   1937081  
  9290.000000   1936778   1937633   1939125   1940524   1941158  
  9280.000000   1940602   1938829   1936170   1933192   1930483  
  9270.000000   1928500   1927467   1927335   1927804   1928354  
  9260.000000   1928405   1927444   1925223   1921821   1917656  
  9250.000000   1913384   1909712   1907199   1906057   1906138  
  9240.000000   1906996   1908118   1909098   1909806   1910360  
  9230.000000   1911015   1911969   1913176   1914361   1915037  
  9220.000000   1914799   1913356   1910759   1907266   1903355  
  9210.000000   1899515   1896154   1893563   1891905   1891346  
  9200.000000   1892011   1894038   1897401   1901928   1907182  
  9190.000000   1912591   1917490   1921301   1923639   1924346  
  9180.000000   1923513   1921340   1918141   1914198   1909803  
  9170.000000   1905195   1900593   1896181   1892101   1888470  
  9160.000000   1885340   1882793   1880892   1879757   1879466  
  9150.000000   1880057   1881450   1883447   1885766   1888087  
  9140.000000   1890173   1891878   1893196   1894164   1894834  
  9130.000000   1895192   1895187   1894756   1893907   1892770  
  9120.000000   1891561   1890529   1889808   1889383   1889063  
  9110.000000   1888572   1887661   1886202   1884266   1882054  
  9100.000000   1879832   1877768   1875891   1874097   1872269  
  9090.000000   1870398   1868642   1867352   1866934   1867740  
  9080.000000   1869861   1873112   1877030   1881016   1884478  
  9070.000000   1886936   1888135   1888005   1886668   1884313  
  9060.000000   1881187   1877559   1873753   1870112   1866962  
  9050.000000   1864567   1863075   1862481   1862592   1863121  
  9040.000000   1863734   1864167   1864249   1863961   1863419  
  9030.000000   1862828   1862423   1862403   1862929   1864035  
  9020.000000   1865647   1867546   1869432   1870959   1871801  
  9010.000000   1871755   1870795   1869120   1867086   1865157  
  9000.000000   1863768   1863209   1863519   1864483   1865678  
  8990.000000   1866605   1866808   1866018   1864221   1861659  
  8980.000000   1858765   1856018   1853841   1852467   1851911  
  8970.000000   1851981   1852346   1852676   1852707   1852384  
  8960.000000   1851829   1851340   1851254   1851847   1853225  
  8950.000000   1855218   1857405   1859173   1859919   1859169  
  8940.000000   1856774   1852950   1848307   1843654   1839797  
  8930.000000   1837303   1836368   1836792   1838057   1839544  
  8920.000000   1840742   1841413   1841628   1841703   1842043  
  8910.000000   1842953   1844524   1846573   1848763   1850677  
  8900.000000   1852013   1852629   1852617   1852214   1851719  
  8890.000000   1851403   1851422   1851820   1852508   1853338  
  8880.000000   1854142   1854808   1855295   1855642   1855920  
  8870.000000   1856203   1856492   1856707   1856672   1856189  
  8860.000000   1855133   1853526   1851588   1849677   1848203  
  8850.000000   1847474   1847572   1848313   1849294   1850056  
  8840.000000   1850270   1849868   1849069   1848290   1847974  
  8830.000000   1848416   1849662   1851483   1853508   1855334  
  8820.000000   1856698   1857503   1857807   1857731   1857386  
  8810.000000   1856844   1856179   1855505   1855031   1855001  
  8800.000000   1855623   1856955   1858817   1860835   1862503  
  8790.000000   1863433   1863458   1862780   1861864   1861292  
  8780.000000   1861534   1862765   1864809   1867164   1869203  
  8770.000000   1870313   1870112   1868487   1865636   1861968  
  8760.000000   1858025   1854379   1851560   1850001   1849975  
  8750.000000   1851540   1854487   1858374   1862586   1866503  
  8740.000000   1869635   1871759   1872946   1873495   1873818  
  8730.000000   1874237   1874917   1875782   1876617   1877163  
  8720.000000   1877255   1876897   1876243   1875554   1875052  
  8710.000000   1874889   1875074   1875520   1876085   1876632  
  8700.000000   1877069   1877334   1877396   1877218   1876783  
  8690.000000   1876112   1875317   1874604   1874264   1874568  
  8680.000000   1875685   1877594   1880065   1882720   1885135  
  8670.000000   1886992   1888188   1888861   1889335   1889969  
  8660.000000   1891022   1892536   1894322   1896024   1897254  
  8650.000000   1897728   1897381   1896373   1895045   1893796  
  8640.000000   1892976   1892774   1893202   1894102   1895232  
  8630.000000   1896331   1897200   1897744   1898011   1898181  
  8620.000000   1898543   1899419   1901080   1903652   1907049  
  8610.000000   1910963   1914926   1918442   1921131   1922855  
  8600.000000   1923765   1924234   1924710   1925537   1926820  
  8590.000000   1928386   1929858   1930823   1930996   1930354  
  8580.000000   1929123   1927717   1926544   1925908   1925874  
  8570.000000   1926331   1927044   1927774   1928362   1928743  
  8560.000000   1928956   1929046   1929052   1928964   1928773  
  8550.000000   1928474   1928126   1927833   1927756   1928049  
  8540.000000   1928830   1930161   1932033   1934385   1937071  
  8530.000000   1939907   1942657   1945088   1947008   1948313  
  8520.000000   1949045   1949345   1949425   1949443   1949466  
  8510.000000   1949402   1949074   1948288   1946975   1945262  
  8500.000000   1943479   1942067   1941425   1941792   1943152  
  8490.000000   1945278   1947806   1950392   1952808   1954997  
  8480.000000   1957031   1959021   1961046   1963081   1965026  
  8470.000000   1966732   1968086   1969030   1969589   1969824  
  8460.000000   1969820   1969665   1969449   1969284   1969282  
  8450.000000   1969556   1970145   1971016   1972022   1972981  
  8440.000000   1973716   1974162   1974376   1974531   1974830  
  8430.000000   1975412   1976280   1977282   1978187   1978769  
  8420.000000   1978924   1978695   1978259   1977844   1977639  
  8410.000000   1977727   1978071   1978561   1979072   1979533  
  8400.000000   1979932   1980315   1980733   1981220   1981773  
  8390.000000   1982374   1983000   1983638   1984265   1984839  
  8380.000000   1985279   1985486   1985374   1984933   1984256  
  8370.000000   1983519   1982915   1982571   1982472   1982454  
  8360.000000   1982242   1981589   1980379   1978720   1976917  
  8350.000000   1975378   1974458   1974336   1974934   1975945  
  8340.000000   1976928   1977464   1977297   1976390   1974921  
  8330.000000   1973199   1971578   1970347   1969665   1969535  
  8320.000000   1969838   1970381   1970953   1971381   1971564  
  8310.000000   1971498   1971261   1970984   1970788   1970746  
  8300.000000   1970847   1971011   1971110   1971036   1970746  
  8290.000000   1970283   1969755   1969288   1968964   1968776  
  8280.000000   1968621   1968323   1967711   1966668   1965184  
  8270.000000   1963350   1961335   1959346   1957581   1956209  
  8260.000000   1955332   1955009   1955220   1955898   1956900  
  8250.000000   1958044   1959119   1959939   1960373   1960370  
  8240.000000   1959954   1959186   1958139   1956851   1955326  
  8230.000000   1953546   1951515   1949297   1947023   1944885  
  8220.000000   1943052   1941654   1940694   1940085   1939640  
  8210.000000   1939154   1938453   1937449   1936154   1934658  
  8200.000000   1933091   1931569   1930167   1928896   1927723  
  8190.000000   1926582   1925423   1924221   1922997   1921795  
  8180.000000   1920661   1919624   1918663   1917726   1916740  
  8170.000000   1915647   1914441   1913183   1911991   1911002  
  8160.000000   1910306   1909911   1909712   1909527   1909144  
  8150.000000   1908400   1907232   1905706   1903979   1902243  
  8140.000000   1900644   1899235   1897972   1896737   1895416  
  8130.000000   1893928   1892271   1890502   1888708   1886969  
  8120.000000   1885332   1883818   1882439   1881225   1880232  
  8110.000000   1879524   1879142   1879065   1879196   1879374  
  8100.000000   1879419   1879184   1878596   1877680   1876536  
  8090.000000   1875301   1874105   1873031   1872108   1871315  
  8080.000000   1870603   1869905   1869155   1868282   1867227  
  8070.000000   1865946   1864439   1862760   1861026   1859397  
  8060.000000   1858047   1857110   1856642   1856602   1856861  
  8050.000000   1857246   1857595   1857801   1857835   1857731  
  8040.000000   1857556   1857362   1857160   1856909   1856547  
  8030.000000   1856004   1855257   1854330   1853291   1852231  
  8020.000000   1851218   1850293   1849445   1848646   1847865  
  8010.000000   1847097   1846371   1845736   1845231   1844858  
  8000.000000   1844558   1844231   1843759   1843060   1842128  
  7990.000000   1841047   1839976   1839095   1838544   1838356  
  7980.000000   1838441   1838594   1838566   1838133   1837186  
  7970.000000   1835757   1834027   1832265   1830753   1829710  
  7960.000000   1829237   1829307   1829782   1830472   1831182  
  7950.000000   1831758   1832109   1832201   1832042   1831663  
  7940.000000   1831108   1830412   1829626   1828792   1827963  
  7930.000000   1827179   1826469   1825849   1825312   1824851  
  7920.000000   1824459   1824145   1823923   1823810   1823802  
  7910.000000   1823862   1823925   1823900   1823709   1823303  
  7900.000000   1822694   1821945   1821165   1820473   1819961  
  7890.000000   1819679   1819614   1819723   1819941   1820215  
  7880.000000   1820511   1820814   1821109   1821365   1821527  
  7870.000000   1821513   1821254   1820700   1819870   1818838  
  7860.000000   1817736   1816719   1815926   1815461   1815369  
  7850.000000   1815646   1816248   1817109   1818147   1819268  
  7840.000000   1820365   1821324   1822036   1822418   1822442  
  7830.000000   1822145   1821631   1821044   1820534   1820208  
  7820.000000   1820104   1820172   1820299   1820331   1820125  
  7810.000000   1819587   1818691   1817500   1816137   1814780  
  7800.000000   1813605   1812772   1812371   1812427   1812874  
  7790.000000   1813595   1814427   1815221   1815850   1816238  
  7780.000000   1816355   1816201   1815791   1815132   1814229  
  7770.000000   1813087   1811740   1810258   1808748   1807341  
  7760.000000   1806151   1805254   1804645   1804258   1803969  
  7750.000000   1803657   1803221   1802628   1801903   1801122  
  7740.000000   1800376   1799735   1799235   1798855   1798547  
  7730.000000   1798239   1797873   1797404   1796824   1796145  
  7720.000000   1795402   1794637   1793897   1793220   1792642  
  7710.000000   1792182   1791850   1791638   1791526   1791480  
  7700.000000   1791455   1791408   1791291   1791073   1790733  
  7690.000000   1790277   1789732   1789143   1788568   1788057  
  7680.000000   1787644   1787325   1787066   1786801   1786456  
  7670.000000   1785968   1785308   1784497   1783599   1782719  
  7660.000000   1781974   1781475   1781300   1781474   1781968  
  7650.000000   1782694   1783525   1784308   1784897   1785169  
  7640.000000   1785062   1784572   1783776   1782799   1781807  
  7630.000000   1780950   1780343   1780026   1779967   1780084  
  7620.000000   1780267   1780432   1780530   1780574   1780613  
  7610.000000   1780711   1780914   1781216   1781568   1781876  
  7600.000000   1782054   1782031   1781795   1781378   1780853  
  7590.000000   1780304   1779808   1779425   1779191   1779132  
  7580.000000   1779262   1779596   1780129   1780835   1781649  
  7570.000000   1782477   1783217   1783780   1784132   1784293  
  7560.000000   1784340   1784363   1784440   1784594   1784800  
  7550.000000   1784991   1785105   1785121   1785085   1785104  
  7540.000000   1785303   1785784   1786576   1787618   1788773  
  7530.000000   1789864   1790743   1791323   1791623   1791728  
  7520.000000   1791786   1791931   1792271   1792847   1793651  
  7510.000000   1794630   1795732   1796910   1798142   1799424  
  7500.000000   1800761   1802161   1803621   1805132   1806677  
  7490.000000   1808237   1809795   1811324   1812801   1814188  
  7480.000000   1815456   1816568   1817509   1818276   1818894  
  7470.000000   1819402   1819864   1820349   1820928   1821664  
  7460.000000   1822611   1823808   1825273   1827002   1828962  
  7450.000000   1831091   1833309   1835518   1837630   1839574  
  7440.000000   1841329   1842910   1844391   1845848   1847369  
  7430.000000   1849002   1850760   1852606   1854482   1856328  
  7420.000000   1858110   1859837   1861553   1863328   1865221  
  7410.000000   1867272   1869481   1871811   1874205   1876592  
  7400.000000   1878912   1881111   1883156   1885020   1886693  
  7390.000000   1888186   1889538   1890810   1892086   1893448  
  7380.000000   1894959   1896650   1898502   1900471   1902496  
  7370.000000   1904536   1906571   1908609   1910668   1912764  
  7360.000000   1914894   1917038   1919169   1921266   1923329  
  7350.000000   1925370   1927400   1929414   1931371   1933211  
  7340.000000   1934866   1936302   1937536   1938649   1939758  
  7330.000000   1940985   1942410   1944046   1945822   1947623  
  7320.000000   1949314   1950802   1952050   1953098   1954036  
  7310.000000   1954982   1956034   1957254   1958649   1960182  
  7300.000000   1961787   1963392   1964930   1966361   1967664  
  7290.000000   1968846   1969928   1970945   1971928   1972908  
  7280.000000   1973899   1974909   1975933   1976972   1978027  
  7270.000000   1979109   1980226   1981379   1982556   1983720  
  7260.000000   1984829   1985830   1986692   1987404   1987998  
  7250.000000   1988524   1989061   1989675   1990434   1991372  
  7240.000000   1992517   1993872   1995439   1997207   1999172  
  7230.000000   2001309   2003601   2006006   2008497   2011029  
  7220.000000   2013588   2016148   2018716   2021286   2023880  
  7210.000000   2026504   2029188   2031949   2034824   2037830  
  7200.000000   2040990   2044296   2047737   2051269   2054853  
  7190.000000   2058432   2061970   2065431   2068813   2072125  
  7180.000000   2075404   2078684   2082015   2085423   2088936  
  7170.000000   2092549   2096260   2100036   2103863   2107709  
  7160.000000   2111569   2115426   2119289   2123155   2127046  
  7150.000000   2130981   2135014   2139198   2143615   2148317  
  7140.000000   2153345   2158671   2164237   2169928   2175645  
  7130.000000   2181284   2186819   2192249   2197653   2203110  
  7120.000000   2208723   2214545   2220610   2226885   2233328  
  7110.000000   2239867   2246451   2253030   2259595   2266142  
  7100.000000   2272700   2279293   2285959   2292710   2299550  
  7090.000000   2306437   2313325   2320141   2326839   2333397  
  7080.000000   2339846   2346253   2352716   2359320   2366126  
  7070.000000   2373135   2380308   2387567   2394834   2402046  
  7060.000000   2409177   2416225   2423218   2430181   2437141  
  7050.000000   2444108   2451082   2458052   2465007   2471935  
  7040.000000   2478829   2485690   2492527   2499362   2506212  
  7030.000000   2513090   2519984   2526859   2533654   2540310  
  7020.000000   2546777   2553055   2559177   2565217   2571240  
  7010.000000   2577293   2583361   2589395   2595303   2601020  
  7000.000000   2606506   2611795   2616947   2622052   2627162  
  6990.000000   2632302   2637433   2642506   2647455   2652256  
  6980.000000   2656898   2661408   2665802   2670098   2674284  
  6970.000000   2678358   2682309   2686167   2689966   2693763  
  6960.000000   2697583   2701431   2705258   2709005   2712593  
  6950.000000   2715983   2719160   2722164   2725050   2727893  
  6940.000000   2730743   2733638   2736569   2739516   2742425  
  6930.000000   2745247   2747927   2750437   2752768   2754950  
  6920.000000   2757026   2759061   2761096   2763156   2765217  
  6910.000000   2767240   2769168   2770976   2772658   2774254  
  6900.000000   2775811   2777375   2778954   2780529   2782047  
  6890.000000   2783471   2784779   2786005   2787207   2788465  
  6880.000000   2789830   2791318   2792892   2794481   2795995  
  6870.000000   2797357   2798513   2799442   2800158   2800700  
  6860.000000   2801128   2801523   2801968   2802550   2803322  
  6850.000000   2804304   2805462   2806725   2807996   2809190  
  6840.000000   2810254   2811176   2811976   2812690   2813344  
  6830.000000   2813949   2814502   2815006   2815479   2815972  
  6820.000000   2816538   2817232   2818063   2819005   2819981  
  6810.000000   2820907   2821706   2822340   2822806   2823131  
  6800.000000   2823347   2823475   2823520   2823483   2823368  
  6790.000000   2823207   2823043   2822932   2822908   2822981  
  6780.000000   2823122   2823282   2823405   2823453   2823408  
  6770.000000   2823278   2823083   2822843   2822577   2822298  
  6760.000000   2822026   2821783   2821593   2821473   2821425  
  6750.000000   2821426   2821439   2821428   2821368   2821263  
  6740.000000   2821137   2821028   2820969   2820973   2821034  
  6730.000000   2821127   2821222   2821292   2821316   2821276  
  6720.000000   2821149   2820917   2820568   2820116   2819599  
  6710.000000   2819088   2818657   2818368   2818231   2818211  
  6700.000000   2818221   2818167   2817962   2817573   2817014  
  6690.000000   2816341   2815616   2814887   2814165   2813430  
  6680.000000   2812644   2811776   2810814   2809778   2808699  
  6670.000000   2807619   2806565   2805553   2804576   2803627  
  6660.000000   2802687   2801748   2800797   2799833   2798852  
  6650.000000   2797857   2796856   2795857   2794864   2793871  
  6640.000000   2792853   2791777   2790606   2789324   2787941  
  6630.000000   2786506   2785089   2783771   2782606   2781613  
  6620.000000   2780763   2779993   2779219   2778365   2777374  
  6610.000000   2776222   2774912   2773470   2771931   2770336  
  6600.000000   2768719   2767111   2765524   2763955   2762382  
  6590.000000   2760773   2759093   2757325   2755474   2753574  
  6580.000000   2751675   2749830   2748079   2746434   2744879  
  6570.000000   2743381   2741905   2740426   2738939   2737457  
  6560.000000   2736003   2734598   2733255   2731973   2730738  
  6550.000000   2729529   2728323   2727094   2725827   2724510  
  6540.000000   2723143   2721736   2720308   2718878   2717466  
  6530.000000   2716079   2714719   2713382   2712068   2710788  
  6520.000000   2709559   2708407   2707343   2706362   2705432  
  6510.000000   2704504   2703525   2702454   2701283   2700030  
  6500.000000   2698738   2697453   2696207   2695010   2693849  
  6490.000000   2692695   2691525   2690323   2689093   2687850  
  6480.000000   2686612   2685397   2684216   2683076   2681983  
  6470.000000   2680946   2679975   2679077   2678252   2677488  
  6460.000000   2676765   2676057   2675336   2674581   2673778  
  6450.000000   2672919   2672009   2671059   2670095   2669143  
  6440.000000   2668237   2667400   2666638   2665935   2665260  
  6430.000000   2664576   2663861   2663116   2662374   2661687  
  6420.000000   2661107   2660664   2660357   2660146   2659976  
  6410.000000   2659786   2659542   2659234   2658879   2658505  
  6400.000000   2658141   2657799   2657489   2657207   2656959  
  6390.000000   2656749   2656584   2656462   2656368   2656272  
  6380.000000   2656142   2655953   2655698   2655398   2655090  
  6370.000000   2654817   2654613   2654489   2654434   2654424  
  6360.000000   2654423   2654402   2654335   2654205   2653996  
  6350.000000   2653699   2653307   2652827   2652274   2651675  
  6340.000000   2651053   2650430   2649806   2649175   2648517  
  6330.000000   2647827   2647102   2646367   2645645   2644965  
  6320.000000   2644336   2643756   2643200   2642639   2642041  
  6310.000000   2641384   2640649   2639828   2638908   2637889  
  6300.000000   2636769   2635566   2634305   2633024   2631754  
  6290.000000   2630519   2629315   2628130   2626934   2625710  
  6280.000000   2624443   2623144   2621819   2620483   2619133  
  6270.000000   2617760   2616347   2614884   2613369   2611819  
  6260.000000   2610249   2608674   2607089   2605483   2603836  
  6250.000000   2602142   2600411   2598676   2596978   2595353  
  6240.000000   2593811   2592337   2590889   2589420   2587891  
  6230.000000   2586285   2584613   2582898   2581172   2579458  
  6220.000000   2577769   2576107   2574469   2572848   2571242  
  6210.000000   2569648   2568065   2566489   2564917   2563351  
  6200.000000   2561798   2560265   2558758   2557276   2555805  
  6190.000000   2554327   2552827   2551302   2549766   2548250  
  6180.000000   2546795   2545430   2544173   2543016   2541938  
  6170.000000   2540904   2539881   2538841   2537761   2536622  
  6160.000000   2535410   2534115   2532740   2531304   2529844  
  6150.000000   2528406   2527036   2525762   2524587   2523490  
  6140.000000   2522437   2521392   2520333   2519255   2518169  
  6130.000000   2517085   2516014   2514948   2513881   2512801  
  6120.000000   2511715   2510638   2509603   2508636   2507760  
  6110.000000   2506980   2506287   2505662   2505090   2504555  
  6100.000000   2504055   2503581   2503131   2502690   2502253  
  6090.000000   2501806   2501357   2500914   2500504   2500140  
  6080.000000   2499845   2499618   2499464   2499379   2499371  
  6070.000000   2499443   2499611   2499872   2500224   2500638  
  6060.000000   2501090   2501541   2501978   2502389   2502793  
  6050.000000   2503209   2503674   2504211   2504851   2505606  
  6040.000000   2506498   2507527   2508700   2510000   2511412  
  6030.000000   2512904   2514450   2516021   2517607   2519195  
  6020.000000   2520792   2522395   2524011   2525638   2527286  
  6010.000000   2528960   2530684   2532472   2534342   2536287  
  6000.000000   2538295   2540325   2542347   2544327   2546267  
  5990.000000   2548180   2550110   2552098   2554191   2556413  
  5980.000000   2558781   2561287   2563931   2566698   2569586  
  5970.000000   2572576   2575661   2578809   2582001   2585206  
  5960.000000   2588415   2591618   2594830   2598060   2601336  
  5950.000000   2604672   2608089   2611597   2615206   2618915  
  5940.000000   2622719   2626596   2630518   2634448   2638354  
  5930.000000   2642212   2646010   2649748   2653430   2657058  
  5920.000000   2660623   2664112   2667509   2670802   2673989  
  5910.000000   2677075   2680064   2682956   2685736   2688394  
  5900.000000   2690918   2693327   2695656   2697971   2700336  
  5890.000000   2702816   2705429   2708169   2710986   2713824  
  5880.000000   2716615   2719313   2721886   2724324   2726623  
  5870.000000   2728787   2730828   2732763   2734625   2736450  
  5860.000000   2738278   2740135   2742029   2743952   2745890  
  5850.000000   2747837   2749804   2751824   2753943   2756195  
  5840.000000   2758596   2761128   2763751   2766414   2769083  
  5830.000000   2771738   2774392   2777060   2779759   2782483  
  5820.000000   2785211   2787906   2790541   2793102   2795601  
  5810.000000   2798066   2800522   2802995   2805478   2807970  
  5800.000000   2810441   2812895   2815310   2817710   2820074  
  5790.000000   2822408   2824662   2826800   2828736   2830404  
  5780.000000   2831707   2832575   2832925   2832723   2831945  
  5770.000000   2830640   2828883   2826818   2824586   2822347  
  5760.000000   2820202   2818230   2816439   2814830   2813365  
  5750.000000   2812032   2810809   2809692   2808664   2807703  
  5740.000000   2806776   2805847   2804895   2803911   2802912  
  5730.000000   2801917   2800954   2800028   2799144   2798291  
  5720.000000   2797470   2796680   2795939   2795259   2794653  
  5710.000000   2794112   2793621   2793153   2792687   2792207  
  5700.000000   2791719   2791230   2790756   2790307   2789891  
  5690.000000   2789518   2789193   2788934   2788748   2788642  
  5680.000000   2788594   2788572   2788517   2788376   2788086  
  5670.000000   2787608   2786905   2785964   2784769   2783323  
  5660.000000   2781638   2779753   2777722   2775625   2773538  
  5650.000000   2771524   2769610   2767796   2766048   2764336  
  5640.000000   2762633   2760944   2759287   2757695   2756190  
  5630.000000   2754778   2753450   2752184   2750964   2749782  
  5620.000000   2748645   2747556   2746518   2745515   2744526  
  5610.000000   2743525   2742502   2741460   2740420   2739406  
  5600.000000   2738433   2737498   2736583   2735660   2734711  
  5590.000000   2733733   2732739   2731749   2730780   2729837  
  5580.000000   2728908   2727978   2727030   2726065   2725090  
  5570.000000   2724121   2723167   2722225   2721277   2720299  
  5560.000000   2719273   2718192   2717063   2715906   2714739  
  5550.000000   2713577   2712425   2711285   2710160   2709063  
  5540.000000   2708006   2707003   2706055   2705149   2704258  
  5530.000000   2703355   2702417   2701440   2700430   2699404  
  5520.000000   2698376   2697348   2696316   2695270   2694202  
  5510.000000   2693118   2692027   2690946   2689883   2688844  
  5500.000000   2687821   2686810   2685806   2684812   2683829  
  5490.000000   2682854   2681861   2680814   2679665   2678379  
  5480.000000   2676936   2675352   2673663   2671925   2670182  
  5470.000000   2668467   2666778   2665106   2663424   2661716  
  5460.000000   2659969   2658181   2656347   2654467   2652535  
  5450.000000   2650554   2648537   2646511   2644511   2642571  
  5440.000000   2640714   2638942   2637248   2635611   2634019  
  5430.000000   2632456   2630916   2629384   2627848   2626289  
  5420.000000   2624713   2623135   2621613   2620210   2618999  
  5410.000000   2618009   2617235   2616615   2616081   2615558  
  5400.000000   2615029   2614497   2614024   2613660   2613467  
  5390.000000   2613449   2613606   2613899   2614322   2614862  
  5380.000000   2615558   2616422   2617488   2618733   2620145  
  5370.000000   2621667   2623291   2624987   2626791   2628704  
  5360.000000   2630780   2633008   2635433   2638040   2640895  
  5350.000000   2644017   2647505   2651383   2655731   2660515  
  5340.000000   2665757   2671378   2677403   2683774   2690554  
  5330.000000   2697704   2705288   2713246   2721623   2730357  
  5320.000000   2739532   2749143   2759340   2770151   2781734  
  5310.000000   2794070   2807244   2821158   2835842   2851186  
  5300.000000   2867245   2883963   2901462   2919745   2938960  
  5290.000000   2959096   2980236   3002273   3025164   3048716  
  5280.000000   3072853   3097440   3122518   3148102   3174342  
  5270.000000   3201288   3228991   3257330   3286126   3315118  
  5260.000000   3344090   3372915   3401582   3430175   3458779  
  5250.000000   3487452   3516101   3544580   3572610   3600008  
  5240.000000   3626571   3652316   3677236   3701505   3725163  
  5230.000000   3748338   3770947   3792980   3814242   3834685  
  5220.000000   3854155   3872717   3890350   3907239   3923433  
  5210.000000   3939113   3954252   3968906   3982907   3996223  
  5200.000000   4008671   4020287   4031012   4040994   4050246  
  5190.000000   4058916   4066965   4074456   4081286   4087492  
  5180.000000   4092989   4097859   4102063   4105693   4108700  
  5170.000000   4111149   4112979   4114261   4114973   4115225  
  5160.000000   4115022   4114458   4113499   4112185   4110445  
  5150.000000   4108312   4105749   4102830   4099556   4096006  
  5140.000000   4092164   4088069   4083682   4079032   4074107  
  5130.000000   4068968   4063635   4058173   4052587   4046907  
  5120.000000   4041113   4035219   4029218   4023143   4017010  
  5110.000000   4010857   4004693   3998533   3992370   3986210  
  5100.000000   3980055   3973924   3967834   3961805   3955841  
  5090.000000   3949942   3944096   3938296   3932536   3926819  
  5080.000000   3921146   3915517   3909920   3904341   3898753  
  5070.000000   3893141   3887487   3881792   3876048   3870259  
  5060.000000   3864411   3858498   3852501   3846420   3840247  
  5050.000000   3833999   3827677   3821294   3814839   3808307  
  5040.000000   3801676   3794943   3788105   3781183   3774201  
  5030.000000   3767194   3760185   3753192   3746223   3739276  
  5020.000000   3732353   3725457   3718609   3711829   3705152  
  5010.000000   3698601   3692210   3685981   3679933   3674048  
  5000.000000   3668333   3662766   3657363   3652113   3647054  
  4990.000000   3642191   3637576   3633212   3629142   3625345  
  4980.000000   3621847   3618610   3615652   3612943   3610518  
  4970.000000   3608364   3606535   3605021   3603875   3603075  
  4960.000000   3602659   3602590   3602900   3603547   3604563  
  4950.000000   3605904   3607605   3609622   3611994   3614685  
  4940.000000   3617742   3621137   3624922   3629065   3633606  
  4930.000000   3638500   3643776   3649389   3655373   3661693  
  4920.000000   3668388   3675426   3682834   3690567   3698635  
  4910.000000   3706993   3715648   3724570   3733770   3743220  
  4900.000000   3752912   3762803   3772856   3783017   3793242  
  4890.000000   3803492   3813729   3823925   3834036   3844029  
  4880.000000   3853840   3863433   3872740   3881742   3890381  
  4870.000000   3898651   3906496   3913914   3920846   3927302  
  4860.000000   3933242   3938700   3943662   3948186   3952268  
  4850.000000   3955967   3959283   3962283   3964978   3967446  
  4840.000000   3969710   3971843   3973853   3975780   3977612  
  4830.000000   3979364   3981022   3982608   3984130   3985624  
  4820.000000   3987110   3988619   3990163   3991754   3993388  
  4810.000000   3995062   3996765   3998489   4000223   4001960  
  4800.000000   4003700   4005446   4007216   4009025   4010895  
  4790.000000   4012839   4014866   4016973   4019148   4021380  
  4780.000000   4023657   4025968   4028302   4030649   4032986  
  4770.000000   4035291   4037534   4039693   4041748   4043696  
  4760.000000   4045535   4047279   4048929   4050497   4051976  
  4750.000000   4053371   4054676   4055901   4057042   4058113  
  4740.000000   4059106   4060027   4060864   4061619   4062286  
  4730.000000   4062876   4063396   4063859   4064268   4064621  
  4720.000000   4064907   4065112   4065226   4065247   4065193  
  4710.000000   4065090   4064986   4064923   4064953   4065113  
  4700.000000   4065434   4065931   4066609   4067460   4068475  
  4690.000000   4069638   4070939   4072364   4073909   4075554  
  4680.000000   4077284   4079056   4080831   4082543   4084151  
  4670.000000   4085608   4086913   4088071   4089138   4090164  
  4660.000000   4091223   4092370   4093660   4095123   4096789  
  4650.000000   4098667   4100769   4103089   4105619   4108332  
  4640.000000   4111194   4114162   4117189   4120238   4123274  
  4630.000000   4126280   4129238   4132141   4134971   4137713  
  4620.000000   4140333   4142801   4145070   4147108   4148872  
  4610.000000   4150353   4151537   4152457   4153136   4153642  
  4600.000000   4154020   4154338   4154619   4154900   4155160  
  4590.000000   4155397   4155558   4155624   4155539   4155289  
  4580.000000   4154838   4154187   4153322   4152266   4151021  
  4570.000000   4149623   4148085   4146438   4144691   4142863  
  4560.000000   4140950   4138964   4136900   4134772   4132582  
  4550.000000   4130352   4128088   4125809   4123519   4121229  
  4540.000000   4118939   4116652   4114370   4112090   4109811  
  4530.000000   4107525   4105238   4102943   4100661   4098400  
  4520.000000   4096202   4094080   4092088   4090226   4088540  
  4510.000000   4087017   4085705   4084599   4083775   4083249  
  4500.000000   4083127   4083428   4084258   4085616   4087590  
  4490.000000   4090156   4093396   4097283   4101900   4107216  
  4480.000000   4113304   4120111   4127685   4135949   4144932  
  4470.000000   4154552   4164829   4175682   4187123   4199062  
  4460.000000   4211491   4224308   4237489   4250932   4264607  
  4450.000000   4278428   4292374   4306391   4320476   4334607  
  4440.000000   4348794   4363036   4377332   4391679   4406045  
  4430.000000   4420417   4434733   4448973   4463058   4476967  
  4420.000000   4490606   4503954   4516903   4529430   4541419  
  4410.000000   4552841   4563579   4573606   4582814   4591201  
  4400.000000   4598700   4605364   4611195   4616312   4620779  
  4390.000000   4624750   4628313   4631620   4634744   4637802  
  4380.000000   4640834   4643912   4647048   4650278   4653599  
  4370.000000   4657037   4660599   4664314   4668203   4672296  
  4360.000000   4676611   4681164   4685946   4690951   4696123  
  4350.000000   4701434   4706793   4712179   4717516   4722828  
  4340.000000   4728084   4733334   4738516   4743558   4748208  
  4330.000000   4752144   4754902   4756047   4755198   4752210  
  4320.000000   4747181   4740516   4732811   4724788   4717097  
  4310.000000   4710270   4704574   4700098   4696715   4694241  
  4300.000000   4692447   4691160   4690258   4689668   4689365  
  4290.000000   4689309   4689499   4689891   4690493   4691281  
  4280.000000   4692266   4693435   4694776   4696269   4697877  
  4270.000000   4699587   4701360   4703173   4704936   4706527  
  4260.000000   4707722   4708267   4707871   4706315   4703476  
  4250.000000   4699410   4694310   4688524   4682428   4676419  
  4240.000000   4670773   4665686   4661184   4657228   4653675  
  4230.000000   4650388   4647215   4644046   4640801   4637434  
  4220.000000   4633952   4630367   4626760   4623193   4619788  
  4210.000000   4616619   4613790   4611330   4609281   4607616  
  4200.000000   4606324   4605353   4604687   4604278   4604122  
  4190.000000   4604170   4604419   4604811   4605346   4605970  
  4180.000000   4606707   4607531   4608498   4609608   4610939  
  4170.000000   4612499   4614367   4616552   4619127   4622095  
  4160.000000   4625521   4629391   4633755   4638580   4643899  
  4150.000000   4649661   4655893   4662539   4669625   4677094  
  4140.000000   4684983   4693239   4701908   4710946   4720406  
  4130.000000   4730249   4740529   4751210   4762349   4773918  
  4120.000000   4785977   4798512   4811585   4825189   4839380  
  4110.000000   4854141   4869501   4885410   4901849   4918720  
  4100.000000   4935957   4953440   4971096   4988837   5006633  
  4090.000000   5024458   5042321   5060232   5078192   5096211  
  4080.000000   5114267   5132368   5150479   5168605   5186679  
  4070.000000   5204671   5222453   5239949   5256998   5273543  
  4060.000000   5289469   5304793   5319459   5333535   5346977  
  4050.000000   5359858   5372127   5383869   5395035   5405717  
  4040.000000   5415846   5425478   5434499   5442936   5450667  
  4030.000000   5457745   5464086   5469769   5474732   5479028  
  4020.000000   5482549   5485340   5487361   5488679   5489236  
  4010.000000   5489160   5488516   5487310   5485312   5482595  
  4000.000000   5479519  
##END= 
