##TITLE= Sample 004 By ssteindl date Donnerstag, November 22 2018
##JCAMP-DX= 4.24
##DATA TYPE= INFRARED SPECTRUM
##ORIGIN= Exported PE Spectrum Data File
##OWNER= Sandra Steindl
##DATE= 18/11/22
##TIME= 12:40:07.00
##SPECTROMETER/DATA SYSTEM= PERKIN-ELMER Frontier FT-IR/NIR IR
##INSTRUMENT PARAMETERS=
  APODIZATION=stark
  DETECTOR=INGAAS
##RESOLUTION= 16.000000
##DELTAX= -2.000000
##XUNITS= 1/CM
##YUNITS= A
##XFACTOR= 1.00
##YFACTOR= 0.00000011920928955078
##FIRSTX= 10000.00
##LASTX= 4000.00
##NPOINTS= 3001
##FIRSTY= 0.225389
##MAXY= 0.626214
##MINY= 0.196872
##XYDATA= (X++(Y..Y))
 10000.000000   1890701   1896788   1904855   1916702   1930622  
  9990.000000   1943336   1952975   1959496   1963017   1963549  
  9980.000000   1961541   1957719   1952435   1945806   1938059  
  9970.000000   1929741   1921444   1913897   1907690   1903271  
  9960.000000   1900749   1900095   1901023   1903177   1905994  
  9950.000000   1908782   1910774   1911283   1910016   1907168  
  9940.000000   1903550   1900251   1898361   1898442   1900377  
  9930.000000   1903342   1906207   1907969   1908177   1907056  
  9920.000000   1905342   1903904   1903339   1903759   1904822  
  9910.000000   1906020   1906936   1907500   1907869   1908339  
  9900.000000   1909049   1909942   1910802   1911422   1911761  
  9890.000000   1911897   1911908   1911600   1910452   1907691  
  9880.000000   1902698   1895407   1886593   1877824   1870978  
  9870.000000   1867641   1868405   1872703   1878935   1885179  
  9860.000000   1889849   1892249   1892681   1892056   1891406  
  9850.000000   1891239   1891441   1891299   1890046   1887195  
  9840.000000   1882891   1877814   1872958   1869286   1867450  
  9830.000000   1867737   1870065   1874110   1879350   1885068  
  9820.000000   1890397   1894378   1896218   1895551   1892657  
  9810.000000   1888524   1884578   1882294   1882669   1885918  
  9800.000000   1891409   1897946   1904162   1908966   1911699  
  9790.000000   1912200   1910574   1907086   1902041   1895854  
  9780.000000   1889119   1882620   1877188   1873453   1871601  
  9770.000000   1871279   1871701   1871962   1871360   1869669  
  9760.000000   1867134   1864298   1861695   1859599   1857987  
  9750.000000   1856671   1855574   1854886   1855056   1856562  
  9740.000000   1859594   1863845   1868491   1872456   1874758  
  9730.000000   1874854   1872813   1869211   1864923   1860729  
  9720.000000   1857130   1854223   1851821   1849624   1847376  
  9710.000000   1844971   1842427   1839880   1837504   1835548  
  9700.000000   1834251   1833859   1834464   1835943   1837892  
  9690.000000   1839707   1840805   1840820   1839794   1838114  
  9680.000000   1836347   1834921   1833945   1833107   1831891  
  9670.000000   1829807   1826722   1822931   1819101   1815945  
  9660.000000   1813958   1813189   1813319   1813853   1814398  
  9650.000000   1814853   1815349   1816152   1817382   1819004  
  9640.000000   1820827   1822743   1824840   1827427   1830804  
  9630.000000   1834956   1839308   1842729   1843877   1841694  
  9620.000000   1835947   1827382   1817570   1808311   1801027  
  9610.000000   1796259   1793612   1792063   1790526   1788374  
  9600.000000   1785674   1783109   1781530   1781568   1783288  
  9590.000000   1786284   1789902   1793618   1797244   1800879  
  9580.000000   1804731   1808777   1812685   1815812   1817503  
  9570.000000   1817319   1815254   1811668   1807149   1802240  
  9560.000000   1797302   1792501   1787906   1783687   1780120  
  9550.000000   1777606   1776406   1776556   1777718   1779352  
  9540.000000   1780873   1781929   1782480   1782760   1783102  
  9530.000000   1783691   1784509   1785279   1785694   1785500  
  9520.000000   1784681   1783358   1781740   1779930   1777910  
  9510.000000   1775579   1772911   1770103   1767587   1765946  
  9500.000000   1765658   1766914   1769480   1772795   1776143  
  9490.000000   1778934   1780862   1781954   1782461   1782668  
  9480.000000   1782750   1782721   1782463   1781871   1780876  
  9470.000000   1779546   1777998   1776398   1774887   1773566  
  9460.000000   1772472   1771525   1770510   1769041   1766643  
  9450.000000   1762844   1757409   1750498   1742818   1735542  
  9440.000000   1730048   1727505   1728443   1732557   1738760  
  9430.000000   1745563   1751552   1755803   1758091   1758813  
  9420.000000   1758742   1758617   1758894   1759588   1760427  
  9410.000000   1761021   1761122   1760667   1759783   1758654  
  9400.000000   1757431   1756185   1754876   1753427   1751725  
  9390.000000   1749718   1747413   1744931   1742481   1740382  
  9380.000000   1738993   1738705   1739768   1742211   1745699  
  9370.000000   1749577   1753013   1755244   1755833   1754759  
  9360.000000   1752410   1749371   1746235   1743373   1740907  
  9350.000000   1738749   1736768   1734931   1733317   1732096  
  9340.000000   1731347   1731033   1730936   1730813   1730484  
  9330.000000   1729965   1729434   1729102   1729080   1729241  
  9320.000000   1729295   1728865   1727715   1725845   1723539  
  9310.000000   1721203   1719200   1717666   1716520   1715537  
  9300.000000   1714537   1713509   1712635   1712197   1712388  
  9290.000000   1713198   1714377   1715566   1716488   1717098  
  9280.000000   1717618   1718384   1719640   1721344   1723130  
  9270.000000   1724460   1724849   1724125   1722522   1720610  
  9260.000000   1719064   1718359   1718578   1719400   1720249  
  9250.000000   1720527   1719805   1717984   1715271   1712105  
  9240.000000   1708961   1706282   1704400   1703567   1703899  
  9230.000000   1705310   1707461   1709756   1711490   1711997  
  9220.000000   1710880   1708142   1704249   1699986   1696227  
  9210.000000   1693614   1692408   1692457   1693362   1694669  
  9200.000000   1696023   1697264   1698373   1699397   1700326  
  9190.000000   1701078   1701556   1701716   1701635   1701467  
  9180.000000   1701383   1701461   1701621   1701676   1701397  
  9170.000000   1700684   1699618   1698472   1697567   1697118  
  9160.000000   1697099   1697205   1696952   1695870   1693705  
  9150.000000   1690515   1686673   1682764   1679421   1677143  
  9140.000000   1676142   1676352   1677461   1679051   1680676  
  9130.000000   1681995   1682841   1683225   1683320   1683327  
  9120.000000   1683423   1683620   1683784   1683629   1682871  
  9110.000000   1681338   1679113   1676569   1674284   1672871  
  9100.000000   1672748   1674009   1676379   1679273   1681970  
  9090.000000   1683827   1684476   1683859   1682197   1679918  
  9080.000000   1677552   1675617   1674493   1674423   1675466  
  9070.000000   1677495   1680171   1683013   1685512   1687245  
  9060.000000   1687964   1687641   1686447   1684648   1682509  
  9050.000000   1680196   1677802   1675396   1673112   1671186  
  9040.000000   1669905   1669540   1670192   1671722   1673728  
  9030.000000   1675678   1677104   1677700   1677436   1676476  
  9020.000000   1675153   1673756   1672486   1671424   1670619  
  9010.000000   1670166   1670204   1670946   1672551   1675070  
  9000.000000   1678313   1681930   1685461   1688474   1690624  
  8990.000000   1691701   1691644   1690464   1688258   1685176  
  8980.000000   1681496   1677586   1673876   1670777   1668566  
  8970.000000   1667334   1666913   1667006   1667269   1667495  
  8960.000000   1667639   1667824   1668223   1668933   1669898  
  8950.000000   1670880   1671579   1671736   1671285   1670361  
  8940.000000   1669282   1668402   1668002   1668188   1668873  
  8930.000000   1669818   1670735   1671368   1671563   1671265  
  8920.000000   1670507   1669377   1668010   1666578   1665276  
  8910.000000   1664300   1663810   1663894   1664533   1665618  
  8900.000000   1666954   1668348   1669629   1670703   1671547  
  8890.000000   1672177   1672634   1672923   1673022   1672862  
  8880.000000   1672368   1671492   1670238   1668702   1667065  
  8870.000000   1665592   1664556   1664189   1664587   1665666  
  8860.000000   1667162   1668660   1669736   1670045   1669461  
  8850.000000   1668079   1666198   1664228   1662585   1661600  
  8840.000000   1661461   1662231   1663874   1666290   1669305  
  8830.000000   1672650   1675956   1678780   1680694   1681372  
  8820.000000   1680719   1678893   1676329   1673585   1671244  
  8810.000000   1669713   1669170   1669532   1670523   1671817  
  8800.000000   1673114   1674254   1675193   1676023   1676894  
  8790.000000   1677973   1679382   1681149   1683203   1685354  
  8780.000000   1687356   1688931   1689876   1690104   1689701  
  8770.000000   1688897   1687994   1687265   1686871   1686821  
  8760.000000   1686999   1687240   1687415   1687499   1687559  
  8750.000000   1687717   1688070   1688645   1689398   1690253  
  8740.000000   1691163   1692154   1693311   1694728   1696427  
  8730.000000   1698318   1700209   1701880   1703169   1704045  
  8720.000000   1704609   1705041   1705498   1706020   1706506  
  8710.000000   1706756   1706577   1705898   1704811   1703563  
  8700.000000   1702462   1701766   1701592   1701894   1702517  
  8690.000000   1703260   1703970   1704554   1704986   1705266  
  8680.000000   1705397   1705387   1705284   1705213   1705398  
  8670.000000   1706103   1707567   1709850   1712804   1716035  
  8660.000000   1719021   1721247   1722379   1722371   1721496  
  8650.000000   1720273   1719323   1719185   1720176   1722312  
  8640.000000   1725330   1728775   1732131   1734943   1736925  
  8630.000000   1738012   1738359   1738272   1738110   1738190  
  8620.000000   1738725   1739798   1741373   1743343   1745557  
  8610.000000   1747889   1750221   1752465   1754526   1756317  
  8600.000000   1757762   1758802   1759425   1759647   1759534  
  8590.000000   1759143   1758539   1757787   1756998   1756347  
  8580.000000   1756050   1756354   1757430   1759334   1761908  
  8570.000000   1764846   1767755   1770293   1772270   1773690  
  8560.000000   1774725   1775578   1776383   1777109   1777609  
  8550.000000   1777684   1777237   1776349   1775309   1774520  
  8540.000000   1774330   1774916   1776186   1777862   1779570  
  8530.000000   1781025   1782124   1782959   1783738   1784645  
  8520.000000   1785754   1786971   1788119   1789008   1789578  
  8510.000000   1789898   1790150   1790529   1791152   1792032  
  8500.000000   1793087   1794248   1795508   1796976   1798804  
  8490.000000   1801098   1803805   1806676   1809313   1811292  
  8480.000000   1812325   1812363   1811635   1810550   1809562  
  8470.000000   1809006   1809011   1809505   1810275   1811113  
  8460.000000   1811882   1812581   1813281   1814093   1815077  
  8450.000000   1816226   1817461   1818676   1819777   1820702  
  8440.000000   1821439   1821987   1822358   1822562   1822621  
  8430.000000   1822594   1822562   1822634   1822893   1823384  
  8420.000000   1824071   1824868   1825658   1826358   1826932  
  8410.000000   1827400   1827798   1828141   1828391   1828460  
  8400.000000   1828248   1827698   1826851   1825859   1824940  
  8390.000000   1824326   1824161   1824481   1825178   1826078  
  8380.000000   1826974   1827726   1828263   1828600   1828781  
  8370.000000   1828841   1828773   1828526   1828039   1827270  
  8360.000000   1826240   1825006   1823658   1822264   1820857  
  8350.000000   1819437   1817986   1816521   1815099   1813842  
  8340.000000   1812889   1812358   1812281   1812600   1813176  
  8330.000000   1813829   1814397   1814758   1814865   1814713  
  8320.000000   1814335   1813756   1813018   1812176   1811331  
  8310.000000   1810614   1810166   1810102   1810442   1811117  
  8300.000000   1811951   1812752   1813350   1813686   1813798  
  8290.000000   1813802   1813804   1813839   1813826   1813582  
  8280.000000   1812894   1811613   1809738   1807429   1804970  
  8270.000000   1802673   1800786   1799413   1798496   1797854  
  8260.000000   1797262   1796545   1795623   1794539   1793412  
  8250.000000   1792423   1791744   1791526   1791849   1792715  
  8240.000000   1794031   1795606   1797172   1798410   1799017  
  8230.000000   1798770   1797595   1795605   1793081   1790397  
  8220.000000   1787921   1785919   1784494   1783581   1782970  
  8210.000000   1782396   1781606   1780461   1778942   1777178  
  8200.000000   1775365   1773745   1772514   1771795   1771590  
  8190.000000   1771776   1772133   1772388   1772288   1771655  
  8180.000000   1770431   1768680   1766565   1764287   1762040  
  8170.000000   1759958   1758103   1756476   1755046   1753789  
  8160.000000   1752688   1751749   1750964   1750318   1749760  
  8150.000000   1749225   1748652   1747995   1747243   1746390  
  8140.000000   1745444   1744386   1743197   1741854   1740364  
  8130.000000   1738784   1737215   1735786   1734612   1733760  
  8120.000000   1733221   1732908   1732678   1732363   1731809  
  8110.000000   1730906   1729608   1727940   1726003   1723952  
  8100.000000   1721990   1720319   1719100   1718400   1718155  
  8090.000000   1718173   1718179   1717899   1717161   1715945  
  8080.000000   1714410   1712816   1711444   1710469   1709920  
  8070.000000   1709658   1709466   1709129   1708547   1707760  
  8060.000000   1706930   1706267   1705926   1705952   1706248  
  8050.000000   1706643   1706959   1707085   1707015   1706819  
  8040.000000   1706590   1706374   1706135   1705756   1705099  
  8030.000000   1704058   1702629   1700913   1699089   1697361  
  8020.000000   1695878   1694720   1693872   1693273   1692845  
  8010.000000   1692531   1692300   1692127   1691975   1691760  
  8000.000000   1691378   1690709   1689686   1688309   1686684  
  7990.000000   1684979   1683409   1682154   1681328   1680945  
  7980.000000   1680930   1681150   1681461   1681743   1681933  
  7970.000000   1682012   1682002   1681926   1681809   1681649  
  7960.000000   1681449   1681207   1680948   1680708   1680536  
  7950.000000   1680473   1680535   1680707   1680944   1681191  
  7940.000000   1681397   1681534   1681598   1681599   1681549  
  7930.000000   1681442   1681261   1680982   1680601   1680145  
  7920.000000   1679680   1679296   1679074   1679058   1679222  
  7910.000000   1679484   1679726   1679843   1679788   1679588  
  7900.000000   1679343   1679174   1679185   1679393   1679733  
  7890.000000   1680053   1680185   1679992   1679434   1678582  
  7880.000000   1677607   1676733   1676170   1676069   1676473  
  7870.000000   1677330   1678501   1679805   1681059   1682103  
  7860.000000   1682823   1683161   1683114   1682735   1682119  
  7850.000000   1681395   1680707   1680185   1679917   1679937  
  7840.000000   1680205   1680630   1681078   1681429   1681584  
  7830.000000   1681510   1681223   1680791   1680298   1679820  
  7820.000000   1679404   1679058   1678759   1678464   1678133  
  7810.000000   1677737   1677264   1676724   1676135   1675529  
  7800.000000   1674939   1674406   1673972   1673675   1673546  
  7790.000000   1673583   1673753   1673982   1674173   1674231  
  7780.000000   1674090   1673746   1673254   1672722   1672274  
  7770.000000   1672010   1671969   1672116   1672353   1672544  
  7760.000000   1672554   1672285   1671692   1670788   1669633  
  7750.000000   1668320   1666958   1665672   1664580   1663794  
  7740.000000   1663388   1663382   1663717   1664254   1664798  
  7730.000000   1665136   1665101   1664614   1663723   1662580  
  7720.000000   1661407   1660430   1659814   1659631   1659842  
  7710.000000   1660331   1660940   1661525   1661973   1662230  
  7700.000000   1662277   1662127   1661798   1661303   1660654  
  7690.000000   1659859   1658945   1657946   1656920   1655929  
  7680.000000   1655032   1654270   1653653   1653169   1652777  
  7670.000000   1652438   1652121   1651829   1651595   1651479  
  7660.000000   1651542   1651817   1652288   1652876   1653465  
  7650.000000   1653922   1654156   1654133   1653900   1653551  
  7640.000000   1653208   1652956   1652826   1652785   1652763  
  7630.000000   1652693   1652554   1652395   1652309   1652418  
  7620.000000   1652796   1653457   1654320   1655244   1656060  
  7610.000000   1656619   1656841   1656715   1656303   1655701  
  7600.000000   1655016   1654341   1653741   1653261   1652931  
  7590.000000   1652776   1652810   1653037   1653436   1653965  
  7580.000000   1654554   1655127   1655610   1655944   1656105  
  7570.000000   1656097   1655962   1655761   1655570   1655455  
  7560.000000   1655471   1655640   1655958   1656388   1656881  
  7550.000000   1657378   1657834   1658228   1658568   1658892  
  7540.000000   1659259   1659730   1660362   1661180   1662183  
  7530.000000   1663314   1664494   1665615   1666581   1667324  
  7520.000000   1667833   1668155   1668394   1668683   1669146  
  7510.000000   1669867   1670870   1672115   1673522   1674990  
  7500.000000   1676430   1677772   1678981   1680039   1680943  
  7490.000000   1681689   1682289   1682762   1683160   1683550  
  7480.000000   1684020   1684650   1685497   1686587   1687910  
  7470.000000   1689435   1691117   1692906   1694756   1696609  
  7460.000000   1698405   1700071   1701548   1702798   1703838  
  7450.000000   1704731   1705581   1706501   1707586   1708877  
  7440.000000   1710357   1711963   1713606   1715213   1716744  
  7430.000000   1718196   1719604   1721010   1722456   1723957  
  7420.000000   1725510   1727085   1728655   1730184   1731660  
  7410.000000   1733084   1734481   1735897   1737393   1739032  
  7400.000000   1740858   1742887   1745091   1747407   1749748  
  7390.000000   1752029   1754191   1756210   1758098   1759884  
  7380.000000   1761592   1763235   1764798   1766266   1767629  
  7370.000000   1768906   1770142   1771396   1772722   1774141  
  7360.000000   1775628   1777118   1778523   1779760   1780778  
  7350.000000   1781572   1782191   1782729   1783312   1784069  
  7340.000000   1785111   1786516   1788305   1790449   1792857  
  7330.000000   1795397   1797917   1800281   1802395   1804221  
  7320.000000   1805787   1807148   1808370   1809491   1810528  
  7310.000000   1811470   1812312   1813075   1813819   1814637  
  7300.000000   1815620   1816843   1818315   1819994   1821779  
  7290.000000   1823553   1825207   1826678   1827950   1829052  
  7280.000000   1830044   1830987   1831940   1832931   1833972  
  7270.000000   1835047   1836134   1837204   1838244   1839255  
  7260.000000   1840258   1841286   1842382   1843573   1844872  
  7250.000000   1846265   1847734   1849250   1850811   1852427  
  7240.000000   1854137   1855975   1857971   1860111   1862365  
  7230.000000   1864665   1866958   1869183   1871324   1873364  
  7220.000000   1875324   1877215   1879078   1880957   1882936  
  7210.000000   1885112   1887594   1890463   1893749   1897402  
  7200.000000   1901307   1905300   1909227   1912968   1916488  
  7190.000000   1919797   1922969   1926071   1929163   1932263  
  7180.000000   1935371   1938473   1941575   1944695   1947880  
  7170.000000   1951161   1954566   1958076   1961661   1965260  
  7160.000000   1968830   1972335   1975779   1979181   1982601  
  7150.000000   1986115   1989832   1993858   1998304   2003216  
  7140.000000   2008590   2014309   2020204   2026052   2031676  
  7130.000000   2036952   2041880   2046536   2051088   2055699  
  7120.000000   2060520   2065614   2070992   2076593   2082346  
  7110.000000   2088176   2094038   2099904   2105768   2111627  
  7100.000000   2117491   2123371   2129294   2135278   2141338  
  7090.000000   2147455   2153590   2159681   2165682   2171578  
  7080.000000   2177410   2183258   2189224   2195373   2201714  
  7070.000000   2208169   2214615   2220914   2226982   2232811  
  7060.000000   2238485   2244140   2249925   2255951   2262254  
  7050.000000   2268803   2275505   2282247   2288919   2295435  
  7040.000000   2301736   2307786   2313568   2319083   2324354  
  7030.000000   2329428   2334373   2339270   2344196   2349218  
  7020.000000   2354365   2359649   2365038   2370496   2375955  
  7010.000000   2381365   2386666   2391835   2396863   2401782  
  7000.000000   2406629   2411440   2416216   2420923   2425479  
  6990.000000   2429799   2433817   2437539   2441038   2444463  
  6980.000000   2447964   2451678   2455640   2459818   2464086  
  6970.000000   2468314   2472371   2476199   2479778   2483140  
  6960.000000   2486305   2489288   2492066   2494617   2496926  
  6950.000000   2499025   2500969   2502845   2504723   2506658  
  6940.000000   2508659   2510722   2512817   2514937   2517064  
  6930.000000   2519198   2521319   2523399   2525392   2527260  
  6920.000000   2528978   2530555   2532022   2533425   2534804  
  6910.000000   2536188   2537582   2538992   2540421   2541890  
  6900.000000   2543411   2545000   2546637   2548282   2549871  
  6890.000000   2551348   2552676   2553858   2554921   2555911  
  6880.000000   2556857   2557769   2558632   2559428   2560146  
  6870.000000   2560806   2561446   2562118   2562855   2563669  
  6860.000000   2564534   2565413   2566262   2567060   2567804  
  6850.000000   2568516   2569216   2569923   2570643   2571374  
  6840.000000   2572110   2572849   2573582   2574301   2574985  
  6830.000000   2575616   2576176   2576674   2577137   2577618  
  6820.000000   2578158   2578778   2579442   2580080   2580594  
  6810.000000   2580913   2581012   2580937   2580787   2580680  
  6800.000000   2580703   2580888   2581195   2581540   2581827  
  6790.000000   2581994   2582027   2581964   2581864   2581792  
  6780.000000   2581782   2581842   2581951   2582081   2582205  
  6770.000000   2582310   2582388   2582435   2582446   2582416  
  6760.000000   2582344   2582237   2582112   2581986   2581877  
  6750.000000   2581785   2581709   2581640   2581581   2581543  
  6740.000000   2581548   2581619   2581767   2581987   2582258  
  6730.000000   2582553   2582851   2583145   2583444   2583762  
  6720.000000   2584103   2584455   2584788   2585061   2585236  
  6710.000000   2585294   2585234   2585083   2584874   2584652  
  6700.000000   2584453   2584312   2584246   2584268   2584357  
  6690.000000   2584481   2584573   2584565   2584385   2583996  
  6680.000000   2583394   2582621   2581740   2580825   2579924  
  6670.000000   2579064   2578236   2577425   2576615   2575813  
  6660.000000   2575038   2574321   2573673   2573095   2572554  
  6650.000000   2572013   2571431   2570786   2570070   2569292  
  6640.000000   2568458   2567575   2566635   2565635   2564572  
  6630.000000   2563460   2562317   2561168   2560025   2558892  
  6620.000000   2557755   2556603   2555421   2554212   2552980  
  6610.000000   2551730   2550461   2549159   2547808   2546399  
  6600.000000   2544940   2543460   2542001   2540602   2539281  
  6590.000000   2538030   2536818   2535604   2534359   2533077  
  6580.000000   2531776   2530489   2529243   2528048   2526888  
  6570.000000   2525728   2524529   2523260   2521911   2520490  
  6560.000000   2519018   2517523   2516027   2514549   2513101  
  6550.000000   2511699   2510349   2509056   2507814   2506606  
  6540.000000   2505409   2504197   2502953   2501665   2500337  
  6530.000000   2498973   2497584   2496175   2494759   2493349  
  6520.000000   2491971   2490651   2489415   2488276   2487227  
  6510.000000   2486244   2485290   2484331   2483347   2482335  
  6500.000000   2481310   2480289   2479281   2478281   2477268  
  6490.000000   2476211   2475091   2473899   2472651   2471378  
  6480.000000   2470118   2468907   2467768   2466707   2465712  
  6470.000000   2464761   2463820   2462858   2461847   2460776  
  6460.000000   2459650   2458487   2457316   2456160   2455030  
  6450.000000   2453910   2452773   2451582   2450320   2448990  
  6440.000000   2447637   2446320   2445107   2444043   2443144  
  6430.000000   2442384   2441724   2441115   2440534   2439979  
  6420.000000   2439476   2439053   2438733   2438513   2438375  
  6410.000000   2438284   2438208   2438124   2438025   2437913  
  6400.000000   2437796   2437678   2437565   2437461   2437373  
  6390.000000   2437309   2437272   2437258   2437248   2437216  
  6380.000000   2437134   2436986   2436769   2436503   2436215  
  6370.000000   2435931   2435662   2435404   2435142   2434860  
  6360.000000   2434552   2434228   2433904   2433600   2433320  
  6350.000000   2433054   2432777   2432463   2432091   2431658  
  6340.000000   2431176   2430667   2430151   2429646   2429158  
  6330.000000   2428689   2428235   2427795   2427358   2426914  
  6320.000000   2426441   2425916   2425314   2424624   2423848  
  6310.000000   2423005   2422119   2421219   2420315   2419407  
  6300.000000   2418482   2417526   2416525   2415480   2414395  
  6290.000000   2413283   2412150   2411006   2409857   2408712  
  6280.000000   2407579   2406470   2405385   2404317   2403245  
  6270.000000   2402145   2400993   2399785   2398532   2397263  
  6260.000000   2396006   2394787   2393608   2392456   2391307  
  6250.000000   2390139   2388940   2387715   2386473   2385230  
  6240.000000   2383988   2382746   2381494   2380228   2378948  
  6230.000000   2377663   2376381   2375107   2373835   2372555  
  6220.000000   2371261   2369957   2368662   2367407   2366221  
  6210.000000   2365117   2364089   2363107   2362131   2361126  
  6200.000000   2360076   2358982   2357865   2356747   2355647  
  6190.000000   2354573   2353526   2352506   2351518   2350568  
  6180.000000   2349664   2348801   2347965   2347134   2346290  
  6170.000000   2345424   2344548   2343681   2342846   2342054  
  6160.000000   2341295   2340545   2339779   2338986   2338176  
  6150.000000   2337381   2336640   2335975   2335385   2334836  
  6140.000000   2334282   2333679   2333006   2332272   2331509  
  6130.000000   2330754   2330034   2329350   2328690   2328031  
  6120.000000   2327366   2326702   2326065   2325484   2324982  
  6110.000000   2324556   2324194   2323869   2323569   2323290  
  6100.000000   2323054   2322885   2322808   2322827   2322932  
  6090.000000   2323093   2323285   2323479   2323665   2323833  
  6080.000000   2323987   2324120   2324241   2324351   2324476  
  6070.000000   2324647   2324912   2325306   2325865   2326584  
  6060.000000   2327449   2328416   2329447   2330498   2331553  
  6050.000000   2332601   2333657   2334733   2335860   2337055  
  6040.000000   2338354   2339769   2341323   2343010   2344826  
  6030.000000   2346737   2348720   2350740   2352788   2354857  
  6020.000000   2356969   2359136   2361382   2363710   2366122  
  6010.000000   2368598   2371128   2373684   2376255   2378815  
  6000.000000   2381357   2383861   2386334   2388783   2391242  
  5990.000000   2393744   2396341   2399060   2401929   2404944  
  5980.000000   2408099   2411369   2414742   2418201   2421740  
  5970.000000   2425340   2428989   2432649   2436297   2439902  
  5960.000000   2443461   2446976   2450476   2453984   2457531  
  5950.000000   2461132   2464799   2468534   2472344   2476238  
  5940.000000   2480224   2484306   2488474   2492712   2496987  
  5930.000000   2501272   2505539   2509773   2513954   2518062  
  5920.000000   2522060   2525902   2529534   2532916   2536025  
  5910.000000   2538876   2541502   2543963   2546314   2548615  
  5900.000000   2550905   2553230   2555614   2558098   2560693  
  5890.000000   2563407   2566205   2569042   2571842   2574540  
  5880.000000   2577080   2579439   2581617   2583635   2585513  
  5870.000000   2587263   2588889   2590391   2591783   2593097  
  5860.000000   2594388   2595720   2597154   2598731   2600465  
  5850.000000   2602349   2604357   2606458   2608628   2610847  
  5840.000000   2613107   2615401   2617731   2620099   2622516  
  5830.000000   2624988   2627523   2630105   2632717   2635317  
  5820.000000   2637873   2640356   2642767   2645126   2647469  
  5810.000000   2649837   2652247   2654706   2657188   2659678  
  5800.000000   2662151   2664628   2667116   2669663   2672264  
  5790.000000   2674920   2677556   2680101   2682425   2684428  
  5780.000000   2685983   2687015   2687443   2687249   2686428  
  5770.000000   2685049   2683199   2681029   2678675   2676293  
  5760.000000   2673972   2671783   2669725   2667797   2665961  
  5750.000000   2664212   2662533   2660931   2659396   2657919  
  5740.000000   2656476   2655051   2653639   2652247   2650903  
  5730.000000   2649629   2648443   2647331   2646273   2645228  
  5720.000000   2644169   2643077   2641955   2640810   2639656  
  5710.000000   2638494   2637325   2636148   2634976   2633835  
  5700.000000   2632763   2631794   2630947   2630219   2629582  
  5690.000000   2629006   2628452   2627913   2627381   2626870  
  5680.000000   2626375   2625884   2625355   2624741   2623983  
  5670.000000   2623040   2621871   2620460   2618791   2616863  
  5660.000000   2614681   2612278   2609702   2607035   2604360  
  5650.000000   2601760   2599285   2596954   2594747   2592629  
  5640.000000   2590562   2588525   2586518   2584555   2582655  
  5630.000000   2580828   2579079   2577395   2575779   2574225  
  5620.000000   2572750   2571361   2570070   2568864   2567733  
  5610.000000   2566650   2565602   2564579   2563593   2562649  
  5600.000000   2561760   2560921   2560123   2559351   2558598  
  5590.000000   2557862   2557156   2556487   2555860   2555261  
  5580.000000   2554668   2554051   2553391   2552680   2551927  
  5570.000000   2551145   2550346   2549531   2548687   2547804  
  5560.000000   2546872   2545899   2544904   2543915   2542957  
  5550.000000   2542043   2541169   2540323   2539487   2538648  
  5540.000000   2537796   2536929   2536043   2535137   2534209  
  5530.000000   2533266   2532325   2531411   2530551   2529761  
  5520.000000   2529037   2528354   2527671   2526947   2526151  
  5510.000000   2525280   2524348   2523382   2522405   2521431  
  5500.000000   2520457   2519475   2518473   2517455   2516427  
  5490.000000   2515404   2514384   2513361   2512309   2511207  
  5480.000000   2510031   2508781   2507461   2506092   2504684  
  5470.000000   2503245   2501768   2500251   2498686   2497083  
  5460.000000   2495450   2493794   2492114   2490398   2488629  
  5450.000000   2486802   2484927   2483038   2481184   2479411  
  5440.000000   2477747   2476193   2474734   2473341   2471996  
  5430.000000   2470689   2469427   2468207   2467028   2465860  
  5420.000000   2464685   2463483   2462275   2461097   2460027  
  5410.000000   2459120   2458423   2457925   2457599   2457384  
  5400.000000   2457249   2457166   2457154   2457226   2457422  
  5390.000000   2457740   2458191   2458750   2459424   2460206  
  5380.000000   2461133   2462215   2463483   2464914   2466505  
  5370.000000   2468203   2470007   2471888   2473886   2476002  
  5360.000000   2478297   2480764   2483453   2486348   2489508  
  5350.000000   2492938   2496727   2500888   2505501   2510541  
  5340.000000   2516047   2521953   2528290   2534999   2542132  
  5330.000000   2549639   2557577   2565889   2574629   2583748  
  5320.000000   2593338   2603391   2614043   2625299   2637289  
  5310.000000   2649974   2663433   2677580   2692468   2708019  
  5300.000000   2724318   2741332   2759185   2777871   2797512  
  5290.000000   2818069   2839589   2861943   2885075   2908793  
  5280.000000   2933029   2957663   2982749   3008313   3034509  
  5270.000000   3061392   3089017   3117272   3145991   3174925  
  5260.000000   3203864   3232675   3261326   3289877   3318382  
  5250.000000   3346877   3375259   3403389   3431006   3457954  
  5240.000000   3484057   3509355   3533858   3557753   3581089  
  5230.000000   3603998   3626401   3648281   3669434   3689799  
  5220.000000   3709215   3727741   3745360   3762266   3778517  
  5210.000000   3794298   3809577   3824394   3838565   3852032  
  5200.000000   3864604   3876308   3887090   3897108   3906384  
  5190.000000   3915074   3923147   3930672   3937552   3943834  
  5180.000000   3949449   3954490   3958929   3962864   3966248  
  5170.000000   3969133   3971449   3973251   3974503   3975305  
  5160.000000   3975652   3975635   3975215   3974426   3973192  
  5150.000000   3971536   3969416   3966899   3963991   3960774  
  5140.000000   3957250   3953473   3949423   3945141   3940617  
  5130.000000   3935906   3931010   3925977   3920795   3915484  
  5120.000000   3910021   3904428   3898709   3892909   3887055  
  5110.000000   3881191   3875332   3869498   3863688   3857916  
  5100.000000   3852193   3846542   3840976   3835508   3830129  
  5090.000000   3824825   3819574   3814361   3809179   3804031  
  5080.000000   3798917   3793839   3788779   3783722   3778641  
  5070.000000   3773522   3768353   3763140   3757879   3752574  
  5060.000000   3747206   3741764   3736225   3730586   3724843  
  5050.000000   3719015   3713105   3707123   3701053   3694884  
  5040.000000   3688587   3682164   3675619   3668990   3662314  
  5030.000000   3655639   3648988   3642372   3635777   3629184  
  5020.000000   3622571   3615928   3609263   3602591   3595948  
  5010.000000   3589359   3582863   3576478   3570235   3564139  
  5000.000000   3558216   3552462   3546897   3541509   3536317  
  4990.000000   3531306   3526502   3521891   3517503   3513324  
  4980.000000   3509386   3505669   3502207   3498982   3496038  
  4970.000000   3493360   3490994   3488921   3487176   3485721  
  4960.000000   3484580   3483709   3483137   3482837   3482861  
  4950.000000   3483197   3483905   3484967   3486429   3488253  
  4940.000000   3490465   3493017   3495936   3499183   3502802  
  4930.000000   3506766   3511126   3515858   3521004   3526524  
  4920.000000   3532444   3538708   3545327   3552249   3559491  
  4910.000000   3567023   3574878   3583046   3591555   3600383  
  4900.000000   3609526   3618933   3628559   3638338   3648209  
  4890.000000   3658115   3667991   3677791   3687441   3696896  
  4880.000000   3706076   3714946   3723433   3731523   3739149  
  4870.000000   3746308   3752928   3759005   3764469   3769336  
  4860.000000   3773560   3777195   3780232   3782747   3784745  
  4850.000000   3786303   3787425   3788182   3788582   3788701  
  4840.000000   3788560   3788237   3787764   3787217   3786635  
  4830.000000   3786088   3785612   3785257   3785038   3784964  
  4820.000000   3785014   3785161   3785375   3785635   3785942  
  4810.000000   3786306   3786761   3787327   3788029   3788859  
  4800.000000   3789811   3790856   3791982   3793169   3794429  
  4790.000000   3795763   3797190   3798711   3800326   3802018  
  4780.000000   3803774   3805574   3807413   3809280   3811181  
  4770.000000   3813108   3815059   3817017   3818967   3820891  
  4760.000000   3822776   3824617   3826413   3828173   3829904  
  4750.000000   3831614   3833304   3834974   3836615   3838220  
  4740.000000   3839780   3841294   3842763   3844201   3845622  
  4730.000000   3847040   3848464   3849893   3851315   3852706  
  4720.000000   3854046   3855315   3856519   3857670   3858815  
  4710.000000   3860000   3861294   3862745   3864403   3866288  
  4700.000000   3868415   3870767   3873335   3876088   3879012  
  4690.000000   3882082   3885289   3888611   3892040   3895545  
  4680.000000   3899105   3902675   3906231   3909730   3913162  
  4670.000000   3916505   3919777   3922983   3926159   3929324  
  4660.000000   3932516   3935759   3939092   3942545   3946153  
  4650.000000   3949942   3953930   3958121   3962501   3967042  
  4640.000000   3971704   3976444   3981215   3985977   3990685  
  4630.000000   3995310   3999814   4004174   4008360   4012358  
  4620.000000   4016137   4019683   4022953   4025928   4028562  
  4610.000000   4030850   4032777   4034391   4035726   4036875  
  4600.000000   4037894   4038871   4039825   4040798   4041758  
  4590.000000   4042700   4043563   4044319   4044900   4045272  
  4580.000000   4045374   4045185   4044676   4043869   4042782  
  4570.000000   4041484   4040026   4038480   4036882   4035269  
  4560.000000   4033635   4031984   4030287   4028540   4026717  
  4550.000000   4024817   4022820   4020725   4018522   4016218  
  4540.000000   4013823   4011363   4008871   4006382   4003929  
  4530.000000   4001529   3999195   3996916   3994693   3992505  
  4520.000000   3990361   3988250   3986200   3984208   3982323  
  4510.000000   3980548   3978950   3977543   3976416   3975592  
  4500.000000   3975173   3975175   3975694   3976727   3978351  
  4490.000000   3980542   3983368   3986790   3990872   3995568  
  4480.000000   4000938   4006932   4013606   4020907   4028888  
  4470.000000   4037489   4046747   4056587   4067023   4077962  
  4460.000000   4089399   4101240   4113470   4126002   4138818  
  4450.000000   4151839   4165049   4178390   4191859   4205431  
  4440.000000   4219117   4232915   4246829   4260850   4274948  
  4430.000000   4289097   4303233   4317324   4331291   4345104  
  4420.000000   4358675   4371976   4384906   4397432   4409449  
  4410.000000   4420925   4431762   4441942   4451393   4460129  
  4400.000000   4468121   4475433   4482089   4488200   4493829  
  4390.000000   4499113   4504125   4508998   4513788   4518598  
  4380.000000   4523448   4528396   4533424   4538549   4543736  
  4370.000000   4548988   4554277   4559603   4564944   4570292  
  4360.000000   4575611   4580884   4586063   4591142   4596073  
  4350.000000   4600883   4605525   4610058   4614441   4618760  
  4340.000000   4622992   4627216   4631355   4635348   4638911  
  4330.000000   4641704   4643201   4642910   4640376   4635400  
  4320.000000   4628055   4618770   4608210   4597202   4586520  
  4310.000000   4576804   4568414   4561483   4555908   4551491  
  4300.000000   4547988   4545199   4542992   4541279   4540034  
  4290.000000   4539206   4538797   4538748   4539075   4539738  
  4280.000000   4540763   4542118   4543792   4545734   4547886  
  4270.000000   4550195   4552598   4555043   4557429   4559618  
  4260.000000   4561384   4562458   4562537   4561383   4558856  
  4250.000000   4554999   4550004   4544222   4538040   4531868  
  4240.000000   4526001   4520651   4515867   4511632   4507831  
  4230.000000   4504353   4501069   4497882   4494719   4491527  
  4220.000000   4488301   4485041   4481816   4478680   4475757  
  4210.000000   4473118   4470874   4469055   4467701   4466777  
  4200.000000   4466263   4466092   4466232   4466619   4467232  
  4190.000000   4468014   4468953   4469991   4471121   4472285  
  4180.000000   4473490   4474693   4475920   4477153   4478447  
  4170.000000   4479813   4481332   4483041   4485033   4487347  
  4160.000000   4490063   4493195   4496794   4500838   4505353  
  4150.000000   4510292   4515669   4521425   4527572   4534046  
  4140.000000   4540873   4547999   4555469   4563245   4571393  
  4130.000000   4579885   4588792   4598094   4607860   4618078  
  4120.000000   4628823   4640088   4651946   4664389   4677469  
  4110.000000   4691156   4705467   4720339   4735748   4751596  
  4100.000000   4767824   4784322   4801026   4817851   4834756  
  4090.000000   4851703   4868672   4885649   4902612   4919556  
  4080.000000   4936445   4953283   4970028   4986684   5003172  
  4070.000000   5019455   5035394   5050914   5065855   5080174  
  4060.000000   5093776   5106703   5118929   5130548   5141545  
  4050.000000   5152022   5161956   5171456   5180498   5189186  
  4040.000000   5197464   5205382   5212818   5219768   5226091  
  4030.000000   5231800   5236798   5241139   5244770   5247750  
  4020.000000   5250016   5251637   5252619   5253060   5252961  
  4010.000000   5252461   5251632   5250492   5248847   5246721  
  4000.000000   5244341  
##END= 
