##TITLE= Sample 013 By ssteindl date Montag, November 26 2018
##JCAMP-DX= 4.24
##DATA TYPE= INFRARED SPECTRUM
##ORIGIN= Exported PE Spectrum Data File
##OWNER= Sandra Steindl
##DATE= 18/11/26
##TIME= 12:20:25.00
##SPECTROMETER/DATA SYSTEM= PERKIN-ELMER Frontier FT-IR/NIR IR
##INSTRUMENT PARAMETERS=
  APODIZATION=stark
  DETECTOR=INGAAS
##RESOLUTION= 16.000000
##DELTAX= -2.000000
##XUNITS= 1/CM
##YUNITS= A
##XFACTOR= 1.00
##YFACTOR= 0.00000011920928955078
##FIRSTX= 10000.00
##LASTX= 4000.00
##NPOINTS= 3001
##FIRSTY= 0.266421
##MAXY= 0.615690
##MINY= 0.217530
##XYDATA= (X++(Y..Y))
 10000.000000   2234899   2232061   2228743   2224522   2219912  
  9990.000000   2215973   2213592   2213064   2214247   2216394  
  9980.000000   2218259   2218418   2216010   2211036   2204465  
  9970.000000   2197893   2193087   2191318   2192992   2197543  
  9960.000000   2203773   2210307   2216068   2220500   2223498  
  9950.000000   2225258   2226023   2226052   2225646   2225230  
  9940.000000   2225367   2226561   2229037   2232469   2235952  
  9930.000000   2238220   2238056   2234855   2228889   2221374  
  9920.000000   2214014   2208464   2205669   2205656   2207546  
  9910.000000   2210073   2212048   2212813   2212333   2211029  
  9900.000000   2209471   2208030   2206772   2205436   2203660  
  9890.000000   2201142   2197817   2193876   2189707   2185823  
  9880.000000   2182725   2180910   2180743   2182426   2185823  
  9870.000000   2190355   2195032   2198582   2199848   2198122  
  9860.000000   2193436   2186596   2178934   2171941   2166807  
  9850.000000   2164152   2163972   2165738   2168705   2172044  
  9840.000000   2175040   2177033   2177445   2175815   2171911  
  9830.000000   2165966   2158743   2151579   2146075   2143705  
  9820.000000   2145344   2150949   2159520   2169336   2178376  
  9810.000000   2184781   2187259   2185279   2179204   2170092  
  9800.000000   2159577   2149439   2141355   2136486   2135284  
  9790.000000   2137389   2141723   2146875   2151464   2154664  
  9780.000000   2156331   2157025   2157619   2158879   2161110  
  9770.000000   2163997   2166824   2168765   2169312   2168454  
  9760.000000   2166690   2164789   2163480   2163188   2163911  
  9750.000000   2165300   2166769   2167722   2167628   2166159  
  9740.000000   2163230   2159075   2154301   2149818   2146684  
  9730.000000   2145771   2147431   2151233   2155981   2160034  
  9720.000000   2161896   2160795   2157065   2152091   2147815  
  9710.000000   2146007   2147558   2152173   2158509   2164768  
  9700.000000   2169383   2171572   2171480   2169942   2167975  
  9690.000000   2166323   2165204   2164363   2163359   2161836  
  9680.000000   2159714   2157162   2154419   2151699   2149025  
  9670.000000   2146466   2144092   2142265   2141380   2141816  
  9660.000000   2143590   2146257   2148986   2150728   2150648  
  9650.000000   2148269   2143690   2137347   2129884   2121827  
  9640.000000   2113580   2105466   2097952   2091776   2087850  
  9630.000000   2087026   2089641   2095337   2102963   2110974  
  9620.000000   2117839   2122545   2124828   2125084   2124140  
  9610.000000   2122766   2121489   2120352   2119140   2117501  
  9600.000000   2115253   2112426   2109240   2105967   2102770  
  9590.000000   2099756   2096941   2094455   2092476   2091270  
  9580.000000   2091013   2091702   2093128   2094899   2096627  
  9570.000000   2098005   2098915   2099357   2099371   2098929  
  9560.000000   2097934   2096319   2094191   2091942   2090198  
  9550.000000   2089623   2090618   2093081   2096364   2099436  
  9540.000000   2101242   2101055   2098703   2094602   2089552  
  9530.000000   2084455   2080060   2076811   2074905   2074345  
  9520.000000   2075059   2076877   2079448   2082223   2084443  
  9510.000000   2085411   2084688   2082398   2079230   2076292  
  9500.000000   2074722   2075243   2077869   2081816   2085766  
  9490.000000   2088298   2088397   2085771   2080896   2074798  
  9480.000000   2068628   2063339   2059426   2056938   2055596  
  9470.000000   2054998   2054805   2054809   2054918   2055063  
  9460.000000   2055106   2054839   2054032   2052556   2050482  
  9450.000000   2048071   2045756   2043972   2043075   2043217  
  9440.000000   2044321   2046083   2048057   2049742   2050718  
  9430.000000   2050722   2049701   2047800   2045304   2042567  
  9420.000000   2039935   2037695   2036066   2035172   2035054  
  9410.000000   2035647   2036758   2038100   2039282   2039938  
  9400.000000   2039762   2038663   2036808   2034616   2032678  
  9390.000000   2031496   2031357   2032133   2033372   2034393  
  9380.000000   2034533   2033349   2030776   2027209   2023396  
  9370.000000   2020278   2018664   2019050   2021436   2025401  
  9360.000000   2030170   2034843   2038555   2040696   2041025  
  9350.000000   2039703   2037187   2034048   2030787   2027691  
  9340.000000   2024821   2022042   2019170   2016066   2012742  
  9330.000000   2009376   2006215   2003507   2001344   1999693  
  9320.000000   1998388   1997290   1996350   1995676   1995488  
  9310.000000   1995977   1997204   1998988   2000973   2002653  
  9300.000000   2003591   2003459   2002221   2000035   1997277  
  9290.000000   1994353   1991676   1989567   1988246   1987843  
  9280.000000   1988354   1989715   1991749   1994258   1997003  
  9270.000000   1999792   2002478   2004972   2007186   2008977  
  9260.000000   2010126   2010358   2009473   2007409   2004386  
  9250.000000   2000850   1997433   1994709   1993013   1992325  
  9240.000000   1992267   1992299   1991880   1990752   1989011  
  9230.000000   1987180   1985968   1986053   1987762   1990981  
  9220.000000   1995167   1999491   2003075   2005192   2005508  
  9210.000000   2004073   2001304   1997771   1994050   1990566  
  9200.000000   1987533   1984980   1982832   1981019   1979553  
  9190.000000   1978555   1978168   1978491   1979442   1980779  
  9180.000000   1982111   1983036   1983282   1982810   1981887  
  9170.000000   1980951   1980481   1980783   1981895   1983555  
  9160.000000   1985282   1986553   1986977   1986437   1985112  
  9150.000000   1983397   1981761   1980566   1979968   1979875  
  9140.000000   1980013   1980027   1979594   1978546   1976904  
  9130.000000   1974932   1973022   1971638   1971132   1971680  
  9120.000000   1973193   1975319   1977517   1979194   1979867  
  9110.000000   1979272   1977394   1974488   1970992   1967413  
  9100.000000   1964208   1961715   1960140   1959495   1959599  
  9090.000000   1960092   1960487   1960269   1958994   1956487  
  9080.000000   1952953   1948972   1945361   1942926   1942230  
  9070.000000   1943335   1945784   1948708   1951162   1952399  
  9060.000000   1952122   1950562   1948364   1946326   1945094  
  9050.000000   1944991   1945994   1947794   1949972   1952126  
  9040.000000   1954007   1955462   1956392   1956704   1956316  
  9030.000000   1955206   1953448   1951288   1949122   1947407  
  9020.000000   1946516   1946655   1947790   1949703   1952009  
  9010.000000   1954308   1956240   1957553   1958114   1957879  
  9000.000000   1956931   1955410   1953549   1951587   1949769  
  8990.000000   1948269   1947164   1946454   1946066   1945967  
  8980.000000   1946151   1946707   1947721   1949257   1951246  
  8970.000000   1953465   1955536   1957032   1957581   1956971  
  8960.000000   1955206   1952520   1949340   1946179   1943517  
  8950.000000   1941677   1940753   1940575   1940734   1940688  
  8940.000000   1939904   1938045   1935102   1931435   1927678  
  8930.000000   1924561   1922677   1922284   1923248   1925077  
  8920.000000   1927149   1928889   1929975   1930364   1930235  
  8910.000000   1929845   1929388   1928925   1928445   1927933  
  8900.000000   1927507   1927372   1927772   1928826   1930416  
  8890.000000   1932173   1933550   1934068   1933500   1932019  
  8880.000000   1930144   1928547   1927786   1928091   1929270  
  8870.000000   1930806   1932068   1932563   1932117   1930904  
  8860.000000   1929336   1927874   1926835   1926310   1926156  
  8850.000000   1926126   1925993   1925662   1925192   1924743  
  8840.000000   1924491   1924532   1924837   1925256   1925569  
  8830.000000   1925547   1925035   1923982   1922475   1920716  
  8820.000000   1918979   1917562   1916710   1916577   1917180  
  8810.000000   1918388   1919966   1921604   1923008   1923933  
  8800.000000   1924233   1923857   1922856   1921383   1919692  
  8790.000000   1918110   1917008   1916715   1917437   1919175  
  8780.000000   1921674   1924465   1926972   1928674   1929261  
  8770.000000   1928717   1927325   1925556   1923925   1922828  
  8760.000000   1922446   1922735   1923493   1924467   1925449  
  8750.000000   1926337   1927118   1927840   1928542   1929228  
  8740.000000   1929842   1930293   1930504   1930422   1930072  
  8730.000000   1929528   1928927   1928419   1928149   1928223  
  8720.000000   1928656   1929394   1930278   1931139   1931828  
  8710.000000   1932312   1932678   1933113   1933824   1934917  
  8700.000000   1936333   1937791   1938890   1939197   1938448  
  8690.000000   1936625   1934018   1931134   1928553   1926772  
  8680.000000   1926063   1926465   1927796   1929765   1932053  
  8670.000000   1934400   1936631   1938638   1940362   1941733  
  8660.000000   1942717   1943280   1943473   1943358   1943068  
  8650.000000   1942724   1942467   1942423   1942699   1943410  
  8640.000000   1944634   1946442   1948794   1951587   1954601  
  8630.000000   1957591   1960315   1962603   1964381   1965651  
  8620.000000   1966462   1966829   1966730   1966092   1964874  
  8610.000000   1963114   1960977   1958758   1956803   1955444  
  8600.000000   1954865   1955104   1956011   1957358   1958875  
  8590.000000   1960356   1961676   1962794   1963712   1964431  
  8580.000000   1964955   1965267   1965386   1965345   1965239  
  8570.000000   1965164   1965221   1965453   1965859   1966377  
  8560.000000   1966930   1967444   1967888   1968272   1968649  
  8550.000000   1969092   1969677   1970476   1971542   1972905  
  8540.000000   1974544   1976406   1978384   1980362   1982215  
  8530.000000   1983862   1985272   1986466   1987482   1988338  
  8520.000000   1989010   1989400   1989382   1988833   1987723  
  8510.000000   1986139   1984295   1982488   1981019   1980141  
  8500.000000   1979972   1980522   1981675   1983283   1985180  
  8490.000000   1987240   1989361   1991465   1993474   1995285  
  8480.000000   1996791   1997870   1998456   1998507   1998056  
  8470.000000   1997178   1996013   1994732   1993512   1992542  
  8460.000000   1991971   1991918   1992399   1993354   1994630  
  8450.000000   1996032   1997352   1998421   1999141   1999492  
  8440.000000   1999520   1999297   1998914   1998441   1997964  
  8430.000000   1997562   1997331   1997365   1997728   1998427  
  8420.000000   1999375   2000432   2001416   2002193   2002705  
  8410.000000   2003017   2003278   2003663   2004295   2005179  
  8400.000000   2006202   2007144   2007762   2007863   2007386  
  8390.000000   2006407   2005124   2003792   2002664   2001933  
  8380.000000   2001684   2001911   2002512   2003349   2004258  
  8370.000000   2005113   2005828   2006393   2006841   2007237  
  8360.000000   2007636   2008035   2008374   2008516   2008318  
  8350.000000   2007664   2006543   2005056   2003400   2001832  
  8340.000000   2000574   1999782   1999483   1999629   2000108  
  8330.000000   2000822   2001681   2002619   2003548   2004343  
  8320.000000   2004846   2004885   2004352   2003239   2001687  
  8310.000000   1999932   1998248   1996847   1995824   1995152  
  8300.000000   1994706   1994365   1994045   1993774   1993615  
  8290.000000   1993658   1993903   1994271   1994607   1994742  
  8280.000000   1994572   1994071   1993313   1992383   1991349  
  8270.000000   1990192   1988825   1987157   1985173   1983008  
  8260.000000   1980935   1979304   1978410   1978404   1979203  
  8250.000000   1980525   1981951   1983071   1983596   1983420  
  8240.000000   1982633   1981432   1980061   1978708   1977492  
  8230.000000   1976432   1975505   1974659   1973855   1973083  
  8220.000000   1972348   1971686   1971118   1970692   1970438  
  8210.000000   1970397   1970573   1970931   1971372   1971754  
  8200.000000   1971907   1971684   1970994   1969839   1968309  
  8190.000000   1966570   1964817   1963218   1961873   1960776  
  8180.000000   1959828   1958851   1957654   1956070   1954023  
  8170.000000   1951550   1948803   1946031   1943514   1941512  
  8160.000000   1940198   1939634   1939761   1940422   1941402  
  8150.000000   1942461   1943373   1943942   1944031   1943561  
  8140.000000   1942547   1941080   1939346   1937571   1935993  
  8130.000000   1934789   1934028   1933670   1933563   1933532  
  8120.000000   1933406   1933107   1932632   1932052   1931444  
  8110.000000   1930843   1930221   1929481   1928519   1927257  
  8100.000000   1925701   1923936   1922109   1920384   1918881  
  8090.000000   1917668   1916740   1916061   1915583   1915272  
  8080.000000   1915099   1915027   1914988   1914879   1914586  
  8070.000000   1914014   1913139   1912019   1910803   1909678  
  8060.000000   1908818   1908329   1908201   1908328   1908520  
  8050.000000   1908600   1908436   1908006   1907378   1906690  
  8040.000000   1906071   1905589   1905205   1904783   1904126  
  8030.000000   1903056   1901486   1899464   1897175   1894885  
  8020.000000   1892861   1891285   1890204   1889526   1889068  
  8010.000000   1888630   1888071   1887349   1886520   1885699  
  8000.000000   1884998   1884488   1884176   1884016   1883958  
  7990.000000   1883960   1884019   1884130   1884288   1884424  
  7980.000000   1884434   1884179   1883556   1882534   1881194  
  7970.000000   1879719   1878346   1877316   1876796   1876859  
  7960.000000   1877463   1878488   1879751   1881054   1882201  
  7950.000000   1883020   1883378   1883199   1882482   1881310  
  7940.000000   1879847   1878308   1876916   1875848   1875190  
  7930.000000   1874926   1874939   1875061   1875116   1874966  
  7920.000000   1874541   1873839   1872923   1871883   1870830  
  7910.000000   1869863   1869070   1868512   1868231   1868241  
  7900.000000   1868531   1869071   1869808   1870684   1871624  
  7890.000000   1872554   1873397   1874075   1874533   1874722  
  7880.000000   1874640   1874299   1873753   1873057   1872277  
  7870.000000   1871467   1870671   1869944   1869341   1868947  
  7860.000000   1868836   1869087   1869711   1870673   1871853  
  7850.000000   1873090   1874202   1875033   1875482   1875505  
  7840.000000   1875115   1874342   1873236   1871839   1870210  
  7830.000000   1868424   1866597   1864874   1863405   1862323  
  7820.000000   1861693   1861519   1861722   1862189   1862786  
  7810.000000   1863403   1863961   1864419   1864763   1864982  
  7800.000000   1865074   1865025   1864836   1864509   1864072  
  7790.000000   1863560   1863019   1862489   1861998   1861565  
  7780.000000   1861182   1860836   1860490   1860103   1859623  
  7770.000000   1859010   1858242   1857335   1856339   1855337  
  7760.000000   1854415   1853638   1853024   1852539   1852109  
  7750.000000   1851653   1851117   1850505   1849877   1849333  
  7740.000000   1848963   1848808   1848830   1848915   1848907  
  7730.000000   1848665   1848110   1847263   1846237   1845206  
  7720.000000   1844338   1843745   1843446   1843358   1843338  
  7710.000000   1843216   1842866   1842216   1841283   1840137  
  7700.000000   1838891   1837661   1836552   1835647   1835004  
  7690.000000   1834664   1834643   1834934   1835495   1836261  
  7680.000000   1837134   1838013   1838803   1839428   1839839  
  7670.000000   1840003   1839905   1839527   1838873   1837953  
  7660.000000   1836814   1835531   1834210   1832962   1831876  
  7650.000000   1831008   1830357   1829895   1829573   1829356  
  7640.000000   1829232   1829210   1829297   1829475   1829690  
  7630.000000   1829844   1829835   1829581   1829070   1828361  
  7620.000000   1827583   1826887   1826411   1826225   1826327  
  7610.000000   1826636   1827030   1827384   1827604   1827656  
  7600.000000   1827558   1827375   1827187   1827068   1827064  
  7590.000000   1827179   1827378   1827588   1827727   1827713  
  7580.000000   1827507   1827108   1826574   1825994   1825470  
  7570.000000   1825078   1824853   1824773   1824783   1824815  
  7560.000000   1824830   1824833   1824876   1825038   1825390  
  7550.000000   1825964   1826735   1827622   1828520   1829322  
  7540.000000   1829970   1830443   1830779   1831027   1831240  
  7530.000000   1831439   1831625   1831772   1831863   1831904  
  7520.000000   1831940   1832050   1832331   1832862   1833683  
  7510.000000   1834772   1836052   1837401   1838696   1839821  
  7500.000000   1840720   1841377   1841844   1842197   1842534  
  7490.000000   1842947   1843512   1844285   1845298   1846552  
  7480.000000   1848011   1849607   1851240   1852793   1854158  
  7470.000000   1855252   1856056   1856600   1856977   1857289  
  7460.000000   1857637   1858074   1858619   1859252   1859953  
  7450.000000   1860721   1861587   1862618   1863883   1865426  
  7440.000000   1867240   1869256   1871370   1873459   1875428  
  7430.000000   1877215   1878818   1880261   1881596   1882864  
  7420.000000   1884099   1885309   1886498   1887660   1888796  
  7410.000000   1889912   1891017   1892134   1893287   1894511  
  7400.000000   1895836   1897288   1898868   1900550   1902280  
  7390.000000   1903983   1905590   1907049   1908351   1909517  
  7380.000000   1910598   1911652   1912731   1913873   1915106  
  7370.000000   1916462   1917973   1919673   1921571   1923638  
  7360.000000   1925786   1927888   1929798   1931398   1932641  
  7350.000000   1933570   1934313   1935038   1935900   1936993  
  7340.000000   1938321   1939814   1941360   1942858   1944249  
  7330.000000   1945531   1946737   1947914   1949095   1950284  
  7320.000000   1951460   1952596   1953681   1954731   1955790  
  7310.000000   1956916   1958157   1959534   1961023   1962570  
  7300.000000   1964098   1965534   1966823   1967942   1968903  
  7290.000000   1969746   1970521   1971276   1972043   1972829  
  7280.000000   1973618   1974379   1975076   1975685   1976200  
  7270.000000   1976641   1977045   1977457   1977922   1978465  
  7260.000000   1979098   1979806   1980571   1981369   1982191  
  7250.000000   1983036   1983926   1984890   1985965   1987173  
  7240.000000   1988527   1990006   1991577   1993182   1994783  
  7230.000000   1996342   1997874   1999404   2000994   2002689  
  7220.000000   2004528   2006509   2008613   2010794   2013028  
  7210.000000   2015298   2017626   2020042   2022579   2025236  
  7200.000000   2027983   2030750   2033470   2036080   2038572  
  7190.000000   2040962   2043316   2045686   2048125   2050634  
  7180.000000   2053200   2055786   2058381   2060989   2063666  
  7170.000000   2066473   2069488   2072752   2076290   2080074  
  7160.000000   2084065   2088197   2092420   2096672   2100918  
  7150.000000   2105116   2109258   2113335   2117387   2121445  
  7140.000000   2125571   2129781   2134086   2138434   2142782  
  7130.000000   2147076   2151322   2155559   2159898   2164456  
  7120.000000   2169356   2174659   2180370   2186412   2192681  
  7110.000000   2199046   2205416   2211715   2217926   2224038  
  7100.000000   2230076   2236051   2241992   2247912   2253839  
  7090.000000   2259788   2265782   2271829   2277939   2284111  
  7080.000000   2290342   2296623   2302941   2309275   2315599  
  7070.000000   2321885   2328115   2334280   2340389   2346457  
  7060.000000   2352501   2358519   2364496   2370398   2376202  
  7050.000000   2381905   2387538   2393167   2398863   2404688  
  7040.000000   2410656   2416743   2422886   2429015   2435077  
  7030.000000   2441059   2446977   2452868   2458755   2464642  
  7020.000000   2470501   2476292   2481980   2487558   2493039  
  7010.000000   2498458   2503838   2509190   2514490   2519708  
  7000.000000   2524805   2529771   2534609   2539353   2544028  
  6990.000000   2548670   2553285   2557889   2562473   2567051  
  6980.000000   2571617   2576179   2580707   2585169   2589505  
  6970.000000   2593674   2597633   2601388   2604951   2608364  
  6960.000000   2611649   2614833   2617909   2620882   2623743  
  6950.000000   2626505   2629172   2631755   2634233   2636585  
  6940.000000   2638773   2640795   2642668   2644464   2646259  
  6930.000000   2648138   2650133   2652239   2654387   2656507  
  6920.000000   2658527   2660432   2662235   2663990   2665733  
  6910.000000   2667483   2669206   2670850   2672353   2673680  
  6900.000000   2674831   2675841   2676757   2677625   2678466  
  6890.000000   2679290   2680096   2680902   2681735   2682644  
  6880.000000   2683666   2684824   2686101   2687458   2688833  
  6870.000000   2690176   2691447   2692637   2693749   2694799  
  6860.000000   2695798   2696754   2697674   2698565   2699436  
  6850.000000   2700298   2701152   2701997   2702814   2703589  
  6840.000000   2704310   2704980   2705608   2706214   2706808  
  6830.000000   2707396   2707973   2708535   2709083   2709631  
  6820.000000   2710193   2710781   2711380   2711959   2712466  
  6810.000000   2712862   2713129   2713293   2713412   2713567  
  6800.000000   2713817   2714191   2714659   2715151   2715569  
  6790.000000   2715830   2715876   2715704   2715344   2714864  
  6780.000000   2714333   2713821   2713371   2713012   2712741  
  6770.000000   2712542   2712383   2712232   2712055   2711839  
  6760.000000   2711580   2711296   2711004   2710721   2710452  
  6750.000000   2710187   2709913   2709617   2709306   2708998  
  6740.000000   2708725   2708512   2708366   2708272   2708189  
  6730.000000   2708072   2707880   2707594   2707221   2706785  
  6720.000000   2706321   2705859   2705420   2705013   2704638  
  6710.000000   2704293   2703967   2703651   2703320   2702951  
  6700.000000   2702514   2701991   2701374   2700675   2699916  
  6690.000000   2699128   2698329   2697535   2696744   2695955  
  6680.000000   2695159   2694356   2693538   2692703   2691835  
  6670.000000   2690923   2689949   2688914   2687826   2686707  
  6660.000000   2685578   2684454   2683333   2682202   2681039  
  6650.000000   2679834   2678587   2677318   2676048   2674797  
  6640.000000   2673566   2672350   2671131   2669907   2668680  
  6630.000000   2667470   2666286   2665121   2663940   2662685  
  6620.000000   2661293   2659723   2657976   2656099   2654169  
  6610.000000   2652271   2650462   2648766   2647163   2645615  
  6600.000000   2644086   2642562   2641047   2639562   2638118  
  6590.000000   2636713   2635325   2633921   2632478   2630987  
  6580.000000   2629464   2627932   2626414   2624913   2623417  
  6570.000000   2621905   2620361   2618788   2617211   2615674  
  6560.000000   2614217   2612866   2611621   2610458   2609335  
  6550.000000   2608212   2607053   2605841   2604574   2603262  
  6540.000000   2601925   2600582   2599257   2597965   2596710  
  6530.000000   2595484   2594264   2593020   2591730   2590387  
  6520.000000   2589010   2587638   2586320   2585097   2583990  
  6510.000000   2582988   2582062   2581170   2580286   2579397  
  6500.000000   2578515   2577659   2576844   2576068   2575314  
  6490.000000   2574547   2573739   2572871   2571947   2570986  
  6480.000000   2570015   2569056   2568119   2567197   2566273  
  6470.000000   2565332   2564361   2563368   2562369   2561394  
  6460.000000   2560472   2559625   2558859   2558159   2557491  
  6450.000000   2556807   2556060   2555215   2554265   2553231  
  6440.000000   2552162   2551113   2550136   2549255   2548472  
  6430.000000   2547762   2547093   2546440   2545798   2545177  
  6420.000000   2544598   2544075   2543611   2543187   2542779  
  6410.000000   2542358   2541916   2541455   2540997   2540562  
  6400.000000   2540173   2539838   2539558   2539327   2539134  
  6390.000000   2538967   2538806   2538631   2538413   2538132  
  6380.000000   2537780   2537366   2536918   2536472   2536054  
  6370.000000   2535672   2535305   2534920   2534479   2533964  
  6360.000000   2533384   2532768   2532153   2531564   2531001  
  6350.000000   2530446   2529868   2529256   2528620   2528000  
  6340.000000   2527445   2526993   2526649   2526382   2526132  
  6330.000000   2525838   2525451   2524956   2524365   2523712  
  6320.000000   2523024   2522320   2521598   2520851   2520065  
  6310.000000   2519239   2518373   2517469   2516517   2515506  
  6300.000000   2514411   2513230   2511965   2510653   2509328  
  6290.000000   2508027   2506759   2505513   2504251   2502937  
  6280.000000   2501539   2500062   2498520   2496953   2495386  
  6270.000000   2493842   2492319   2490808   2489294   2487771  
  6260.000000   2486230   2484666   2483060   2481391   2479631  
  6250.000000   2477766   2475803   2473778   2471744   2469760  
  6240.000000   2467867   2466079   2464380   2462737   2461109  
  6230.000000   2459471   2457809   2456127   2454435   2452746  
  6220.000000   2451066   2449400   2447752   2446125   2444522  
  6210.000000   2442934   2441345   2439723   2438037   2436262  
  6200.000000   2434397   2432465   2430511   2428588   2426740  
  6190.000000   2424989   2423334   2421752   2420215   2418699  
  6180.000000   2417190   2415684   2414187   2412701   2411229  
  6170.000000   2409768   2408319   2406881   2405459   2404051  
  6160.000000   2402658   2401270   2399878   2398475   2397065  
  6150.000000   2395661   2394287   2392967   2391719   2390546  
  6140.000000   2389436   2388362   2387295   2386206   2385078  
  6130.000000   2383899   2382675   2381414   2380137   2378865  
  6120.000000   2377626   2376445   2375344   2374333   2373417  
  6110.000000   2372586   2371832   2371139   2370498   2369895  
  6100.000000   2369322   2368764   2368214   2367661   2367113  
  6090.000000   2366581   2366092   2365670   2365337   2365091  
  6080.000000   2364919   2364787   2364668   2364537   2364395  
  6070.000000   2364253   2364142   2364083   2364097   2364181  
  6060.000000   2364337   2364552   2364833   2365180   2365611  
  6050.000000   2366125   2366727   2367398   2368124   2368882  
  6040.000000   2369671   2370487   2371354   2372281   2373290  
  6030.000000   2374381   2375556   2376804   2378124   2379505  
  6020.000000   2380946   2382436   2383965   2385514   2387073  
  6010.000000   2388630   2390193   2391765   2393363   2394984  
  6000.000000   2396626   2398267   2399891   2401483   2403050  
  5990.000000   2404607   2406189   2407823   2409532   2411318  
  5980.000000   2413175   2415084   2417039   2419030   2421069  
  5970.000000   2423158   2425313   2427529   2429811   2432152  
  5960.000000   2434558   2437029   2439576   2442193   2444876  
  5950.000000   2447597   2450336   2453064   2455774   2458470  
  5940.000000   2461176   2463920   2466730   2469622   2472598  
  5930.000000   2475647   2478750   2481883   2485021   2488136  
  5920.000000   2491199   2494181   2497056   2499805   2502418  
  5910.000000   2504899   2507257   2509508   2511663   2513738  
  5900.000000   2515748   2517719   2519678   2521665   2523710  
  5890.000000   2525841   2528062   2530368   2532733   2535137  
  5880.000000   2537554   2539965   2542346   2544668   2546896  
  5870.000000   2548986   2550911   2552659   2554256   2555756  
  5860.000000   2557234   2558764   2560401   2562169   2564065  
  5850.000000   2566063   2568135   2570258   2572424   2574632  
  5840.000000   2576887   2579192   2581550   2583960   2586428  
  5830.000000   2588959   2591555   2594207   2596893   2599573  
  5820.000000   2602208   2604763   2607224   2609598   2611911  
  5810.000000   2614193   2616461   2618724   2620958   2623156  
  5800.000000   2625289   2627369   2629390   2631379   2633317  
  5790.000000   2635202   2636977   2638604   2640008   2641144  
  5780.000000   2641945   2642374   2642371   2641910   2640962  
  5770.000000   2639554   2637737   2635629   2633353   2631058  
  5760.000000   2628852   2626818   2624981   2623346   2621885  
  5750.000000   2620585   2619424   2618396   2617485   2616672  
  5740.000000   2615932   2615235   2614573   2613942   2613363  
  5730.000000   2612848   2612415   2612047   2611726   2611412  
  5720.000000   2611080   2610709   2610309   2609894   2609492  
  5710.000000   2609120   2608792   2608511   2608287   2608128  
  5700.000000   2608053   2608074   2608194   2608401   2608665  
  5690.000000   2608953   2609229   2609479   2609695   2609889  
  5680.000000   2610061   2610214   2610324   2610368   2610304  
  5670.000000   2610107   2609743   2609202   2608464   2607528  
  5660.000000   2606391   2605073   2603600   2602027   2600405  
  5650.000000   2598796   2597232   2595737   2594304   2592924  
  5640.000000   2591579   2590270   2589000   2587782   2586625  
  5630.000000   2585528   2584481   2583469   2582483   2581514  
  5620.000000   2580570   2579653   2578769   2577909   2577065  
  5610.000000   2576224   2575384   2574550   2573741   2572973  
  5600.000000   2572257   2571589   2570950   2570315   2569660  
  5590.000000   2568970   2568244   2567485   2566703   2565902  
  5580.000000   2565084   2564251   2563406   2562558   2561719  
  5570.000000   2560898   2560095   2559301   2558494   2557657  
  5560.000000   2556773   2555843   2554871   2553874   2552864  
  5550.000000   2551852   2550846   2549851   2548878   2547938  
  5540.000000   2547044   2546202   2545402   2544628   2543853  
  5530.000000   2543055   2542219   2541347   2540447   2539533  
  5520.000000   2538609   2537674   2536720   2535741   2534736  
  5510.000000   2533715   2532688   2531668   2530655   2529643  
  5500.000000   2528619   2527581   2526529   2525482   2524451  
  5490.000000   2523445   2522446   2521423   2520329   2519132  
  5480.000000   2517814   2516388   2514880   2513331   2511768  
  5470.000000   2510205   2508637   2507057   2505453   2503829  
  5460.000000   2502190   2500541   2498875   2497177   2495423  
  5450.000000   2493599   2491705   2489762   2487807   2485878  
  5440.000000   2484001   2482184   2480425   2478713   2477047  
  5430.000000   2475429   2473861   2472333   2470823   2469296  
  5420.000000   2467733   2466130   2464537   2463021   2461680  
  5410.000000   2460572   2459722   2459083   2458591   2458159  
  5400.000000   2457747   2457336   2456966   2456671   2456503  
  5390.000000   2456466   2456563   2456764   2457071   2457486  
  5380.000000   2458057   2458806   2459767   2460911   2462214  
  5370.000000   2463600   2465043   2466503   2468013   2469584  
  5360.000000   2471282   2473115   2475138   2477344   2479793  
  5350.000000   2482499   2485549   2488964   2492821   2497092  
  5340.000000   2501803   2506885   2512358   2518170   2524376  
  5330.000000   2530938   2537913   2545244   2552969   2561020  
  5320.000000   2569465   2578283   2587601   2597431   2607914  
  5310.000000   2619037   2630891   2643410   2656655   2670557  
  5300.000000   2685197   2700543   2716711   2733689   2751592  
  5290.000000   2770376   2790090   2810615   2831910   2853803  
  5280.000000   2876245   2899122   2922485   2946347   2970842  
  5270.000000   2996007   3021886   3048367   3075295   3102443  
  5260.000000   3129625   3156728   3183738   3210723   3237740  
  5250.000000   3264817   3291841   3318650   3344963   3370598  
  5240.000000   3395359   3419270   3442338   3464751   3486568  
  5230.000000   3507937   3528792   3549131   3568761   3587621  
  5220.000000   3605547   3622584   3638702   3654073   3668740  
  5210.000000   3682879   3696462   3709543   3721962   3733690  
  5200.000000   3744563   3754625   3763831   3772335   3780155  
  5190.000000   3787435   3794137   3800321   3805887   3810874  
  5180.000000   3815208   3818971   3822134   3824786   3826878  
  5170.000000   3828458   3829454   3829913   3829799   3829206  
  5160.000000   3828145   3826721   3824930   3822839   3820407  
  5150.000000   3817677   3814613   3811269   3807627   3803737  
  5140.000000   3799571   3795158   3790464   3785524   3780331  
  5130.000000   3774944   3769382   3763703   3757917   3752055  
  5120.000000   3746112   3740111   3734054   3727972   3721874  
  5110.000000   3715783   3709694   3703613   3697527   3691441  
  5100.000000   3685355   3679283   3673231   3667207   3661207  
  5090.000000   3655229   3649269   3643337   3637439   3631594  
  5080.000000   3625799   3620049   3614313   3608557   3602744  
  5070.000000   3596857   3590889   3584858   3578778   3572668  
  5060.000000   3566526   3560344   3554097   3547775   3541366  
  5050.000000   3534879   3528326   3521730   3515103   3508461  
  5040.000000   3501808   3495154   3488507   3481884   3475298  
  5030.000000   3468759   3462269   3455821   3449409   3443027  
  5020.000000   3436682   3430384   3424163   3418034   3412027  
  5010.000000   3406143   3400395   3394770   3389279   3383906  
  5000.000000   3378673   3373573   3368635   3363856   3359269  
  4990.000000   3354871   3350699   3346747   3343053   3339597  
  4980.000000   3336407   3333452   3330755   3328287   3326087  
  4970.000000   3324150   3322535   3321245   3320338   3319791  
  4960.000000   3319636   3319823   3320365   3321206   3322373  
  4950.000000   3323829   3325619   3327720   3330181   3332978  
  4940.000000   3336149   3339656   3343529   3347719   3352248  
  4930.000000   3357068   3362201   3367608   3373323   3379321  
  4920.000000   3385643   3392264   3399213   3406450   3413985  
  4910.000000   3421770   3429809   3438066   3446551   3455240  
  4900.000000   3464138   3473218   3482465   3491843   3501321  
  4890.000000   3510862   3520429   3529987   3539487   3548896  
  4880.000000   3558158   3567242   3576095   3584700   3593005  
  4870.000000   3601000   3608630   3615889   3622725   3629153  
  4860.000000   3635148   3640756   3645979   3650875   3655445  
  4850.000000   3659736   3663735   3667483   3670970   3674247  
  4840.000000   3677320   3680242   3683022   3685701   3688276  
  4830.000000   3690772   3693182   3695527   3697806   3700038  
  4820.000000   3702223   3704377   3706499   3708605   3710700  
  4810.000000   3712800   3714909   3717031   3719158   3721281  
  4800.000000   3723383   3725460   3727509   3729546   3731587  
  4790.000000   3733652   3735754   3737899   3740080   3742293  
  4780.000000   3744522   3746760   3748995   3751218   3753405  
  4770.000000   3755539   3757587   3759532   3761354   3763057  
  4760.000000   3764646   3766150   3767582   3768970   3770311  
  4750.000000   3771613   3772853   3774018   3775071   3775995  
  4740.000000   3776756   3777345   3777751   3777992   3778080  
  4730.000000   3778049   3777922   3777724   3777459   3777131  
  4720.000000   3776730   3776256   3775707   3775104   3774468  
  4710.000000   3773833   3773228   3772680   3772205   3771816  
  4700.000000   3771517   3771310   3771196   3771173   3771238  
  4690.000000   3771384   3771606   3771894   3772240   3772629  
  4680.000000   3773050   3773477   3773894   3774271   3774598  
  4670.000000   3774857   3775058   3775206   3775330   3775448  
  4660.000000   3775598   3775808   3776123   3776578   3777222  
  4650.000000   3778084   3779189   3780530   3782084   3783802  
  4640.000000   3785634   3787526   3789447   3791379   3793319  
  4630.000000   3795264   3797208   3799131   3801000   3802783  
  4620.000000   3804450   3805985   3807382   3808647   3809781  
  4610.000000   3810784   3811642   3812354   3812913   3813343  
  4600.000000   3813669   3813948   3814213   3814508   3814833  
  4590.000000   3815189   3815536   3815850   3816085   3816227  
  4580.000000   3816249   3816148   3815909   3815532   3815004  
  4570.000000   3814328   3813499   3812532   3811434   3810228  
  4560.000000   3808929   3807565   3806148   3804706   3803248  
  4550.000000   3801791   3800330   3798864   3797374   3795842  
  4540.000000   3794249   3792587   3790855   3789065   3787237  
  4530.000000   3785386   3783537   3781694   3779883   3778103  
  4520.000000   3776388   3774741   3773204   3771777   3770503  
  4510.000000   3769372   3768439   3767702   3767241   3767076  
  4500.000000   3767311   3767968   3769149   3770853   3773169  
  4490.000000   3776079   3779669   3783924   3788933   3794671  
  4480.000000   3801205   3808476   3816513   3825225   3834622  
  4470.000000   3844614   3855215   3866346   3878021   3890157  
  4460.000000   3902745   3915687   3928951   3942436   3956107  
  4450.000000   3969881   3983735   3997620   4011526   4025432  
  4440.000000   4039330   4053210   4067046   4080828   4094513  
  4430.000000   4108094   4121518   4134788   4147842   4160685  
  4420.000000   4173229   4185461   4197268   4208620   4219395  
  4410.000000   4229563   4239008   4247715   4255586   4262630  
  4400.000000   4268790   4274125   4278643   4282468   4285668  
  4390.000000   4288400   4290749   4292851   4294763   4296577  
  4380.000000   4298322   4300062   4301829   4303690   4305699  
  4370.000000   4307930   4310443   4313293   4316519   4320136  
  4360.000000   4324146   4328533   4333263   4338301   4343578  
  4350.000000   4349047   4354615   4360245   4365862   4371473  
  4340.000000   4377045   4382609   4388101   4393439   4398386  
  4330.000000   4402638   4405775   4407407   4407205   4405053  
  4320.000000   4401057   4395600   4389227   4382597   4376296  
  4310.000000   4370805   4366364   4363052   4360752   4359293  
  4300.000000   4358453   4358064   4357992   4358154   4358509  
  4290.000000   4359010   4359650   4360395   4361260   4362238  
  4280.000000   4363360   4364635   4366068   4367657   4369377  
  4270.000000   4371215   4373125   4375071   4376948   4378628  
  4260.000000   4379895   4380516   4380234   4378865   4376310  
  4250.000000   4372634   4368017   4362770   4357227   4351733  
  4240.000000   4346530   4341790   4337541   4333758   4330328  
  4230.000000   4327146   4324094   4321090   4318075   4315013  
  4220.000000   4311908   4308766   4305640   4302572   4299650  
  4210.000000   4296931   4294504   4292403   4290675   4289307  
  4200.000000   4288293   4287571   4287102   4286803   4286633  
  4190.000000   4286519   4286448   4286381   4286352   4286358  
  4180.000000   4286466   4286688   4287099   4287705   4288578  
  4170.000000   4289724   4291222   4293089   4295409   4298194  
  4160.000000   4301510   4305336   4309704   4314557   4319911  
  4150.000000   4325697   4331936   4338563   4345607   4353007  
  4140.000000   4360803   4368944   4377489   4386406   4395767  
  4130.000000   4405548   4415812   4426519   4437706   4449320  
  4120.000000   4461387   4473864   4486790   4500148   4513992  
  4110.000000   4528314   4543154   4558475   4574266   4590434  
  4100.000000   4606918   4623599   4640412   4657276   4674177  
  4090.000000   4691107   4708100   4725186   4742394   4759745  
  4080.000000   4777229   4794847   4812559   4830352   4848155  
  4070.000000   4865931   4883562   4900987   4918073   4934782  
  4060.000000   4951023   4966815   4982103   4996929   5011223  
  4050.000000   5025017   5038227   5050902   5062975   5074525  
  4040.000000   5085486   5095923   5105730   5114936   5123414  
  4030.000000   5131201   5138192   5144444   5149870   5154512  
  4020.000000   5158256   5161151   5163162   5164382   5164783  
  4010.000000   5164524   5163696   5162343   5160265   5157542  
  4000.000000   5154490  
##END= 
