##TITLE= Sample 014 By ssteindl date Donnerstag, November 22 2018
##JCAMP-DX= 4.24
##DATA TYPE= INFRARED SPECTRUM
##ORIGIN= Exported PE Spectrum Data File
##OWNER= Sandra Steindl
##DATE= 18/11/22
##TIME= 12:52:00.00
##SPECTROMETER/DATA SYSTEM= PERKIN-ELMER Frontier FT-IR/NIR IR
##INSTRUMENT PARAMETERS=
  APODIZATION=stark
  DETECTOR=INGAAS
##RESOLUTION= 16.000000
##DELTAX= -2.000000
##XUNITS= 1/CM
##YUNITS= A
##XFACTOR= 1.00
##YFACTOR= 0.00000011920928955078
##FIRSTX= 10000.00
##LASTX= 4000.00
##NPOINTS= 3001
##FIRSTY= 0.264001
##MAXY= 0.598013
##MINY= 0.192095
##XYDATA= (X++(Y..Y))
 10000.000000   2214603   2207266   2200576   2195420   2192195  
  9990.000000   2190742   2190901   2192511   2195291   2198759  
  9980.000000   2202495   2206117   2209417   2212300   2214907  
  9970.000000   2217420   2219974   2222501   2224748   2226359  
  9960.000000   2227050   2226819   2225944   2224972   2224398  
  9950.000000   2224497   2225098   2225667   2225482   2223936  
  9940.000000   2220754   2216079   2210348   2204131   2197898  
  9930.000000   2191985   2186581   2181910   2178261   2176020  
  9920.000000   2175482   2176674   2179214   2182313   2184994  
  9910.000000   2186355   2185903   2183644   2180090   2175980  
  9900.000000   2172058   2168812   2166471   2165047   2164501  
  9890.000000   2164798   2165885   2167603   2169556   2171185  
  9880.000000   2171841   2171091   2168848   2165520   2161844  
  9870.000000   2158668   2156610   2155845   2156062   2156596  
  9860.000000   2156714   2155801   2153577   2149996   2145280  
  9850.000000   2139693   2133572   2127228   2121030   2115407  
  9840.000000   2110855   2107871   2106878   2108111   2111605  
  9830.000000   2117150   2124326   2132468   2140702   2148000  
  9820.000000   2153373   2156136   2156170   2154083   2151080  
  9810.000000   2148680   2148166   2150201   2154517   2160036  
  9800.000000   2165185   2168432   2168696   2165614   2159465  
  9790.000000   2150968   2140978   2130300   2119677   2109836  
  9780.000000   2101579   2095693   2092731   2092783   2095276  
  9770.000000   2099157   2103152   2106305   2108234   2109265  
  9760.000000   2110164   2111689   2114234   2117520   2120835  
  9750.000000   2123227   2124089   2123261   2121153   2118358  
  9740.000000   2115365   2112288   2108904   2104941   2100385  
  9730.000000   2095732   2091863   2089774   2090066   2092740  
  9720.000000   2097059   2101951   2106309   2109504   2111423  
  9710.000000   2112430   2112997   2113402   2113602   2113252  
  9700.000000   2112017   2109684   2106344   2102182   2097375  
  9690.000000   2091889   2085560   2078290   2070299   2062332  
  9680.000000   2055504   2051044   2049733   2051654   2056031  
  9670.000000   2061597   2067009   2071355   2074352   2076274  
  9660.000000   2077650   2078848   2079879   2080325   2079662  
  9650.000000   2077494   2073883   2069291   2064443   2059980  
  9640.000000   2056201   2053040   2050110   2047068   2043721  
  9630.000000   2040253   2037034   2034511   2032934   2032299  
  9620.000000   2032349   2032700   2032978   2032836   2032043  
  9610.000000   2030360   2027682   2023974   2019455   2014525  
  9600.000000   2009768   2005744   2002870   2001274   2000853  
  9590.000000   2001356   2002548   2004317   2006633   2009497  
  9580.000000   2012751   2016080   2019033   2021231   2022561  
  9570.000000   2023265   2023871   2024903   2026579   2028577  
  9560.000000   2030098   2030132   2027920   2023310   2016906  
  9550.000000   2009878   2003503   1998722   1995781   1994316  
  9540.000000   1993583   1992933   1992074   1991204   1990790  
  9530.000000   1991292   1992807   1994993   1997164   1998598  
  9520.000000   1998882   1998029   1996493   1994825   1993454  
  9510.000000   1992421   1991449   1990099   1988052   1985286  
  9500.000000   1982102   1979021   1976524   1974933   1974222  
  9490.000000   1974184   1974468   1974831   1975169   1975509  
  9480.000000   1975903   1976279   1976417   1975937   1974463  
  9470.000000   1971697   1967608   1962401   1956592   1950823  
  9460.000000   1945791   1942053   1939918   1939408   1940250  
  9450.000000   1942011   1944193   1946407   1948452   1950359  
  9440.000000   1952322   1954542   1957100   1959817   1962338  
  9430.000000   1964197   1965043   1964735   1963397   1961370  
  9420.000000   1959073   1956915   1955176   1954006   1953411  
  9410.000000   1953301   1953486   1953691   1953549   1952657  
  9400.000000   1950675   1947479   1943285   1938694   1934570  
  9390.000000   1931794   1930938   1932072   1934711   1938015  
  9380.000000   1941083   1943259   1944319   1944461   1944128  
  9370.000000   1943735   1943444   1943118   1942435   1941102  
  9360.000000   1939050   1936509   1933961   1931944   1930819  
  9350.000000   1930634   1931042   1931493   1931365   1930234  
  9340.000000   1927953   1924723   1921008   1917435   1914598  
  9330.000000   1912915   1912475   1913030   1914027   1914756  
  9320.000000   1914545   1912935   1909869   1905696   1901090  
  9310.000000   1896776   1893288   1890779   1889029   1887570  
  9300.000000   1885932   1883891   1881583   1879489   1878167  
  9290.000000   1878023   1879073   1880935   1882978   1884518  
  9280.000000   1885113   1884594   1883151   1881086   1878720  
  9270.000000   1876219   1873608   1870869   1868051   1865426  
  9260.000000   1863430   1862567   1863160   1865246   1868498  
  9250.000000   1872302   1875883   1878472   1879497   1878675  
  9240.000000   1876064   1871994   1867005   1861783   1857063  
  9230.000000   1853553   1851741   1851809   1853527   1856331  
  9220.000000   1859402   1861852   1862906   1862095   1859391  
  9210.000000   1855142   1849992   1844653   1839829   1836047  
  9200.000000   1833633   1832672   1833042   1834501   1836712  
  9190.000000   1839357   1842106   1844696   1846922   1848622  
  9180.000000   1849719   1850131   1849876   1848952   1847436  
  9170.000000   1845410   1843021   1840461   1837959   1835820  
  9160.000000   1834354   1833901   1834683   1836795   1840040  
  9150.000000   1843989   1847943   1851119   1852811   1852613  
  9140.000000   1850583   1847187   1843215   1839465   1836534  
  9130.000000   1834578   1833283   1832052   1830257   1827565  
  9120.000000   1824054   1820292   1817093   1815274   1815263  
  9110.000000   1816978   1819800   1822773   1824919   1825514  
  9100.000000   1824350   1821685   1818157   1814513   1811423  
  9090.000000   1809263   1808086   1807657   1807632   1807674  
  9080.000000   1807573   1807286   1806909   1806623   1806572  
  9070.000000   1806836   1807383   1808096   1808807   1809355  
  9060.000000   1809633   1809605   1809308   1808821   1808251  
  9050.000000   1807682   1807165   1806656   1806052   1805172  
  9040.000000   1803830   1801876   1799269   1796163   1792906  
  9030.000000   1790021   1788035   1787398   1788290   1790579  
  9020.000000   1793762   1797138   1799985   1801732   1802111  
  9010.000000   1801149   1799190   1796639   1793887   1791121  
  9000.000000   1788418   1785732   1783042   1780422   1778081  
  8990.000000   1776358   1775559   1775947   1777569   1780338  
  8980.000000   1783966   1788108   1792372   1796390   1799836  
  8970.000000   1802408   1803889   1804125   1803118   1800963  
  8960.000000   1797900   1794229   1790318   1786487   1782992  
  8950.000000   1780000   1777603   1775853   1774712   1774147  
  8940.000000   1774040   1774303   1774798   1775481   1776374  
  8930.000000   1777582   1779243   1781412   1784038   1786805  
  8920.000000   1789224   1790656   1790570   1788647   1784963  
  8910.000000   1779999   1774604   1769778   1766403   1765055  
  8900.000000   1765821   1768356   1771889   1775539   1778471  
  8890.000000   1780193   1780587   1779923   1778701   1777443  
  8880.000000   1776521   1775987   1775614   1774948   1773546  
  8870.000000   1771136   1767759   1763788   1759801   1756432  
  8860.000000   1754123   1753037   1753002   1753602   1754337  
  8850.000000   1754756   1754624   1753904   1752787   1751529  
  8840.000000   1750408   1749601   1749200   1749207   1749599  
  8830.000000   1750354   1751488   1753025   1754972   1757284  
  8820.000000   1759838   1762439   1764839   1766769   1768017  
  8810.000000   1768448   1768081   1767039   1765565   1763933  
  8800.000000   1762413   1761215   1760444   1760124   1760198  
  8790.000000   1760605   1761269   1762158   1763231   1764464  
  8780.000000   1765799   1767154   1768419   1769464   1770185  
  8770.000000   1770505   1770415   1769948   1769200   1768289  
  8760.000000   1767366   1766582   1766062   1765892   1766060  
  8750.000000   1766504   1767077   1767651   1768114   1768455  
  8740.000000   1768732   1769056   1769506   1770067   1770598  
  8730.000000   1770835   1770501   1769376   1767435   1764838  
  8720.000000   1761933   1759125   1756778   1755113   1754168  
  8710.000000   1753838   1753954   1754378   1755051   1756001  
  8700.000000   1757279   1758911   1760828   1762870   1764824  
  8690.000000   1766481   1767743   1768609   1769213   1769706  
  8680.000000   1770231   1770825   1771420   1771862   1771987  
  8670.000000   1771701   1771045   1770207   1769477   1769165  
  8660.000000   1769470   1770435   1771895   1773556   1775081  
  8650.000000   1776213   1776883   1777201   1777431   1777848  
  8640.000000   1778624   1779741   1780993   1782080   1782746  
  8630.000000   1782909   1782722   1782533   1782751   1783689  
  8620.000000   1785414   1787723   1790198   1792355   1793822  
  8610.000000   1794443   1794326   1793767   1793123   1792692  
  8600.000000   1792612   1792876   1793376   1793996   1794671  
  8590.000000   1795405   1796228   1797144   1798076   1798878  
  8580.000000   1799369   1799418   1799003   1798240   1797371  
  8570.000000   1796691   1796466   1796847   1797840   1799297  
  8560.000000   1800976   1802592   1803901   1804735   1805055  
  8550.000000   1804926   1804515   1804034   1803712   1803724  
  8540.000000   1804181   1805096   1806413   1808016   1809764  
  8530.000000   1811521   1813169   1814639   1815902   1816985  
  8520.000000   1817952   1818900   1819940   1821148   1822541  
  8510.000000   1824042   1825498   1826698   1827443   1827609  
  8500.000000   1827207   1826379   1825370   1824453   1823854  
  8490.000000   1823696   1823969   1824581   1825392   1826315  
  8480.000000   1827316   1828448   1829773   1831355   1833190  
  8470.000000   1835186   1837178   1838945   1840284   1841017  
  8460.000000   1841044   1840341   1839007   1837233   1835301  
  8450.000000   1833530   1832228   1831628   1831811   1832711  
  8440.000000   1834096   1835679   1837162   1838367   1839250  
  8430.000000   1839918   1840546   1841301   1842261   1843365  
  8420.000000   1844438   1845236   1845557   1845286   1844450  
  8410.000000   1843196   1841743   1840327   1839119   1838221  
  8400.000000   1837637   1837328   1837216   1837232   1837319  
  8390.000000   1837441   1837567   1837671   1837720   1837680  
  8380.000000   1837533   1837279   1836939   1836560   1836194  
  8370.000000   1835905   1835735   1835715   1835837   1836077  
  8360.000000   1836385   1836697   1836921   1836952   1836673  
  8350.000000   1835982   1834806   1833135   1831049   1828717  
  8340.000000   1826379   1824290   1822647   1821545   1820932  
  8330.000000   1820640   1820417   1820031   1819342   1818345  
  8320.000000   1817171   1816022   1815107   1814550   1814354  
  8310.000000   1814397   1814492   1814463   1814212   1813756  
  8300.000000   1813210   1812745   1812515   1812595   1812944  
  8290.000000   1813414   1813803   1813896   1813542   1812671  
  8280.000000   1811338   1809689   1807944   1806326   1805024  
  8270.000000   1804146   1803692   1803570   1803608   1803643  
  8260.000000   1803551   1803323   1803033   1802836   1802879  
  8250.000000   1803253   1803923   1804722   1805382   1805604  
  8240.000000   1805157   1803931   1801973   1799455   1796625  
  8230.000000   1793742   1791010   1788572   1786483   1784764  
  8220.000000   1783396   1782369   1781648   1781201   1780951  
  8210.000000   1780808   1780649   1780357   1779832   1779008  
  8200.000000   1777867   1776428   1774749   1772898   1770957  
  8190.000000   1768997   1767072   1765218   1763437   1761719  
  8180.000000   1760039   1758381   1756748   1755162   1753663  
  8170.000000   1752281   1751017   1749827   1748631   1747351  
  8160.000000   1745948   1744466   1743025   1741803   1740960  
  8150.000000   1740582   1740608   1740831   1740941   1740607  
  8140.000000   1739590   1737801   1735339   1732430   1729368  
  8130.000000   1726408   1723717   1721344   1719265   1717423  
  8120.000000   1715793   1714402   1713304   1712564   1712180  
  8110.000000   1712091   1712169   1712267   1712276   1712135  
  8100.000000   1711872   1711529   1711159   1710737   1710184  
  8090.000000   1709357   1708135   1706469   1704444   1702277  
  8080.000000   1700268   1698719   1697834   1697663   1698067  
  8070.000000   1698777   1699463   1699833   1699713   1699078  
  8060.000000   1698040   1696788   1695527   1694397   1693457  
  8050.000000   1692678   1691980   1691284   1690546   1689786  
  8040.000000   1689062   1688461   1688040   1687817   1687746  
  8030.000000   1687733   1687662   1687410   1686892   1686047  
  8020.000000   1684867   1683378   1681648   1679787   1677935  
  8010.000000   1676256   1674902   1673990   1673556   1673546  
  8000.000000   1673811   1674147   1674332   1674194   1673644  
  7990.000000   1672691   1671444   1670060   1668717   1667553  
  7980.000000   1666655   1666032   1665633   1665364   1665112  
  7970.000000   1664776   1664281   1663600   1662752   1661799  
  7960.000000   1660831   1659931   1659168   1658560   1658087  
  7950.000000   1657693   1657323   1656942   1656558   1656223  
  7940.000000   1656013   1656001   1656226   1656670   1657264  
  7930.000000   1657893   1658440   1658796   1658905   1658754  
  7920.000000   1658388   1657883   1657346   1656882   1656583  
  7910.000000   1656508   1656667   1657022   1657488   1657962  
  7900.000000   1658343   1658567   1658622   1658550   1658429  
  7890.000000   1658338   1658331   1658414   1658548   1658669  
  7880.000000   1658712   1658650   1658491   1658294   1658128  
  7870.000000   1658060   1658114   1658273   1658478   1658642  
  7860.000000   1658685   1658543   1658193   1657640   1656926  
  7850.000000   1656102   1655231   1654374   1653586   1652921  
  7840.000000   1652425   1652143   1652103   1652323   1652787  
  7830.000000   1653454   1654241   1655047   1655752   1656257  
  7820.000000   1656492   1656437   1656127   1655633   1655047  
  7810.000000   1654447   1653879   1653343   1652803   1652211  
  7800.000000   1651523   1650736   1649878   1649025   1648254  
  7790.000000   1647643   1647220   1646978   1646858   1646777  
  7780.000000   1646650   1646400   1645986   1645384   1644598  
  7770.000000   1643637   1642522   1641280   1639963   1638645  
  7760.000000   1637425   1636416   1635712   1635372   1635383  
  7750.000000   1635672   1636107   1636545   1636867   1637008  
  7740.000000   1636974   1636815   1636601   1636376   1636140  
  7730.000000   1635840   1635407   1634775   1633933   1632919  
  7720.000000   1631816   1630724   1629717   1628833   1628063  
  7710.000000   1627382   1626771   1626236   1625809   1625529  
  7700.000000   1625407   1625414   1625475   1625490   1625373  
  7690.000000   1625082   1624642   1624122   1623616   1623184  
  7680.000000   1622843   1622544   1622211   1621767   1621174  
  7670.000000   1620448   1619655   1618887   1618234   1617760  
  7660.000000   1617493   1617426   1617524   1617736   1617994  
  7650.000000   1618225   1618355   1618326   1618112   1617734  
  7640.000000   1617260   1616788   1616418   1616214   1616184  
  7630.000000   1616271   1616382   1616418   1616323   1616088  
  7620.000000   1615760   1615402   1615063   1614747   1614421  
  7610.000000   1614025   1613521   1612917   1612289   1611753  
  7600.000000   1611432   1611408   1611685   1612194   1612802  
  7590.000000   1613364   1613768   1613962   1613975   1613876  
  7580.000000   1613761   1613689   1613682   1613703   1613690  
  7570.000000   1613576   1613336   1612992   1612620   1612325  
  7560.000000   1612206   1612325   1612685   1613231   1613866  
  7550.000000   1614477   1614978   1615320   1615518   1615624  
  7540.000000   1615721   1615885   1616176   1616614   1617184  
  7530.000000   1617833   1618493   1619092   1619575   1619916  
  7520.000000   1620130   1620272   1620427   1620691   1621144  
  7510.000000   1621824   1622717   1623752   1624831   1625842  
  7500.000000   1626704   1627374   1627865   1628223   1628520  
  7490.000000   1628814   1629156   1629565   1630056   1630631  
  7480.000000   1631298   1632070   1632961   1633985   1635154  
  7470.000000   1636474   1637947   1639560   1641283   1643056  
  7460.000000   1644800   1646412   1647800   1648904   1649735  
  7450.000000   1650361   1650906   1651506   1652277   1653270  
  7440.000000   1654473   1655810   1657192   1658543   1659831  
  7430.000000   1661067   1662293   1663555   1664886   1666287  
  7420.000000   1667748   1669253   1670799   1672395   1674061  
  7410.000000   1675804   1677615   1679465   1681314   1683124  
  7400.000000   1684874   1686558   1688180   1689734   1691211  
  7390.000000   1692593   1693872   1695069   1696237   1697461  
  7380.000000   1698828   1700401   1702182   1704113   1706087  
  7370.000000   1707984   1709698   1711171   1712401   1713434  
  7360.000000   1714346   1715220   1716133   1717146   1718301  
  7350.000000   1719618   1721096   1722707   1724396   1726094  
  7340.000000   1727730   1729254   1730646   1731917   1733105  
  7330.000000   1734249   1735385   1736528   1737686   1738853  
  7320.000000   1740033   1741238   1742484   1743789   1745157  
  7310.000000   1746584   1748053   1749545   1751047   1752555  
  7300.000000   1754066   1755582   1757096   1758601   1760091  
  7290.000000   1761571   1763052   1764546   1766048   1767532  
  7280.000000   1768943   1770215   1771289   1772144   1772809  
  7270.000000   1773363   1773907   1774535   1775305   1776228  
  7260.000000   1777276   1778403   1779575   1780779   1782033  
  7250.000000   1783356   1784763   1786232   1787732   1789209  
  7240.000000   1790641   1792025   1793409   1794847   1796403  
  7230.000000   1798098   1799938   1801882   1803899   1805960  
  7220.000000   1808068   1810242   1812523   1814937   1817509  
  7210.000000   1820233   1823098   1826069   1829120   1832206  
  7200.000000   1835294   1838339   1841315   1844195   1846985  
  7190.000000   1849703   1852391   1855090   1857845   1860687  
  7180.000000   1863640   1866716   1869923   1873260   1876713  
  7170.000000   1880235   1883760   1887178   1890393   1893321  
  7160.000000   1895957   1898357   1900660   1903029   1905648  
  7150.000000   1908655   1912140   1916109   1920506   1925208  
  7140.000000   1930074   1934947   1939713   1944289   1948668  
  7130.000000   1952875   1956992   1961095   1965276   1969571  
  7120.000000   1974004   1978531   1983117   1987707   1992288  
  7110.000000   1996864   2001477   2006171   2010997   2015983  
  7100.000000   2021158   2026534   2032134   2037961   2044010  
  7090.000000   2050231   2056541   2062819   2068944   2074817  
  7080.000000   2080411   2085754   2090942   2096078   2101250  
  7070.000000   2106491   2111782   2117068   2122296   2127446  
  7060.000000   2132532   2137603   2142704   2147858   2153045  
  7050.000000   2158213   2163300   2168265   2173105   2177859  
  7040.000000   2182589   2187361   2192214   2197163   2202184  
  7030.000000   2207249   2212313   2217349   2222332   2227252  
  7020.000000   2232097   2236861   2241536   2246110   2250562  
  7010.000000   2254865   2258984   2262896   2266594   2270118  
  7000.000000   2273542   2276981   2280537   2284295   2288257  
  6990.000000   2292366   2296493   2300503   2304275   2307763  
  6980.000000   2310980   2314003   2316923   2319823   2322739  
  6970.000000   2325681   2328624   2331559   2334477   2337391  
  6960.000000   2340302   2343210   2346069   2348837   2351457  
  6950.000000   2353911   2356206   2358395   2360533   2362670  
  6940.000000   2364812   2366934   2368973   2370873   2372590  
  6930.000000   2374127   2375513   2376812   2378081   2379371  
  6920.000000   2380703   2382085   2383501   2384939   2386382  
  6910.000000   2387819   2389238   2390627   2391965   2393238  
  6900.000000   2394424   2395518   2396522   2397454   2398347  
  6890.000000   2399243   2400184   2401210   2402336   2403559  
  6880.000000   2404849   2406158   2407430   2408617   2409684  
  6870.000000   2410624   2411451   2412200   2412910   2413625  
  6860.000000   2414377   2415193   2416079   2417030   2418017  
  6850.000000   2418994   2419903   2420686   2421299   2421727  
  6840.000000   2421991   2422145   2422263   2422421   2422679  
  6830.000000   2423069   2423587   2424206   2424879   2425557  
  6820.000000   2426194   2426760   2427243   2427653   2428018  
  6810.000000   2428378   2428775   2429238   2429775   2430364  
  6800.000000   2430958   2431503   2431952   2432288   2432517  
  6790.000000   2432677   2432812   2432959   2433137   2433344  
  6780.000000   2433566   2433785   2433985   2434155   2434282  
  6770.000000   2434347   2434333   2434227   2434045   2433830  
  6760.000000   2433654   2433598   2433727   2434057   2434558  
  6750.000000   2435150   2435746   2436278   2436729   2437132  
  6740.000000   2437556   2438069   2438714   2439485   2440341  
  6730.000000   2441216   2442057   2442831   2443538   2444194  
  6720.000000   2444815   2445407   2445959   2446459   2446898  
  6710.000000   2447287   2447647   2448010   2448393   2448803  
  6700.000000   2449220   2449626   2449993   2450312   2450571  
  6690.000000   2450767   2450884   2450907   2450815   2450605  
  6680.000000   2450284   2449888   2449452   2449016   2448592  
  6670.000000   2448181   2447758   2447315   2446844   2446367  
  6660.000000   2445903   2445470   2445052   2444614   2444095  
  6650.000000   2443449   2442651   2441725   2440723   2439720  
  6640.000000   2438771   2437909   2437121   2436374   2435619  
  6630.000000   2434823   2433964   2433042   2432059   2431025  
  6620.000000   2429941   2428813   2427647   2426463   2425275  
  6610.000000   2424097   2422917   2421714   2420445   2419083  
  6600.000000   2417615   2416065   2414472   2412887   2411337  
  6590.000000   2409824   2408317   2406771   2405149   2403442  
  6580.000000   2401672   2399892   2398152   2396496   2394931  
  6570.000000   2393446   2392007   2390588   2389174   2387769  
  6560.000000   2386390   2385053   2383760   2382499   2381239  
  6550.000000   2379945   2378589   2377157   2375658   2374117  
  6540.000000   2372569   2371051   2369586   2368178   2366808  
  6530.000000   2365440   2364031   2362547   2360980   2359349  
  6520.000000   2357701   2356094   2354578   2353175   2351875  
  6510.000000   2350641   2349422   2348176   2346887   2345568  
  6500.000000   2344255   2342992   2341808   2340715   2339693  
  6490.000000   2338706   2337706   2336651   2335505   2334246  
  6480.000000   2332866   2331369   2329775   2328114   2326423  
  6470.000000   2324741   2323092   2321491   2319928   2318389  
  6460.000000   2316857   2315325   2313805   2312319   2310891  
  6450.000000   2309533   2308244   2307001   2305781   2304559  
  6440.000000   2303329   2302092   2300860   2299636   2298421  
  6430.000000   2297202   2295975   2294743   2293534   2292385  
  6420.000000   2291345   2290440   2289679   2289039   2288485  
  6410.000000   2287977   2287496   2287034   2286607   2286228  
  6400.000000   2285910   2285647   2285431   2285244   2285080  
  6390.000000   2284932   2284796   2284656   2284490   2284264  
  6380.000000   2283952   2283546   2283071   2282576   2282121  
  6370.000000   2281753   2281489   2281305   2281149   2280963  
  6360.000000   2280702   2280357   2279946   2279514   2279099  
  6350.000000   2278726   2278394   2278086   2277771   2277423  
  6340.000000   2277018   2276543   2275984   2275334   2274587  
  6330.000000   2273754   2272855   2271926   2271004   2270119  
  6320.000000   2269271   2268446   2267603   2266705   2265728  
  6310.000000   2264678   2263579   2262469   2261378   2260319  
  6300.000000   2259277   2258228   2257145   2256014   2254836  
  6290.000000   2253627   2252404   2251181   2249959   2248736  
  6280.000000   2247502   2246263   2245024   2243801   2242603  
  6270.000000   2241435   2240285   2239140   2237979   2236793  
  6260.000000   2235575   2234329   2233060   2231771   2230458  
  6250.000000   2229118   2227748   2226349   2224925   2223487  
  6240.000000   2222040   2220594   2219151   2217723   2216318  
  6230.000000   2214952   2213634   2212367   2211136   2209914  
  6220.000000   2208666   2207359   2205974   2204511   2202991  
  6210.000000   2201447   2199917   2198430   2197008   2195661  
  6200.000000   2194391   2193196   2192070   2191006   2189994  
  6190.000000   2189021   2188079   2187162   2186274   2185422  
  6180.000000   2184616   2183854   2183127   2182406   2181662  
  6170.000000   2180865   2180001   2179074   2178108   2177140  
  6160.000000   2176201   2175316   2174486   2173699   2172926  
  6150.000000   2172139   2171310   2170426   2169484   2168493  
  6140.000000   2167472   2166439   2165418   2164424   2163467  
  6130.000000   2162550   2161670   2160821   2160001   2159208  
  6120.000000   2158447   2157722   2157043   2156411   2155834  
  6110.000000   2155311   2154848   2154443   2154104   2153821  
  6100.000000   2153588   2153379   2153176   2152954   2152711  
  6090.000000   2152448   2152193   2151967   2151801   2151699  
  6080.000000   2151662   2151670   2151714   2151784   2151894  
  6070.000000   2152058   2152305   2152641   2153073   2153576  
  6060.000000   2154136   2154726   2155350   2156017   2156768  
  6050.000000   2157632   2158654   2159848   2161228   2162774  
  6040.000000   2164473   2166287   2168197   2170169   2172196  
  6030.000000   2174262   2176380   2178555   2180814   2183164  
  6020.000000   2185621   2188170   2190800   2193475   2196175  
  6010.000000   2198871   2201561   2204236   2206909   2209577  
  6000.000000   2212250   2214920   2217602   2220301   2223050  
  5990.000000   2225876   2228820   2231904   2235149   2238550  
  5980.000000   2242104   2245788   2249597   2253510   2257528  
  5970.000000   2261627   2265803   2270027   2274296   2278589  
  5960.000000   2282922   2287291   2291719   2296200   2300738  
  5950.000000   2305313   2309918   2314542   2319199   2323912  
  5940.000000   2328718   2333649   2338726   2343948   2349292  
  5930.000000   2354720   2360175   2365602   2370936   2376121  
  5920.000000   2381097   2385820   2390253   2394393   2398252  
  5910.000000   2401874   2405308   2408613   2411829   2414996  
  5900.000000   2418128   2421255   2424387   2427558   2430778  
  5890.000000   2434068   2437403   2440765   2444098   2447357  
  5880.000000   2450492   2453472   2456273   2458883   2461293  
  5870.000000   2463499   2465504   2467330   2469010   2470600  
  5860.000000   2472156   2473734   2475367   2477073   2478849  
  5850.000000   2480696   2482611   2484604   2486681   2488845  
  5840.000000   2491077   2493342   2495600   2497810   2499960  
  5830.000000   2502051   2504112   2506166   2508233   2510306  
  5820.000000   2512371   2514404   2516406   2518392   2520409  
  5810.000000   2522504   2524717   2527065   2529526   2532077  
  5800.000000   2534668   2537293   2539930   2542607   2545312  
  5790.000000   2548050   2550753   2553355   2555721   2557735  
  5780.000000   2559247   2560160   2560377   2559879   2558671  
  5770.000000   2556841   2554499   2551815   2548937   2546019  
  5760.000000   2543150   2540401   2537773   2535282   2532909  
  5750.000000   2530678   2528593   2526679   2524930   2523330  
  5740.000000   2521838   2520406   2518999   2517592   2516190  
  5730.000000   2514794   2513417   2512049   2510682   2509295  
  5720.000000   2507884   2506458   2505049   2503691   2502414  
  5710.000000   2501228   2500121   2499064   2498022   2496971  
  5700.000000   2495898   2494810   2493720   2492642   2491583  
  5690.000000   2490549   2489535   2488546   2487573   2486624  
  5680.000000   2485682   2484740   2483763   2482723   2481571  
  5670.000000   2480264   2478745   2476969   2474888   2472479  
  5660.000000   2469742   2466725   2463505   2460198   2456914  
  5650.000000   2453755   2450772   2447982   2445356   2442854  
  5640.000000   2440434   2438075   2435773   2433535   2431375  
  5630.000000   2429290   2427279   2425325   2423430   2421590  
  5620.000000   2419826   2418144   2416563   2415075   2413680  
  5610.000000   2412360   2411115   2409941   2408854   2407857  
  5600.000000   2406957   2406145   2405410   2404733   2404109  
  5590.000000   2403528   2402990   2402484   2401994   2401487  
  5580.000000   2400932   2400302   2399590   2398810   2397989  
  5570.000000   2397159   2396337   2395524   2394704   2393854  
  5560.000000   2392955   2392009   2391026   2390033   2389053  
  5550.000000   2388103   2387184   2386293   2385419   2384556  
  5540.000000   2383695   2382832   2381956   2381053   2380110  
  5530.000000   2379122   2378096   2377054   2376026   2375037  
  5520.000000   2374097   2373200   2372318   2371425   2370493  
  5510.000000   2369515   2368495   2367448   2366387   2365323  
  5500.000000   2364257   2363186   2362109   2361030   2359953  
  5490.000000   2358882   2357812   2356729   2355611   2354442  
  5480.000000   2353212   2351926   2350595   2349238   2347861  
  5470.000000   2346470   2345057   2343616   2342142   2340636  
  5460.000000   2339097   2337522   2335900   2334212   2332445  
  5450.000000   2330598   2328688   2326752   2324837   2322984  
  5440.000000   2321220   2319550   2317969   2316469   2315046  
  5430.000000   2313694   2312412   2311175   2309957   2308713  
  5420.000000   2307428   2306100   2304783   2303545   2302478  
  5410.000000   2301631   2301019   2300589   2300276   2300001  
  5400.000000   2299733   2299465   2299245   2299114   2299124  
  5390.000000   2299276   2299570   2299970   2300479   2301093  
  5380.000000   2301861   2302806   2303965   2305314   2306834  
  5370.000000   2308455   2310154   2311888   2313686   2315550  
  5360.000000   2317544   2319673   2321996   2324507   2327271  
  5350.000000   2330291   2333647   2337339   2341431   2345888  
  5340.000000   2350744   2355949   2361557   2367543   2373990  
  5330.000000   2380873   2388255   2396069   2404348   2413016  
  5320.000000   2422139   2431694   2441813   2452507   2463915  
  5310.000000   2476014   2488886   2502450   2516754   2531714  
  5300.000000   2547406   2563791   2580985   2598978   2617886  
  5290.000000   2637668   2658365   2679850   2702062   2724812  
  5280.000000   2748032   2771601   2795571   2819968   2844942  
  5270.000000   2870552   2896854   2923748   2951071   2978584  
  5260.000000   3006080   3033428   3060595   3087644   3114638  
  5250.000000   3141630   3168541   3195256   3221537   3247234  
  5240.000000   3272167   3296354   3319784   3342613   3364883  
  5230.000000   3386723   3408079   3428965   3449220   3468811  
  5220.000000   3487596   3505622   3522854   3539442   3555413  
  5210.000000   3570919   3585922   3600462   3614382   3627648  
  5200.000000   3640104   3651789   3662667   3672889   3682475  
  5190.000000   3691564   3700113   3708168   3715621   3722498  
  5180.000000   3728721   3734372   3739426   3743978   3747983  
  5170.000000   3751491   3754425   3756826   3758651   3759985  
  5160.000000   3760829   3761275   3761301   3760957   3760186  
  5150.000000   3759024   3757436   3755491   3753189   3750606  
  5140.000000   3747733   3744613   3741213   3737566   3733654  
  5130.000000   3729529   3725196   3720702   3716041   3711236  
  5120.000000   3706268   3701164   3695931   3690625   3685280  
  5110.000000   3679945   3674635   3669362   3664107   3658860  
  5100.000000   3653605   3648347   3643091   3637852   3632639  
  5090.000000   3627462   3622328   3617250   3612239   3607309  
  5080.000000   3602456   3597669   3592908   3588129   3583281  
  5070.000000   3578335   3573276   3568121   3562890   3557614  
  5060.000000   3552300   3546950   3541538   3536048   3530453  
  5050.000000   3524756   3518955   3513072   3507117   3501110  
  5040.000000   3495051   3488955   3482820   3476660   3470475  
  5030.000000   3464270   3458038   3451773   3445469   3439129  
  5020.000000   3432770   3426420   3420118   3413896   3407785  
  5010.000000   3401796   3395939   3390207   3384608   3379139  
  5000.000000   3373821   3368651   3363649   3358797   3354106  
  4990.000000   3349548   3345141   3340875   3336790   3332890  
  4980.000000   3329229   3325801   3322645   3319737   3317104  
  4970.000000   3314719   3312615   3310775   3309244   3308008  
  4960.000000   3307116   3306547   3306346   3306485   3307005  
  4950.000000   3307868   3309107   3310673   3312593   3314815  
  4940.000000   3317373   3320230   3323438   3326974   3330900  
  4930.000000   3335194   3339913   3345032   3350600   3356587  
  4920.000000   3363030   3369891   3377186   3384859   3392906  
  4910.000000   3401269   3409946   3418897   3428128   3437610  
  4900.000000   3447336   3457267   3467361   3477567   3487820  
  4890.000000   3498071   3508251   3518320   3528195   3537839  
  4880.000000   3547155   3556112   3564610   3572631   3580075  
  4870.000000   3586930   3593085   3598528   3603153   3606973  
  4860.000000   3609926   3612077   3613417   3614050   3613989  
  4850.000000   3613339   3612110   3610402   3608232   3605706  
  4840.000000   3602860   3599798   3596555   3593210   3589778  
  4830.000000   3586312   3582822   3579349   3575918   3572567  
  4820.000000   3569325   3566213   3563251   3560446   3557820  
  4810.000000   3555380   3553162   3551179   3549465   3548014  
  4800.000000   3546835   3545892   3545175   3544640   3544286  
  4790.000000   3544084   3544049   3544164   3544444   3544870  
  4780.000000   3545450   3546161   3547009   3547975   3549060  
  4770.000000   3550240   3551506   3552827   3554192   3555576  
  4760.000000   3556977   3558385   3559806   3561235   3562670  
  4750.000000   3564100   3565518   3566915   3568296   3569665  
  4740.000000   3571039   3572433   3573865   3575342   3576876  
  4730.000000   3578461   3580101   3581780   3583495   3585221  
  4720.000000   3586958   3588685   3590421   3592173   3593993  
  4710.000000   3595916   3598010   3600309   3602863   3605681  
  4700.000000   3608787   3612172   3615850   3619809   3624062  
  4690.000000   3628592   3633399   3638447   3643717   3649157  
  4680.000000   3654737   3660400   3666117   3671830   3677513  
  4670.000000   3683115   3688626   3694023   3699330   3704564  
  4660.000000   3709778   3715015   3720331   3725763   3731348  
  4650.000000   3737106   3743052   3749191   3755515   3762015  
  4640.000000   3768657   3775411   3782220   3789041   3795809  
  4630.000000   3802484   3809005   3815338   3821424   3827233  
  4620.000000   3832702   3837800   3842467   3846689   3850425  
  4610.000000   3853695   3856493   3858885   3860900   3862636  
  4600.000000   3864134   3865492   3866727   3867900   3868985  
  4590.000000   3869991   3870847   3871523   3871935   3872053  
  4580.000000   3871820   3871243   3870320   3869107   3867648  
  4570.000000   3866026   3864290   3862506   3860694   3858880  
  4560.000000   3857044   3855190   3853285   3851334   3849319  
  4550.000000   3847259   3845148   3843005   3840820   3838596  
  4540.000000   3836310   3833955   3831509   3828970   3826330  
  4530.000000   3823598   3820779   3817880   3814912   3811874  
  4520.000000   3808780   3805630   3802454   3799259   3796094  
  4510.000000   3792976   3789971   3787100   3784447   3782035  
  4500.000000   3779960   3778242   3776982   3776185   3775945  
  4490.000000   3776253   3777205   3778786   3781099   3784128  
  4480.000000   3787973   3792600   3798090   3804377   3811515  
  4470.000000   3819414   3828107   3837494   3847600   3858325  
  4460.000000   3869696   3881624   3894143   3907181   3920772  
  4450.000000   3934851   3949434   3964449   3979880   3995642  
  4440.000000   4011690   4027942   4044339   4060816   4077315  
  4430.000000   4093790   4110179   4126445   4142506   4158319  
  4420.000000   4173781   4188844   4203396   4217402   4230755  
  4410.000000   4243433   4255341   4266473   4276753   4286214  
  4400.000000   4294835   4302715   4309911   4316586   4322843  
  4390.000000   4328859   4334726   4340584   4346475   4352477  
  4380.000000   4358579   4364806   4371117   4377512   4383950  
  4370.000000   4390436   4396951   4403509   4410098   4416727  
  4360.000000   4423366   4430012   4436607   4443154   4449571  
  4350.000000   4455871   4461946   4467820   4473379   4478670  
  4340.000000   4483605   4488238   4492449   4496156   4499034  
  4330.000000   4500719   4500653   4498342   4493349   4485545  
  4320.000000   4475107   4462603   4448842   4434786   4421310  
  4310.000000   4409114   4398583   4389843   4382778   4377164  
  4300.000000   4372750   4369322   4366753   4364939   4363858  
  4290.000000   4363434   4363661   4364455   4365822   4367695  
  4280.000000   4370084   4372925   4376173   4379729   4383480  
  4270.000000   4387314   4391101   4394728   4398029   4400816  
  4260.000000   4402814   4403734   4403264   4401195   4397431  
  4250.000000   4392093   4385449   4377947   4370044   4362228  
  4240.000000   4354826   4348089   4342058   4336709   4331890  
  4230.000000   4327458   4323243   4319119   4314996   4310818  
  4220.000000   4306590   4302325   4298110   4294003   4290134  
  4210.000000   4286566   4283411   4280695   4278473   4276721  
  4200.000000   4275438   4274560   4274056   4273842   4273879  
  4190.000000   4274084   4274438   4274883   4275437   4276070  
  4180.000000   4276824   4277676   4278663   4279751   4280972  
  4170.000000   4282301   4283793   4285460   4287392   4289626  
  4160.000000   4292255   4295298   4298818   4302794   4307250  
  4150.000000   4312134   4317455   4323146   4329216   4335600  
  4140.000000   4342324   4349342   4356707   4364390   4372454  
  4130.000000   4380865   4389669   4398814   4408334   4418190  
  4120.000000   4428445   4439108   4450288   4462027   4474430  
  4110.000000   4487505   4501285   4515696   4530684   4546117  
  4100.000000   4561905   4577925   4594114   4610402   4626769  
  4090.000000   4643192   4659658   4676154   4692651   4709138  
  4080.000000   4725576   4741973   4758286   4774519   4790587  
  4070.000000   4806445   4821934   4836964   4851362   4865073  
  4060.000000   4877992   4890156   4901531   4912206   4922164  
  4050.000000   4931504   4940214   4948407   4956078   4963339  
  4040.000000   4970152   4976577   4982521   4988001   4992918  
  4030.000000   4997321   5001162   5004526   5007402   5009863  
  4020.000000   5011862   5013464   5014680   5015579   5016128  
  4010.000000   5016420   5016498   5016301   5015559   5014246  
  4000.000000   5012641  
##END= 
