##TITLE= Sample 034 By ssteindl date Donnerstag, November 22 2018
##JCAMP-DX= 4.24
##DATA TYPE= INFRARED SPECTRUM
##ORIGIN= Exported PE Spectrum Data File
##OWNER= Sandra Steindl
##DATE= 18/11/22
##TIME= 11:23:58.00
##SPECTROMETER/DATA SYSTEM= PERKIN-ELMER Frontier FT-IR/NIR IR
##INSTRUMENT PARAMETERS=
  APODIZATION=stark
  DETECTOR=INGAAS
##RESOLUTION= 16.000000
##DELTAX= -2.000000
##XUNITS= 1/CM
##YUNITS= A
##XFACTOR= 1.00
##YFACTOR= 0.00000011920928955078
##FIRSTX= 10000.00
##LASTX= 4000.00
##NPOINTS= 3001
##FIRSTY= 0.266014
##MAXY= 0.622808
##MINY= 0.199220
##XYDATA= (X++(Y..Y))
 10000.000000   2231483   2236134   2240845   2245578   2249885  
  9990.000000   2253033   2254293   2253322   2250254   2245706  
  9980.000000   2240420   2235075   2230021   2225412   2221318  
  9970.000000   2217960   2215689   2214866   2215549   2217336  
  9960.000000   2219310   2220382   2219608   2216729   2212221  
  9950.000000   2207327   2203482   2201923   2203141   2206815  
  9940.000000   2211927   2217112   2221078   2222764   2221534  
  9930.000000   2216999   2209093   2197983   2184245   2168927  
  9920.000000   2153538   2139855   2129513   2123637   2122536  
  9910.000000   2125709   2131989   2139896   2147932   2154817  
  9900.000000   2159646   2161831   2161262   2158140   2153246  
  9890.000000   2147649   2142773   2139862   2139762   2142542  
  9880.000000   2147475   2153311   2158626   2162475   2164545  
  9870.000000   2165384   2165900   2167060   2169307   2172434  
  9860.000000   2175677   2178012   2178656   2177191   2173742  
  9850.000000   2168660   2162379   2155194   2147269   2138827  
  9840.000000   2130285   2122428   2116246   2112762   2112629  
  9830.000000   2115961   2122162   2130120   2138422   2145710  
  9820.000000   2150982   2153714   2153943   2152106   2148927  
  9810.000000   2145201   2141643   2138772   2136833   2135817  
  9800.000000   2135495   2135537   2135562   2135232   2134192  
  9790.000000   2132126   2128694   2123649   2116949   2108874  
  9780.000000   2100144   2091786   2084990   2080700   2079369  
  9770.000000   2080716   2083845   2087487   2090457   2092010  
  9760.000000   2092056   2091111   2090022   2089656   2090592  
  9750.000000   2093019   2096775   2101462   2106630   2111789  
  9740.000000   2116463   2120098   2122115   2121979   2119375  
  9730.000000   2114370   2107475   2099601   2091828   2085178  
  9720.000000   2080349   2077660   2077006   2078018   2080128  
  9710.000000   2082715   2085143   2086816   2087271   2086223  
  9700.000000   2083731   2080166   2076247   2072801   2070603  
  9690.000000   2070103   2071356   2074051   2077668   2081703  
  9680.000000   2085751   2089596   2093073   2096040   2098263  
  9670.000000   2099500   2099549   2098390   2096207   2093378  
  9660.000000   2090325   2087404   2084753   2082342   2079968  
  9650.000000   2077446   2074627   2071466   2067966   2064118  
  9640.000000   2059910   2055311   2050379   2045283   2040309  
  9630.000000   2035803   2032054   2029259   2027504   2026836  
  9620.000000   2027324   2029058   2032096   2036285   2041189  
  9610.000000   2045986   2049684   2051314   2050340   2046843  
  9600.000000   2041599   2035865   2030981   2027985   2027292  
  9590.000000   2028681   2031451   2034714   2037692   2039812  
  9580.000000   2040766   2040326   2038352   2034719   2029496  
  9570.000000   2023048   2016143   2009893   2005512   2004065  
  9560.000000   2006085   2011527   2019637   2029280   2039066  
  9550.000000   2047736   2054306   2058170   2059141   2057306  
  9540.000000   2053069   2046959   2039702   2032027   2024641  
  9530.000000   2018083   2012641   2008427   2005340   2003320  
  9520.000000   2002270   2002227   2003184   2005076   2007656  
  9510.000000   2010472   2012943   2014451   2014545   2013044  
  9500.000000   2010148   2006373   2002482   1999283   1997477  
  9490.000000   1997437   1999092   2001870   2004809   2006784  
  9480.000000   2006816   2004353   1999458   1992816   1985576  
  9470.000000   1979046   1974319   1971996   1972038   1973895  
  9460.000000   1976706   1979631   1982028   1983596   1984315  
  9450.000000   1984349   1983897   1983078   1981915   1980318  
  9440.000000   1978215   1975578   1972534   1969328   1966287  
  9430.000000   1963739   1961906   1960887   1960576   1960727  
  9420.000000   1960966   1960909   1960270   1958945   1957048  
  9410.000000   1954857   1952703   1950853   1949418   1948343  
  9400.000000   1947483   1946693   1945941   1945303   1944899  
  9390.000000   1944759   1944729   1944485   1943647   1941943  
  9380.000000   1939379   1936266   1933177   1930737   1929393  
  9370.000000   1929239   1929968   1931036   1931876   1932124  
  9360.000000   1931732   1930937   1930137   1929686   1929720  
  9350.000000   1930101   1930469   1930427   1929701   1928251  
  9340.000000   1926286   1924180   1922363   1921171   1920729  
  9330.000000   1920882   1921232   1921250   1920460   1918559  
  9320.000000   1915552   1911761   1907784   1904355   1902107  
  9310.000000   1901408   1902219   1904166   1906664   1909123  
  9300.000000   1911110   1912418   1913070   1913187   1912903  
  9290.000000   1912245   1911177   1909623   1907581   1905164  
  9280.000000   1902610   1900252   1898392   1897277   1896975  
  9270.000000   1897455   1898544   1900015   1901575   1902861  
  9260.000000   1903513   1903169   1901657   1898972   1895383  
  9250.000000   1891299   1887186   1883458   1880388   1878163  
  9240.000000   1876891   1876740   1877896   1880578   1884812  
  9230.000000   1890286   1896225   1901508   1904984   1905767  
  9220.000000   1903609   1898921   1892768   1886435   1881100  
  9210.000000   1877449   1875607   1875241   1875773   1876701  
  9200.000000   1877677   1878669   1879753   1881091   1882707  
  9190.000000   1884552   1886514   1888468   1890318   1891899  
  9180.000000   1893004   1893299   1892437   1890146   1886413  
  9170.000000   1881599   1876385   1871622   1868028   1866012  
  9160.000000   1865534   1866162   1867193   1867953   1867966  
  9150.000000   1867081   1865392   1863180   1860782   1858513  
  9140.000000   1856604   1855198   1854366   1854095   1854266  
  9130.000000   1854644   1854910   1854748   1853932   1852393  
  9120.000000   1850242   1847691   1845018   1842400   1839932  
  9110.000000   1837552   1835173   1832718   1830195   1827710  
  9100.000000   1825417   1823528   1822262   1821859   1822527  
  9090.000000   1824387   1827402   1831280   1835478   1839217  
  9080.000000   1841709   1842348   1840984   1837944   1834004  
  9070.000000   1830131   1827229   1825827   1825952   1827188  
  9060.000000   1828894   1830471   1831526   1831997   1832049  
  9050.000000   1831986   1832018   1832245   1832615   1833028  
  9040.000000   1833408   1833743   1834088   1834477   1834875  
  9030.000000   1835146   1835081   1834476   1833186   1831210  
  9020.000000   1828690   1825876   1823060   1820522   1818497  
  9010.000000   1817133   1816466   1816412   1816773   1817278  
  9000.000000   1817635   1817630   1817187   1816432   1815631  
  8990.000000   1815125   1815188   1815942   1817303   1818995  
  8980.000000   1820653   1821911   1822530   1822387   1821482  
  8970.000000   1819871   1817665   1814992   1812014   1808956  
  8960.000000   1806101   1803764   1802198   1801568   1801877  
  8950.000000   1802990   1804620   1806441   1808141   1809456  
  8940.000000   1810201   1810240   1809566   1808220   1806370  
  8930.000000   1804232   1802098   1800235   1798834   1798002  
  8920.000000   1797761   1798119   1799050   1800573   1802682  
  8910.000000   1805321   1808274   1811177   1813574   1815023  
  8900.000000   1815249   1814221   1812208   1809661   1807083  
  8890.000000   1804860   1803182   1802036   1801270   1800709  
  8880.000000   1800233   1799812   1799465   1799197   1798948  
  8870.000000   1798583   1797962   1796999   1795761   1794440  
  8860.000000   1793328   1792720   1792824   1793710   1795283  
  8850.000000   1797360   1799720   1802156   1804502   1806601  
  8840.000000   1808333   1809555   1810160   1810054   1809239  
  8830.000000   1807791   1805887   1803766   1801714   1800045  
  8820.000000   1799038   1798946   1799883   1801844   1804615  
  8810.000000   1807831   1810993   1813598   1815254   1815774  
  8800.000000   1815231   1813893   1812151   1810371   1808830  
  8790.000000   1807657   1806867   1806408   1806227   1806302  
  8780.000000   1806609   1807113   1807697   1808201   1808428  
  8770.000000   1808245   1807636   1806737   1805815   1805159  
  8760.000000   1805003   1805406   1806248   1807247   1808057  
  8750.000000   1808377   1808041   1807080   1805700   1804240  
  8740.000000   1803060   1802472   1802648   1803584   1805110  
  8730.000000   1806899   1808578   1809764   1810186   1809696  
  8720.000000   1808329   1806263   1803814   1801355   1799278  
  8710.000000   1797907   1797467   1798042   1799561   1801820  
  8700.000000   1804509   1807291   1809858   1811998   1813607  
  8690.000000   1814701   1815379   1815766   1815984   1816108  
  8680.000000   1816203   1816307   1816470   1816719   1817047  
  8670.000000   1817378   1817572   1817460   1816914   1815931  
  8660.000000   1814669   1813448   1812646   1812600   1813457  
  8650.000000   1815134   1817325   1819622   1821678   1823297  
  8640.000000   1824504   1825445   1826319   1827203   1828028  
  8630.000000   1828577   1828630   1828091   1827106   1826063  
  8620.000000   1825495   1825893   1827520   1830302   1833817  
  8610.000000   1837445   1840534   1842630   1843581   1843575  
  8600.000000   1843038   1842498   1842405   1843015   1844330  
  8590.000000   1846123   1848027   1849634   1850607   1850756  
  8580.000000   1850072   1848730   1847009   1845260   1843802  
  8570.000000   1842883   1842627   1843021   1843942   1845187  
  8560.000000   1846537   1847792   1848804   1849486   1849820  
  8550.000000   1849838   1849625   1849296   1849008   1848909  
  8540.000000   1849143   1849793   1850889   1852369   1854103  
  8530.000000   1855901   1857561   1858910   1859844   1860359  
  8520.000000   1860549   1860598   1860732   1861177   1862104  
  8510.000000   1863591   1865599   1867985   1870519   1872938  
  8500.000000   1874984   1876467   1877293   1877487   1877176  
  8490.000000   1876562   1875883   1875355   1875132   1875269  
  8480.000000   1875712   1876328   1876942   1877414   1877672  
  8470.000000   1877745   1877737   1877795   1878040   1878519  
  8460.000000   1879199   1879972   1880731   1881400   1881986  
  8450.000000   1882560   1883226   1884074   1885130   1886367  
  8440.000000   1887700   1889057   1890393   1891723   1893073  
  8430.000000   1894459   1895834   1897088   1898058   1898602  
  8420.000000   1898636   1898187   1897363   1896337   1895266  
  8410.000000   1894265   1893367   1892557   1891784   1891015  
  8400.000000   1890223   1889400   1888523   1887572   1886523  
  8390.000000   1885393   1884248   1883216   1882451   1882082  
  8380.000000   1882141   1882545   1883106   1883594   1883820  
  8370.000000   1883700   1883280   1882690   1882077   1881521  
  8360.000000   1881000   1880396   1879564   1878417   1876980  
  8350.000000   1875406   1873918   1872741   1872006   1871724  
  8340.000000   1871770   1871941   1872035   1871895   1871465  
  8330.000000   1870751   1869833   1868793   1867725   1866701  
  8320.000000   1865785   1865037   1864508   1864262   1864351  
  8310.000000   1864832   1865731   1867046   1868715   1870609  
  8300.000000   1872519   1874164   1875249   1875517   1874846  
  8290.000000   1873273   1871020   1868421   1865853   1863636  
  8280.000000   1861954   1860842   1860198   1859869   1859686  
  8270.000000   1859550   1859391   1859203   1858966   1858681  
  8260.000000   1858332   1857928   1857500   1857107   1856815  
  8250.000000   1856645   1856548   1856379   1855942   1855034  
  8240.000000   1853529   1851420   1848832   1845990   1843160  
  8230.000000   1840596   1838480   1836914   1835905   1835397  
  8220.000000   1835274   1835393   1835583   1835673   1835507  
  8210.000000   1834984   1834077   1832849   1831434   1829997  
  8200.000000   1828686   1827591   1826722   1826014   1825353  
  8190.000000   1824619   1823709   1822563   1821167   1819547  
  8180.000000   1817757   1815870   1813972   1812142   1810449  
  8170.000000   1808931   1807584   1806378   1805262   1804214  
  8160.000000   1803239   1802395   1801749   1801359   1801219  
  8150.000000   1801237   1801246   1801031   1800403   1799251  
  8140.000000   1797589   1795544   1793322   1791142   1789174  
  8130.000000   1787502   1786113   1784918   1783800   1782649  
  8120.000000   1781396   1780026   1778571   1777102   1775699  
  8110.000000   1774440   1773379   1772540   1771915   1771464  
  8100.000000   1771133   1770858   1770589   1770280   1769902  
  8090.000000   1769416   1768779   1767928   1766806   1765379  
  8080.000000   1763670   1761774   1759853   1758107   1756724  
  8070.000000   1755836   1755469   1755546   1755898   1756309  
  8060.000000   1756564   1756493   1756001   1755079   1753798  
  8050.000000   1752292   1750731   1749290   1748118   1747307  
  8040.000000   1746872   1746749   1746797   1746848   1746731  
  8030.000000   1746339   1745637   1744681   1743583   1742474  
  8020.000000   1741454   1740562   1739773   1738999   1738145  
  8010.000000   1737122   1735892   1734467   1732906   1731300  
  8000.000000   1729748   1728341   1727149   1726223   1725582  
  7990.000000   1725222   1725105   1725166   1725317   1725453  
  7980.000000   1725483   1725332   1724980   1724435   1723755  
  7970.000000   1723000   1722230   1721475   1720740   1720015  
  7960.000000   1719294   1718609   1718029   1717660   1717605  
  7950.000000   1717930   1718614   1719545   1720521   1721308  
  7940.000000   1721702   1721589   1720988   1720029   1718922  
  7930.000000   1717872   1717027   1716428   1716020   1715688  
  7920.000000   1715312   1714828   1714237   1713620   1713075  
  7910.000000   1712700   1712536   1712570   1712741   1712963  
  7900.000000   1713159   1713256   1713214   1712990   1712563  
  7890.000000   1711906   1711027   1709960   1708790   1707635  
  7880.000000   1706635   1705911   1705554   1705592   1706001  
  7870.000000   1706711   1707623   1708632   1709638   1710563  
  7860.000000   1711355   1712009   1712565   1713100   1713713  
  7850.000000   1714477   1715415   1716460   1717466   1718240  
  7840.000000   1718602   1718449   1717788   1716761   1715577  
  7830.000000   1714480   1713647   1713170   1713013   1713066  
  7820.000000   1713169   1713183   1713006   1712595   1711949  
  7810.000000   1711096   1710073   1708926   1707712   1706502  
  7800.000000   1705376   1704415   1703677   1703188   1702928  
  7790.000000   1702852   1702898   1703007   1703130   1703227  
  7780.000000   1703254   1703151   1702855   1702299   1701454  
  7770.000000   1700333   1699023   1697656   1696390   1695364  
  7760.000000   1694660   1694291   1694190   1694255   1694370  
  7750.000000   1694453   1694465   1694424   1694375   1694368  
  7740.000000   1694421   1694511   1694565   1694490   1694200  
  7730.000000   1693652   1692871   1691942   1690993   1690145  
  7720.000000   1689469   1688961   1688531   1688046   1687371  
  7710.000000   1686432   1685249   1683944   1682705   1681734  
  7700.000000   1681180   1681101   1681444   1682066   1682775  
  7690.000000   1683376   1683727   1683746   1683432   1682835  
  7680.000000   1682044   1681150   1680239   1679374   1678600  
  7670.000000   1677944   1677426   1677067   1676878   1676878  
  7660.000000   1677059   1677398   1677833   1678273   1678611  
  7650.000000   1678735   1678577   1678100   1677338   1676359  
  7640.000000   1675267   1674164   1673146   1672286   1671643  
  7630.000000   1671263   1671176   1671391   1671874   1672553  
  7620.000000   1673311   1674019   1674570   1674901   1675022  
  7610.000000   1674987   1674886   1674780   1674698   1674612  
  7600.000000   1674481   1674267   1673984   1673686   1673462  
  7590.000000   1673394   1673520   1673824   1674235   1674675  
  7580.000000   1675088   1675468   1675856   1676305   1676851  
  7570.000000   1677470   1678089   1678599   1678914   1678999  
  7560.000000   1678897   1678708   1678562   1678569   1678790  
  7550.000000   1679227   1679827   1680512   1681202   1681828  
  7540.000000   1682342   1682707   1682906   1682930   1682803  
  7530.000000   1682565   1682296   1682073   1681981   1682072  
  7520.000000   1682377   1682891   1683594   1684456   1685448  
  7510.000000   1686541   1687708   1688917   1690144   1691371  
  7500.000000   1692607   1693871   1695200   1696609   1698095  
  7490.000000   1699607   1701075   1702417   1703575   1704529  
  7480.000000   1705309   1705976   1706606   1707261   1707985  
  7470.000000   1708802   1709721   1710747   1711877   1713100  
  7460.000000   1714388   1715697   1716978   1718190   1719334  
  7450.000000   1720434   1721548   1722720   1723976   1725290  
  7440.000000   1726614   1727888   1729095   1730265   1731483  
  7430.000000   1732847   1734441   1736281   1738320   1740453  
  7420.000000   1742570   1744593   1746507   1748350   1750193  
  7410.000000   1752092   1754070   1756105   1758145   1760138  
  7400.000000   1762055   1763890   1765659   1767368   1769008  
  7390.000000   1770553   1771974   1773264   1774450   1775597  
  7380.000000   1776789   1778099   1779561   1781170   1782878  
  7370.000000   1784630   1786373   1788080   1789747   1791387  
  7360.000000   1793017   1794651   1796296   1797952   1799612  
  7350.000000   1801259   1802865   1804390   1805798   1807070  
  7340.000000   1808219   1809298   1810383   1811554   1812857  
  7330.000000   1814290   1815809   1817339   1818816   1820207  
  7320.000000   1821527   1822821   1824142   1825521   1826957  
  7310.000000   1828424   1829901   1831391   1832934   1834586  
  7300.000000   1836389   1838340   1840371   1842369   1844215  
  7290.000000   1845831   1847210   1848411   1849533   1850666  
  7280.000000   1851854   1853082   1854301   1855460   1856544  
  7270.000000   1857583   1858643   1859787   1861048   1862402  
  7260.000000   1863787   1865120   1866348   1867449   1868460  
  7250.000000   1869432   1870425   1871475   1872607   1873832  
  7240.000000   1875185   1876707   1878460   1880474   1882746  
  7230.000000   1885193   1887706   1890140   1892400   1894434  
  7220.000000   1896286   1898038   1899822   1901748   1903925  
  7210.000000   1906406   1909229   1912386   1915855   1919574  
  7200.000000   1923468   1927435   1931387   1935250   1939008  
  7190.000000   1942672   1946305   1949954   1953662   1957409  
  7180.000000   1961151   1964812   1968346   1971743   1975054  
  7170.000000   1978365   1981778   1985368   1989168   1993151  
  7160.000000   1997258   2001399   2005511   2009541   2013485  
  7150.000000   2017358   2021213   2025110   2029135   2033348  
  7140.000000   2037808   2042514   2047441   2052508   2057640  
  7130.000000   2062758   2067843   2072908   2078026   2083266  
  7120.000000   2088696   2094314   2100083   2105901   2111682  
  7110.000000   2117353   2122923   2128447   2134040   2139807  
  7100.000000   2145828   2152106   2158583   2165138   2171647  
  7090.000000   2178007   2184185   2190210   2196177   2202197  
  7080.000000   2208363   2214709   2221205   2227752   2234233  
  7070.000000   2240535   2246609   2252471   2258198   2263897  
  7060.000000   2269658   2275534   2281525   2287598   2293710  
  7050.000000   2299833   2305960   2312096   2318235   2324342  
  7040.000000   2330350   2336181   2341773   2347120   2352278  
  7030.000000   2357357   2362475   2367728   2373143   2378695  
  7020.000000   2384299   2389880   2395373   2400763   2406053  
  7010.000000   2411259   2416368   2421354   2426166   2430775  
  7000.000000   2435175   2439408   2443528   2447603   2451659  
  6990.000000   2455710   2459728   2463704   2467629   2471532  
  6980.000000   2475429   2479338   2483220   2487012   2490625  
  6970.000000   2493995   2497097   2499974   2502700   2505375  
  6960.000000   2508062   2510795   2513552   2516309   2519031  
  6950.000000   2521721   2524387   2527049   2529691   2532278  
  6940.000000   2534741   2537024   2539095   2540977   2542728  
  6930.000000   2544426   2546132   2547875   2549637   2551387  
  6920.000000   2553087   2554732   2556335   2557937   2559565  
  6910.000000   2561236   2562930   2564620   2566265   2567839  
  6900.000000   2569320   2570699   2571960   2573092   2574082  
  6890.000000   2574938   2575691   2576394   2577107   2577882  
  6880.000000   2578733   2579649   2580594   2581540   2582477  
  6870.000000   2583431   2584439   2585537   2586724   2587963  
  6860.000000   2589187   2590332   2591361   2592285   2593151  
  6850.000000   2594022   2594938   2595905   2596881   2597811  
  6840.000000   2598644   2599364   2599989   2600561   2601118  
  6830.000000   2601675   2602213   2602701   2603104   2603419  
  6820.000000   2603668   2603902   2604166   2604493   2604876  
  6810.000000   2605286   2605678   2606015   2606271   2606446  
  6800.000000   2606548   2606597   2606609   2606607   2606612  
  6790.000000   2606649   2606735   2606871   2607038   2607193  
  6780.000000   2607283   2607269   2607139   2606923   2606680  
  6770.000000   2606485   2606393   2606428   2606577   2606792  
  6760.000000   2607020   2607209   2607329   2607367   2607322  
  6750.000000   2607199   2607008   2606761   2606485   2606218  
  6740.000000   2606005   2605889   2605899   2606044   2606313  
  6730.000000   2606682   2607124   2607612   2608122   2608624  
  6720.000000   2609091   2609490   2609805   2610036   2610211  
  6710.000000   2610378   2610582   2610855   2611193   2611563  
  6700.000000   2611909   2612183   2612349   2612410   2612377  
  6690.000000   2612273   2612097   2611837   2611464   2610962  
  6680.000000   2610336   2609626   2608884   2608171   2607511  
  6670.000000   2606903   2606303   2605669   2604960   2604170  
  6660.000000   2603312   2602416   2601497   2600556   2599574  
  6650.000000   2598536   2597440   2596322   2595231   2594229  
  6640.000000   2593348   2592585   2591891   2591200   2590440  
  6630.000000   2589570   2588576   2587476   2586291   2585037  
  6620.000000   2583709   2582297   2580791   2579207   2577579  
  6610.000000   2575966   2574423   2572988   2571658   2570405  
  6600.000000   2569167   2567886   2566510   2565013   2563393  
  6590.000000   2561672   2559883   2558066   2556260   2554499  
  6580.000000   2552799   2551165   2549581   2548024   2546467  
  6570.000000   2544887   2543275   2541636   2539975   2538299  
  6560.000000   2536605   2534886   2533137   2531370   2529615  
  6550.000000   2527918   2526331   2524888   2523590   2522405  
  6540.000000   2521270   2520116   2518888   2517558   2516128  
  6530.000000   2514621   2513066   2511482   2509878   2508251  
  6520.000000   2506605   2504945   2503291   2501667   2500099  
  6510.000000   2498601   2497181   2495841   2494579   2493398  
  6500.000000   2492300   2491281   2490329   2489413   2488494  
  6490.000000   2487525   2486469   2485298   2484007   2482605  
  6480.000000   2481123   2479600   2478084   2476624   2475260  
  6470.000000   2474016   2472886   2471839   2470817   2469757  
  6460.000000   2468603   2467332   2465948   2464490   2463006  
  6450.000000   2461538   2460113   2458733   2457390   2456073  
  6440.000000   2454784   2453530   2452326   2451176   2450073  
  6430.000000   2448996   2447928   2446857   2445803   2444798  
  6420.000000   2443891   2443113   2442479   2441971   2441555  
  6410.000000   2441192   2440855   2440536   2440243   2439980  
  6400.000000   2439749   2439527   2439290   2439004   2438659  
  6390.000000   2438254   2437809   2437343   2436874   2436411  
  6380.000000   2435956   2435518   2435113   2434774   2434529  
  6370.000000   2434399   2434375   2434418   2434471   2434472  
  6360.000000   2434373   2434152   2433816   2433387   2432890  
  6350.000000   2432347   2431769   2431172   2430571   2429992  
  6340.000000   2429455   2428974   2428533   2428098   2427614  
  6330.000000   2427035   2426333   2425518   2424625   2423716  
  6320.000000   2422836   2422017   2421250   2420504   2419728  
  6310.000000   2418884   2417941   2416901   2415775   2414592  
  6300.000000   2413379   2412156   2410935   2409718   2408499  
  6290.000000   2407267   2406009   2404720   2403399   2402061  
  6280.000000   2400725   2399418   2398157   2396952   2395794  
  6270.000000   2394662   2393530   2392378   2391192   2389969  
  6260.000000   2388708   2387406   2386054   2384643   2383165  
  6250.000000   2381629   2380055   2378477   2376926   2375425  
  6240.000000   2373971   2372548   2371127   2369687   2368215  
  6230.000000   2366718   2365209   2363704   2362211   2360728  
  6220.000000   2359248   2357766   2356287   2354818   2353373  
  6210.000000   2351953   2350555   2349160   2347755   2346333  
  6200.000000   2344908   2343504   2342155   2340884   2339700  
  6190.000000   2338592   2337541   2336525   2335533   2334564  
  6180.000000   2333626   2332720   2331845   2330984   2330125  
  6170.000000   2329254   2328377   2327505   2326655   2325835  
  6160.000000   2325040   2324252   2323446   2322607   2321732  
  6150.000000   2320839   2319951   2319092   2318270   2317482  
  6140.000000   2316715   2315956   2315200   2314448   2313706  
  6130.000000   2312966   2312217   2311434   2310604   2309728  
  6120.000000   2308840   2307992   2307245   2306643   2306200  
  6110.000000   2305892   2305671   2305482   2305293   2305095  
  6100.000000   2304914   2304788   2304756   2304831   2305013  
  6090.000000   2305271   2305578   2305896   2306209   2306489  
  6080.000000   2306730   2306912   2307038   2307110   2307166  
  6070.000000   2307250   2307430   2307760   2308284   2309008  
  6060.000000   2309921   2310982   2312155   2313397   2314693  
  6050.000000   2316020   2317379   2318753   2320146   2321548  
  6040.000000   2322976   2324440   2325973   2327590   2329311  
  6030.000000   2331127   2333032   2335003   2337035   2339125  
  6020.000000   2341289   2343538   2345886   2348320   2350826  
  6010.000000   2353366   2355913   2358440   2360947   2363435  
  6000.000000   2365927   2368435   2370982   2373575   2376225  
  5990.000000   2378931   2381697   2384516   2387390   2390307  
  5980.000000   2393273   2396287   2399365   2402516   2405758  
  5970.000000   2409085   2412491   2415944   2419421   2422891  
  5960.000000   2426356   2429814   2433293   2436807   2440375  
  5950.000000   2443995   2447666   2451379   2455141   2458967  
  5940.000000   2462885   2466920   2471088   2475384   2479781  
  5930.000000   2484242   2488716   2493159   2497524   2501773  
  5920.000000   2505866   2509765   2513436   2516858   2520027  
  5910.000000   2522965   2525704   2528295   2530778   2533203  
  5900.000000   2535599   2538010   2540464   2543008   2545662  
  5890.000000   2548453   2551359   2554351   2557366   2560342  
  5880.000000   2563216   2565946   2568505   2570878   2573061  
  5870.000000   2575051   2576853   2578488   2579994   2581432  
  5860.000000   2582873   2584387   2586024   2587806   2589722  
  5850.000000   2591741   2593825   2595939   2598063   2600183  
  5840.000000   2602302   2604423   2606560   2608729   2610957  
  5830.000000   2613269   2615689   2618220   2620848   2623532  
  5820.000000   2626227   2628889   2631495   2634043   2636554  
  5810.000000   2639051   2641550   2644056   2646549   2649026  
  5800.000000   2651473   2653923   2656387   2658916   2661500  
  5790.000000   2664136   2666745   2669254   2671535   2673489  
  5780.000000   2674987   2675943   2676260   2675896   2674826  
  5770.000000   2673110   2670846   2668210   2665382   2662562  
  5760.000000   2659878   2657425   2655200   2653190   2651331  
  5750.000000   2649595   2647953   2646409   2644961   2643605  
  5740.000000   2642324   2641089   2639877   2638669   2637466  
  5730.000000   2636267   2635078   2633888   2632684   2631448  
  5720.000000   2630181   2628898   2627638   2626439   2625333  
  5710.000000   2624326   2623398   2622512   2621637   2620753  
  5700.000000   2619866   2619002   2618191   2617452   2616784  
  5690.000000   2616172   2615583   2614997   2614396   2613787  
  5680.000000   2613170   2612556   2611931   2611275   2610541  
  5670.000000   2609681   2608634   2607349   2605780   2603907  
  5660.000000   2601729   2599289   2596653   2593922   2591190  
  5650.000000   2588549   2586045   2583694   2581469   2579332  
  5640.000000   2577242   2575177   2573139   2571144   2569220  
  5630.000000   2567387   2565660   2564038   2562524   2561109  
  5620.000000   2559796   2558571   2557427   2556338   2555285  
  5610.000000   2554244   2553212   2552189   2551197   2550252  
  5600.000000   2549373   2548557   2547796   2547073   2546377  
  5590.000000   2545702   2545054   2544435   2543846   2543275  
  5580.000000   2542703   2542106   2541469   2540785   2540059  
  5570.000000   2539299   2538511   2537695   2536843   2535950  
  5560.000000   2535016   2534056   2533088   2532136   2531211  
  5550.000000   2530313   2529429   2528541   2527634   2526708  
  5540.000000   2525771   2524838   2523925   2523038   2522176  
  5530.000000   2521335   2520506   2519689   2518882   2518085  
  5520.000000   2517291   2516490   2515668   2514815   2513928  
  5510.000000   2513012   2512073   2511112   2510119   2509077  
  5500.000000   2507967   2506783   2505536   2504257   2502984  
  5490.000000   2501751   2500561   2499401   2498231   2497014  
  5480.000000   2495724   2494362   2492945   2491506   2490067  
  5470.000000   2488636   2487202   2485743   2484234   2482663  
  5460.000000   2481025   2479324   2477562   2475740   2473861  
  5450.000000   2471935   2469986   2468054   2466188   2464426  
  5440.000000   2462790   2461275   2459859   2458513   2457217  
  5430.000000   2455957   2454734   2453543   2452376   2451210  
  5420.000000   2450035   2448842   2447660   2446524   2445498  
  5410.000000   2444610   2443880   2443274   2442758   2442285  
  5400.000000   2441854   2441474   2441205   2441088   2441174  
  5390.000000   2441453   2441917   2442518   2443246   2444092  
  5380.000000   2445097   2446284   2447695   2449310   2451118  
  5370.000000   2453050   2455082   2457165   2459324   2461554  
  5360.000000   2463921   2466432   2469158   2472103   2475348  
  5350.000000   2478904   2482861   2487220   2492047   2497298  
  5340.000000   2503004   2509101   2515632   2522555   2529944  
  5330.000000   2537758   2546063   2554791   2563988   2573587  
  5320.000000   2583671   2594225   2605392   2617181   2629739  
  5310.000000   2643033   2657149   2671997   2687630   2703961  
  5300.000000   2721072   2738927   2757657   2777262   2797875  
  5290.000000   2819463   2842077   2865580   2889905   2914842  
  5280.000000   2940309   2966173   2992481   3019256   3046648  
  5270.000000   3074709   3103477   3132828   3162575   3192467  
  5260.000000   3222295   3251950   3281422   3310806   3340171  
  5250.000000   3369562   3398857   3427899   3456387   3484143  
  5240.000000   3510966   3536891   3561921   3586253   3609939  
  5230.000000   3633128   3655750   3677810   3699119   3719633  
  5220.000000   3739191   3757853   3775585   3792570   3808853  
  5210.000000   3824624   3839862   3854632   3868775   3882254  
  5200.000000   3894883   3906688   3917599   3927759   3937176  
  5190.000000   3946000   3954194   3961823   3968786   3975121  
  5180.000000   3980747   3985750   3990098   3993894   3997098  
  5170.000000   3999779   4001875   4003450   4004466   4005019  
  5160.000000   4005096   4004783   4004040   4002906   4001311  
  5150.000000   3999287   3996793   3993898   3990603   3986986  
  5140.000000   3983046   3978840   3974354   3969642   3964709  
  5130.000000   3959625   3954405   3949104   3943712   3938246  
  5120.000000   3932674   3927005   3921227   3915371   3909446  
  5110.000000   3903482   3897479   3891447   3885381   3879292  
  5100.000000   3873195   3867123   3861102   3855158   3849294  
  5090.000000   3843508   3837780   3832102   3826462   3820867  
  5080.000000   3815313   3809799   3804300   3798792   3793233  
  5070.000000   3787599   3781868   3776044   3770129   3764138  
  5060.000000   3758068   3751923   3745683   3739346   3732900  
  5050.000000   3726354   3719714   3712998   3706210   3699365  
  5040.000000   3692459   3685504   3678503   3671473   3664426  
  5030.000000   3657381   3650345   3643327   3636330   3629357  
  5020.000000   3622415   3615515   3608676   3601910   3595244  
  5010.000000   3588689   3582269   3575988   3569864   3563887  
  5000.000000   3558061   3552358   3546775   3541281   3535894  
  4990.000000   3530609   3525478   3520523   3515806   3511339  
  4980.000000   3507159   3503241   3499598   3496191   3493039  
  4970.000000   3490120   3487475   3485094   3483023   3481240  
  4960.000000   3479780   3478608   3477760   3477205   3476997  
  4950.000000   3477118   3477625   3478496   3479778   3481434  
  4940.000000   3483500   3485931   3488761   3491945   3495514  
  4930.000000   3499425   3503709   3508324   3513312   3518640  
  4920.000000   3524355   3530429   3536897   3543719   3550911  
  4910.000000   3558428   3566275   3574414   3582845   3591535  
  4900.000000   3600470   3609606   3618906   3628323   3637808  
  4890.000000   3647323   3656810   3666231   3675507   3684584  
  4880.000000   3693360   3701783   3709760   3717270   3724244  
  4870.000000   3730693   3736558   3741852   3746509   3750547  
  4860.000000   3753909   3756639   3758717   3760220   3761158  
  4850.000000   3761628   3761649   3761318   3760656   3759750  
  4840.000000   3758616   3757326   3755886   3754346   3752706  
  4830.000000   3751007   3749263   3747522   3745816   3744191  
  4820.000000   3742679   3741297   3740053   3738934   3737933  
  4810.000000   3737032   3736235   3735539   3734969   3734532  
  4800.000000   3734259   3734151   3734230   3734487   3734932  
  4790.000000   3735546   3736330   3737258   3738324   3739499  
  4780.000000   3740774   3742124   3743545   3745019   3746542  
  4770.000000   3748097   3749681   3751281   3752897   3754522  
  4760.000000   3756163   3757816   3759483   3761155   3762821  
  4750.000000   3764468   3766084   3767664   3769208   3770723  
  4740.000000   3772216   3773695   3775160   3776608   3778038  
  4730.000000   3779445   3780834   3782209   3783585   3784966  
  4720.000000   3786362   3787769   3789194   3790633   3792106  
  4710.000000   3793624   3795228   3796943   3798814   3800860  
  4700.000000   3803110   3805566   3808241   3811127   3814231  
  4690.000000   3817544   3821067   3824779   3828665   3832680  
  4680.000000   3836790   3840935   3845077   3849166   3853185  
  4670.000000   3857109   3860950   3864710   3868423   3872111  
  4660.000000   3875821   3879590   3883474   3887519   3891771  
  4650.000000   3896258   3900988   3905947   3911094   3916381  
  4640.000000   3921744   3927131   3932491   3937797   3943016  
  4630.000000   3948137   3953126   3957968   3962617   3967049  
  4620.000000   3971211   3975077   3978600   3981769   3984554  
  4610.000000   3986976   3989037   3990799   3992294   3993605  
  4600.000000   3994762   3995831   3996805   3997708   3998498  
  4590.000000   3999177   3999693   4000045   4000183   4000103  
  4580.000000   3999758   3999135   3998196   3996945   3995375  
  4570.000000   3993529   3991440   3989180   3986797   3984358  
  4560.000000   3981891   3979439   3977005   3974612   3972249  
  4550.000000   3969921   3967610   3965307   3962988   3960636  
  4540.000000   3958235   3955779   3953270   3950717   3948140  
  4530.000000   3945549   3942960   3940373   3937800   3935235  
  4520.000000   3932703   3930206   3927783   3925442   3923230  
  4510.000000   3921142   3919226   3917471   3915938   3914630  
  4500.000000   3913638   3912983   3912778   3913043   3913890  
  4490.000000   3915318   3917423   3920184   3923683   3927884  
  4480.000000   3932862   3938568   3945061   3952279   3960267  
  4470.000000   3968946   3978346   3988376   3999050   4010272  
  4460.000000   4022043   4034267   4046939   4059968   4073346  
  4450.000000   4086994   4100904   4115014   4129321   4143788  
  4440.000000   4158411   4173165   4188028   4202967   4217926  
  4430.000000   4232860   4247690   4262369   4276813   4290993  
  4420.000000   4304826   4318300   4331335   4343928   4355996  
  4410.000000   4367534   4378457   4388757   4398358   4407273  
  4400.000000   4415462   4422985   4429854   4436180   4442021  
  4390.000000   4447515   4452735   4457816   4462818   4467841  
  4380.000000   4472905   4478053   4483258   4488518   4493789  
  4370.000000   4499066   4504332   4509612   4514924   4520306  
  4360.000000   4525775   4531354   4537019   4542771   4548536  
  4350.000000   4554306   4559978   4565563   4570973   4576267  
  4340.000000   4581402   4586453   4591338   4595987   4600094  
  4330.000000   4603289   4605015   4604752   4602041   4596704  
  4320.000000   4588862   4579013   4567896   4556407   4545366  
  4310.000000   4535440   4526987   4520129   4514740   4510603  
  4300.000000   4507459   4505102   4503399   4502258   4501654  
  4290.000000   4501526   4501867   4502606   4503746   4505230  
  4280.000000   4507064   4509198   4511597   4514193   4516913  
  4270.000000   4519703   4522502   4525275   4527931   4530346  
  4260.000000   4532286   4533470   4533564   4532300   4529506  
  4250.000000   4525213   4519614   4513089   4506069   4499021  
  4240.000000   4492292   4486147   4480662   4475837   4471552  
  4230.000000   4467683   4464081   4460631   4457244   4453855  
  4220.000000   4450450   4447015   4443608   4440270   4437117  
  4210.000000   4434217   4431694   4429589   4427966   4426800  
  4200.000000   4426080   4425728   4425697   4425904   4426322  
  4190.000000   4426893   4427625   4428481   4429484   4430590  
  4180.000000   4431808   4433079   4434411   4435760   4437171  
  4170.000000   4438657   4440320   4442217   4444465   4447110  
  4160.000000   4450232   4453817   4457890   4462396   4467337  
  4150.000000   4472651   4478353   4484393   4490803   4497544  
  4140.000000   4504664   4512129   4519998   4528241   4536914  
  4130.000000   4545975   4555469   4565340   4575624   4586276  
  4120.000000   4597343   4608808   4620743   4633160   4646143  
  4110.000000   4659708   4673920   4688757   4704218   4720212  
  4100.000000   4736661   4753425   4770399   4787467   4804572  
  4090.000000   4821676   4838775   4855877   4872975   4890067  
  4080.000000   4907111   4924094   4940960   4957708   4974268  
  4070.000000   4990628   5006671   5022343   5037492   5052070  
  4060.000000   5065955   5079168   5091654   5103491   5114654  
  4050.000000   5125238   5135216   5144685   5153615   5162095  
  4040.000000   5170065   5177576   5184524   5190931   5196694  
  4030.000000   5201868   5206403   5210393   5213824   5216775  
  4020.000000   5219196   5221148   5222618   5223668   5224260  
  4010.000000   5224490   5224404   5223986   5223028   5221547  
  4000.000000   5219800  
##END= 
