##TITLE= Sample 008 By ssteindl date Donnerstag, November 22 2018
##JCAMP-DX= 4.24
##DATA TYPE= INFRARED SPECTRUM
##ORIGIN= Exported PE Spectrum Data File
##OWNER= Sandra Steindl
##DATE= 18/11/22
##TIME= 12:44:36.00
##SPECTROMETER/DATA SYSTEM= PERKIN-ELMER Frontier FT-IR/NIR IR
##INSTRUMENT PARAMETERS=
  APODIZATION=stark
  DETECTOR=INGAAS
##RESOLUTION= 16.000000
##DELTAX= -2.000000
##XUNITS= 1/CM
##YUNITS= A
##XFACTOR= 1.00
##YFACTOR= 0.00000011920928955078
##FIRSTX= 10000.00
##LASTX= 4000.00
##NPOINTS= 3001
##FIRSTY= 0.327773
##MAXY= 0.643020
##MINY= 0.232638
##XYDATA= (X++(Y..Y))
 10000.000000   2749559   2753415   2757129   2760025   2761030  
  9990.000000   2759334   2754994   2748929   2742371   2736433  
  9980.000000   2731670   2728058   2725005   2721914   2718561  
  9970.000000   2715389   2713219   2712883   2714649   2717980  
  9960.000000   2721593   2723933   2723790   2720761   2715432  
  9950.000000   2709063   2703126   2698722   2696291   2695596  
  9940.000000   2695983   2696728   2697304   2697425   2696998  
  9930.000000   2695933   2694145   2691550   2688220   2684430  
  9920.000000   2680635   2677330   2674862   2673373   2672780  
  9910.000000   2672976   2673903   2675689   2678497   2682350  
  9900.000000   2686906   2691315   2694432   2695048   2692449  
  9890.000000   2686594   2678289   2668862   2659808   2652356  
  9880.000000   2647185   2644480   2643986   2645373   2648248  
  9870.000000   2652320   2657183   2662324   2667035   2670567  
  9860.000000   2672319   2671972   2669634   2665666   2660669  
  9850.000000   2655170   2649640   2644392   2639667   2635695  
  9840.000000   2632661   2630699   2629772   2629664   2630035  
  9830.000000   2630523   2630915   2631138   2631278   2631373  
  9820.000000   2631414   2631259   2630828   2630219   2629827  
  9810.000000   2630328   2632387   2636468   2642453   2649707  
  9800.000000   2657136   2663624   2668327   2670907   2671495  
  9790.000000   2670427   2667975   2664130   2658675   2651415  
  9780.000000   2642481   2632544   2622690   2614197   2608009  
  9770.000000   2604529   2603426   2603920   2605055   2606067  
  9760.000000   2606549   2606373   2605593   2604178   2602092  
  9750.000000   2599257   2595859   2592352   2589508   2588117  
  9740.000000   2588711   2591320   2595424   2600191   2604776  
  9730.000000   2608642   2611665   2614002   2615873   2617241  
  9720.000000   2617818   2617105   2614744   2610729   2605553  
  9710.000000   2600103   2595363   2592140   2590785   2591248  
  9700.000000   2593118   2595941   2599215   2602553   2605491  
  9690.000000   2607558   2608255   2607273   2604689   2601035  
  9680.000000   2597229   2594182   2592441   2591853   2591587  
  9670.000000   2590446   2587383   2582013   2574837   2567117  
  9660.000000   2560428   2556044   2554499   2555389   2557602  
  9650.000000   2559756   2560724   2560019   2557849   2555005  
  9640.000000   2552475   2551171   2551669   2554125   2558317  
  9630.000000   2563635   2569237   2574034   2576940   2577017  
  9620.000000   2573777   2567383   2558703   2549192   2540544  
  9610.000000   2534265   2531279   2531715   2534896   2539613  
  9600.000000   2544389   2547959   2549454   2548666   2545962  
  9590.000000   2542186   2538371   2535447   2533995   2534049  
  9580.000000   2535148   2536435   2536998   2536130   2533584  
  9570.000000   2529620   2524874   2520116   2515944   2512611  
  9560.000000   2509997   2507772   2505619   2503470   2501508  
  9550.000000   2500142   2499700   2500329   2501831   2503777  
  9540.000000   2505657   2507005   2507558   2507137   2505677  
  9530.000000   2503038   2499106   2493797   2487298   2480116  
  9520.000000   2473128   2467361   2463722   2462699   2464168  
  9510.000000   2467482   2471635   2475659   2478840   2480930  
  9500.000000   2482085   2482724   2483325   2484221   2485549  
  9490.000000   2487185   2488857   2490159   2490700   2490138  
  9480.000000   2488308   2485259   2481283   2476889   2472669  
  9470.000000   2469183   2466749   2465415   2464908   2464850  
  9460.000000   2464854   2464774   2464655   2464756   2465316  
  9450.000000   2466446   2468012   2469636   2470830   2471085  
  9440.000000   2470069   2467623   2463853   2459017   2453528  
  9430.000000   2447872   2442566   2438126   2434926   2433159  
  9420.000000   2432696   2433170   2434053   2434882   2435406  
  9410.000000   2435632   2435750   2435933   2436214   2436330  
  9400.000000   2435890   2434447   2431867   2428374   2424630  
  9390.000000   2421454   2419533   2419153   2420086   2421789  
  9380.000000   2423631   2425238   2426582   2427974   2429798  
  9370.000000   2432244   2435121   2437866   2439787   2440317  
  9360.000000   2439270   2436876   2433666   2430265   2427136  
  9350.000000   2424531   2422454   2420886   2419808   2419323  
  9340.000000   2419478   2420185   2421084   2421582   2421041  
  9330.000000   2418990   2415392   2410604   2405324   2400254  
  9320.000000   2395920   2392499   2389891   2387908   2386490  
  9310.000000   2385838   2386334   2388345   2391961   2396843  
  9300.000000   2402235   2407148   2410676   2412274   2411949  
  9290.000000   2410179   2407733   2405371   2403663   2402876  
  9280.000000   2402990   2403776   2404880   2405929   2406539  
  9270.000000   2406382   2405158   2402729   2399155   2394824  
  9260.000000   2390362   2386502   2383836   2382646   2382829  
  9250.000000   2383935   2385310   2386301   2386451   2385624  
  9240.000000   2383961   2381798   2379461   2377239   2375303  
  9230.000000   2373797   2372823   2372472   2372770   2373636  
  9220.000000   2374808   2375825   2376082   2374978   2372130  
  9210.000000   2367471   2361337   2354321   2347212   2340748  
  9200.000000   2335518   2331826   2329668   2328816   2328889  
  9190.000000   2329534   2330474   2331605   2332976   2334704  
  9180.000000   2336896   2339507   2342332   2344938   2346807  
  9170.000000   2347436   2346588   2344353   2341223   2337969  
  9160.000000   2335440   2334281   2334680   2336320   2338463  
  9150.000000   2340203   2340741   2339677   2337118   2333639  
  9140.000000   2330026   2327022   2325089   2324315   2324467  
  9130.000000   2325125   2325876   2326440   2326680   2326602  
  9120.000000   2326220   2325589   2324747   2323796   2322910  
  9110.000000   2322319   2322261   2322775   2323648   2324365  
  9100.000000   2324295   2322847   2319709   2315031   2309438  
  9090.000000   2303886   2299358   2296637   2296109   2297695  
  9080.000000   2300883   2304907   2308946   2312280   2314378  
  9070.000000   2314935   2313948   2311668   2308621   2305438  
  9060.000000   2302775   2301109   2300637   2301198   2302324  
  9050.000000   2303462   2304162   2304305   2304064   2303862  
  9040.000000   2304115   2305027   2306457   2307923   2308816  
  9030.000000   2308585   2306990   2304162   2300574   2296868  
  9020.000000   2293645   2291338   2290126   2290002   2290805  
  9010.000000   2292306   2294212   2296187   2297846   2298815  
  9000.000000   2298815   2297771   2295880   2293566   2291375  
  8990.000000   2289770   2288995   2288989   2289414   2289829  
  8980.000000   2289832   2289269   2288228   2287033   2286053  
  8970.000000   2285551   2285563   2285879   2286128   2285872  
  8960.000000   2284757   2282609   2279521   2275814   2271970  
  8950.000000   2268527   2265944   2264517   2264250   2264894  
  8940.000000   2265998   2267057   2267673   2267667   2267137  
  8930.000000   2266350   2265604   2265047   2264609   2264014  
  8920.000000   2262955   2261245   2258998   2256613   2254677  
  8910.000000   2253706   2253915   2255109   2256707   2257965  
  8900.000000   2258233   2257219   2255095   2252432   2249966  
  8890.000000   2248344   2247889   2248533   2249863   2251286  
  8880.000000   2252241   2252349   2251515   2249875   2247724  
  8870.000000   2245383   2243118   2241094   2239367   2237918  
  8860.000000   2236683   2235620   2234716   2234022   2233603  
  8850.000000   2233543   2233872   2234542   2235403   2236210  
  8840.000000   2236700   2236619   2235823   2234285   2232129  
  8830.000000   2229580   2226933   2224488   2222525   2221266  
  8820.000000   2220852   2221298   2222455   2224020   2225555  
  8810.000000   2226607   2226818   2226057   2224488   2222525  
  8800.000000   2220732   2219613   2219473   2220268   2221656  
  8790.000000   2223086   2224031   2224143   2223383   2221995  
  8780.000000   2220429   2219169   2218582   2218817   2219779  
  8770.000000   2221203   2222753   2224159   2225272   2226128  
  8760.000000   2226886   2227797   2229048   2230715   2232655  
  8750.000000   2234559   2236017   2236635   2236194   2234695  
  8740.000000   2232413   2229751   2227119   2224744   2222614  
  8730.000000   2220500   2218114   2215304   2212200   2209265  
  8720.000000   2207142   2206474   2207585   2210397   2214381  
  8710.000000   2218755   2222740   2225775   2227706   2228675  
  8700.000000   2229035   2229053   2228838   2228259   2227112  
  8690.000000   2225264   2222827   2220200   2217959   2216699  
  8680.000000   2216768   2218204   2220653   2223557   2226289  
  8670.000000   2228363   2229548   2229845   2229439   2228536  
  8660.000000   2227321   2225896   2224343   2222764   2221335  
  8650.000000   2220293   2219892   2220324   2221630   2223675  
  8640.000000   2226133   2228590   2230623   2231904   2232280  
  8630.000000   2231792   2230684   2229310   2228060   2227245  
  8620.000000   2227039   2227447   2228326   2229442   2230539  
  8610.000000   2231422   2231980   2232208   2232159   2231913  
  8600.000000   2231532   2231055   2230512   2229944   2229436  
  8590.000000   2229089   2228999   2229205   2229650   2230206  
  8580.000000   2230674   2230909   2230837   2230530   2230153  
  8570.000000   2229924   2230024   2230507   2231281   2232099  
  8560.000000   2232662   2232662   2231906   2230335   2228070  
  8550.000000   2225364   2222556   2220025   2218122   2217135  
  8540.000000   2217207   2218344   2220381   2223030   2225889  
  8530.000000   2228551   2230672   2232034   2232581   2232386  
  8520.000000   2231658   2230600   2229412   2228185   2226970  
  8510.000000   2225751   2224518   2223296   2222163   2221269  
  8500.000000   2220769   2220827   2221532   2222904   2224838  
  8490.000000   2227136   2229530   2231738   2233531   2234776  
  8480.000000   2235473   2235740   2235772   2235776   2235904  
  8470.000000   2236207   2236628   2237037   2237288   2237279  
  8460.000000   2236972   2236408   2235660   2234808   2233900  
  8450.000000   2232952   2231967   2230973   2230046   2229311  
  8440.000000   2228893   2228886   2229291   2230024   2230917  
  8430.000000   2231790   2232507   2233011   2233328   2233513  
  8420.000000   2233621   2233642   2233514   2233135   2232429  
  8410.000000   2231405   2230177   2228958   2227971   2227411  
  8400.000000   2227349   2227755   2228474   2229313   2230070  
  8390.000000   2230603   2230826   2230707   2230249   2229464  
  8380.000000   2228384   2227054   2225548   2223963   2222407  
  8370.000000   2220982   2219755   2218760   2217991   2217430  
  8360.000000   2217054   2216848   2216789   2216829   2216888  
  8350.000000   2216847   2216587   2216004   2215066   2213831  
  8340.000000   2212452   2211147   2210136   2209601   2209626  
  8330.000000   2210195   2211171   2212335   2213412   2214133  
  8320.000000   2214285   2213741   2212495   2210651   2208416  
  8310.000000   2206041   2203769   2201784   2200186   2198997  
  8300.000000   2198175   2197666   2197411   2197384   2197548  
  8290.000000   2197873   2198281   2198677   2198954   2199035  
  8280.000000   2198909   2198611   2198223   2197804   2197375  
  8270.000000   2196887   2196245   2195347   2194144   2192680  
  8260.000000   2191085   2189559   2188283   2187392   2186912  
  8250.000000   2186788   2186887   2187073   2187217   2187245  
  8240.000000   2187109   2186791   2186270   2185530   2184555  
  8230.000000   2183349   2181948   2180404   2178790   2177160  
  8220.000000   2175550   2173967   2172396   2170822   2169235  
  8210.000000   2167654   2166111   2164666   2163376   2162303  
  8200.000000   2161484   2160939   2160639   2160513   2160437  
  8190.000000   2160260   2159831   2159048   2157889   2156421  
  8180.000000   2154778   2153113   2151535   2150077   2148676  
  8170.000000   2147213   2145563   2143670   2141569   2139394  
  8160.000000   2137312   2135465   2133902   2132567   2131314  
  8150.000000   2129975   2128435   2126675   2124796   2122968  
  8140.000000   2121363   2120083   2119116   2118354   2117636  
  8130.000000   2116820   2115849   2114761   2113680   2112741  
  8120.000000   2112036   2111535   2111100   2110496   2109497  
  8110.000000   2107944   2105839   2103330   2100699   2098271  
  8100.000000   2096325   2095035   2094413   2094354   2094661  
  8090.000000   2095145   2095652   2096104   2096465   2096705  
  8080.000000   2096767   2096542   2095907   2094754   2093063  
  8070.000000   2090899   2088442   2085916   2083545   2081497  
  8060.000000   2079839   2078556   2077566   2076776   2076108  
  8050.000000   2075528   2075018   2074572   2074161   2073737  
  8040.000000   2073238   2072620   2071883   2071072   2070279  
  8030.000000   2069588   2069061   2068678   2068356   2067943  
  8020.000000   2067281   2066243   2064782   2062951   2060902  
  8010.000000   2058849   2057022   2055610   2054715   2054337  
  8000.000000   2054369   2054641   2054959   2055159   2055145  
  7990.000000   2054895   2054459   2053910   2053321   2052714  
  7980.000000   2052075   2051343   2050462   2049400   2048184  
  7970.000000   2046901   2045678   2044657   2043940   2043578  
  7960.000000   2043541   2043738   2044031   2044270   2044329  
  7950.000000   2044120   2043623   2042867   2041940   2040944  
  7940.000000   2039993   2039172   2038526   2038060   2037739  
  7930.000000   2037524   2037371   2037271   2037234   2037292  
  7920.000000   2037468   2037759   2038116   2038439   2038601  
  7910.000000   2038461   2037920   2036932   2035540   2033857  
  7900.000000   2032062   2030353   2028914   2027878   2027297  
  7890.000000   2027148   2027326   2027690   2028084   2028380  
  7880.000000   2028499   2028421   2028180   2027840   2027478  
  7870.000000   2027149   2026886   2026678   2026497   2026291  
  7860.000000   2026021   2025664   2025224   2024742   2024278  
  7850.000000   2023911   2023706   2023707   2023911   2024274  
  7840.000000   2024710   2025117   2025390   2025457   2025277  
  7830.000000   2024855   2024225   2023439   2022555   2021626  
  7820.000000   2020698   2019808   2018980   2018224   2017520  
  7810.000000   2016828   2016084   2015232   2014237   2013121  
  7800.000000   2011960   2010880   2010012   2009449   2009209  
  7790.000000   2009211   2009295   2009270   2008971   2008319  
  7780.000000   2007345   2006180   2005011   2004013   2003295  
  7770.000000   2002857   2002602   2002363   2001969   2001295  
  7760.000000   2000300   1999045   1997662   1996327   1995196  
  7750.000000   1994385   1993932   1993808   1993926   1994167  
  7740.000000   1994405   1994524   1994431   1994054   1993359  
  7730.000000   1992340   1991042   1989547   1987975   1986463  
  7720.000000   1985140   1984100   1983379   1982954   1982749  
  7710.000000   1982665   1982601   1982477   1982241   1981868  
  7700.000000   1981352   1980697   1979922   1979060   1978172  
  7690.000000   1977338   1976649   1976177   1975944   1975915  
  7680.000000   1975986   1976033   1975937   1975637   1975146  
  7670.000000   1974534   1973903   1973329   1972837   1972375  
  7660.000000   1971848   1971154   1970230   1969101   1967866  
  7650.000000   1966685   1965721   1965094   1964841   1964910  
  7640.000000   1965174   1965462   1965606   1965464   1964967  
  7630.000000   1964114   1962992   1961742   1960548   1959585  
  7620.000000   1958985   1958806   1959014   1959505   1960119  
  7610.000000   1960704   1961142   1961385   1961441   1961352  
  7600.000000   1961157   1960856   1960416   1959777   1958900  
  7590.000000   1957784   1956504   1955185   1953981   1953020  
  7580.000000   1952367   1952013   1951877   1951853   1951839  
  7570.000000   1951776   1951666   1951551   1951506   1951582  
  7560.000000   1951812   1952170   1952607   1953036   1953376  
  7550.000000   1953547   1953514   1953275   1952887   1952451  
  7540.000000   1952102   1951976   1952182   1952767   1953690  
  7530.000000   1954827   1955993   1957000   1957711   1958075  
  7520.000000   1958154   1958079   1958021   1958110   1958399  
  7510.000000   1958838   1959312   1959679   1959839   1959773  
  7500.000000   1959552   1959315   1959219   1959383   1959853  
  7490.000000   1960598   1961534   1962551   1963561   1964498  
  7480.000000   1965336   1966066   1966682   1967183   1967573  
  7470.000000   1967880   1968172   1968533   1969057   1969799  
  7460.000000   1970761   1971860   1972964   1973917   1974607  
  7450.000000   1974996   1975138   1975167   1975255   1975570  
  7440.000000   1976229   1977274   1978679   1980357   1982199  
  7430.000000   1984076   1985872   1987483   1988836   1989896  
  7420.000000   1990674   1991230   1991668   1992116   1992701  
  7410.000000   1993513   1994596   1995932   1997450   1999044  
  7400.000000   2000602   2002023   2003236   2004206   2004936  
  7390.000000   2005465   2005865   2006225   2006645   2007219  
  7380.000000   2008025   2009106   2010461   2012051   2013792  
  7370.000000   2015582   2017303   2018849   2020140   2021143  
  7360.000000   2021886   2022452   2022966   2023559   2024333  
  7350.000000   2025320   2026477   2027692   2028822   2029754  
  7340.000000   2030443   2030943   2031383   2031924   2032698  
  7330.000000   2033769   2035108   2036610   2038125   2039511  
  7320.000000   2040675   2041588   2042283   2042829   2043314  
  7310.000000   2043821   2044414   2045131   2045983   2046955  
  7300.000000   2048008   2049087   2050134   2051102   2051973  
  7290.000000   2052759   2053494   2054214   2054939   2055658  
  7280.000000   2056336   2056933   2057435   2057867   2058307  
  7270.000000   2058856   2059608   2060614   2061856   2063253  
  7260.000000   2064691   2066055   2067274   2068322   2069239  
  7250.000000   2070083   2070931   2071832   2072825   2073915  
  7240.000000   2075113   2076414   2077828   2079346   2080968  
  7230.000000   2082667   2084428   2086224   2088055   2089915  
  7220.000000   2091826   2093793   2095833   2097934   2100101  
  7210.000000   2102325   2104622   2107003   2109498   2112121  
  7200.000000   2114889   2117797   2120842   2124004   2127275  
  7190.000000   2130624   2134027   2137432   2140796   2144061  
  7180.000000   2147209   2150233   2153174   2156080   2159015  
  7170.000000   2162015   2165105   2168274   2171520   2174825  
  7160.000000   2178203   2181658   2185210   2188847   2192562  
  7150.000000   2196315   2200094   2203891   2207755   2211745  
  7140.000000   2215953   2220441   2225253   2230375   2235773  
  7130.000000   2241370   2247102   2252877   2258632   2264277  
  7120.000000   2269758   2275019   2280070   2284949   2289759  
  7110.000000   2294608   2299613   2304839   2310315   2316009  
  7100.000000   2321878   2327875   2333984   2340208   2346567  
  7090.000000   2353060   2359658   2366294   2372889   2379367  
  7080.000000   2385697   2391878   2397952   2403964   2409951  
  7070.000000   2415918   2421854   2427738   2433565   2439351  
  7060.000000   2445126   2450922   2456748   2462594   2468426  
  7050.000000   2474209   2479917   2485551   2491124   2496660  
  7040.000000   2502172   2507665   2513133   2518587   2524046  
  7030.000000   2529552   2535141   2540830   2546592   2552359  
  7020.000000   2558030   2563515   2568741   2573698   2578412  
  7010.000000   2582950   2587378   2591759   2596129   2600520  
  7000.000000   2604938   2609399   2613892   2618403   2622878  
  6990.000000   2627263   2631486   2635508   2639308   2642920  
  6980.000000   2646383   2649755   2653061   2656318   2659512  
  6970.000000   2662640   2665702   2668728   2671736   2674748  
  6960.000000   2677737   2680666   2683462   2686083   2688511  
  6950.000000   2690791   2692989   2695195   2697463   2699812  
  6940.000000   2702204   2704581   2706870   2709029   2711034  
  6930.000000   2712899   2714641   2716286   2717844   2719331  
  6920.000000   2720749   2722116   2723440   2724735   2725997  
  6910.000000   2727221   2728386   2729490   2730527   2731518  
  6900.000000   2732478   2733426   2734361   2735275   2736150  
  6890.000000   2736980   2737770   2738544   2739325   2740134  
  6880.000000   2740974   2741837   2742709   2743589   2744486  
  6870.000000   2745421   2746404   2747428   2748449   2749407  
  6860.000000   2750236   2750904   2751418   2751833   2752223  
  6850.000000   2752661   2753181   2753778   2754404   2755005  
  6840.000000   2755531   2755965   2756312   2756600   2756851  
  6830.000000   2757082   2757297   2757502   2757702   2757917  
  6820.000000   2758163   2758451   2758771   2759104   2759414  
  6810.000000   2759681   2759892   2760056   2760183   2760283  
  6800.000000   2760349   2760371   2760333   2760244   2760127  
  6790.000000   2760021   2759957   2759944   2759953   2759929  
  6780.000000   2759809   2759558   2759174   2758700   2758197  
  6770.000000   2757726   2757315   2756967   2756654   2756356  
  6760.000000   2756062   2755782   2755531   2755314   2755111  
  6750.000000   2754876   2754560   2754133   2753605   2753022  
  6740.000000   2752454   2751960   2751572   2751284   2751062  
  6730.000000   2750872   2750700   2750558   2750474   2750468  
  6720.000000   2750528   2750608   2750640   2750559   2750330  
  6710.000000   2749955   2749470   2748917   2748325   2747700  
  6700.000000   2747029   2746307   2745546   2744798   2744121  
  6690.000000   2743580   2743192   2742941   2742757   2742562  
  6680.000000   2742277   2741853   2741263   2740501   2739559  
  6670.000000   2738430   2737105   2735598   2733951   2732245  
  6660.000000   2730571   2729017   2727624   2726389   2725257  
  6650.000000   2724161   2723033   2721852   2720619   2719374  
  6640.000000   2718148   2716965   2715819   2714693   2713558  
  6630.000000   2712392   2711179   2709906   2708558   2707119  
  6620.000000   2705576   2703933   2702212   2700458   2698715  
  6610.000000   2697011   2695341   2693669   2691937   2690103  
  6600.000000   2688154   2686129   2684091   2682122   2680271  
  6590.000000   2678556   2676947   2675393   2673841   2672259  
  6580.000000   2670639   2668994   2667342   2665688   2664031  
  6570.000000   2662357   2660658   2658936   2657205   2655483  
  6560.000000   2653783   2652113   2650474   2648871   2647320  
  6550.000000   2645849   2644483   2643238   2642101   2641030  
  6540.000000   2639964   2638843   2637627   2636304   2634895  
  6530.000000   2633432   2631951   2630474   2629012   2627572  
  6520.000000   2626158   2624780   2623445   2622153   2620883  
  6510.000000   2619605   2618281   2616886   2615419   2613901  
  6500.000000   2612368   2610850   2609364   2607904   2606455  
  6490.000000   2605009   2603574   2602184   2600883   2599705  
  6480.000000   2598654   2597700   2596788   2595855   2594855  
  6470.000000   2593769   2592608   2591392   2590142   2588865  
  6460.000000   2587561   2586226   2584875   2583535   2582247  
  6450.000000   2581046   2579951   2578953   2578025   2577134  
  6440.000000   2576257   2575388   2574531   2573687   2572849  
  6430.000000   2571991   2571087   2570117   2569098   2568068  
  6420.000000   2567087   2566204   2565441   2564778   2564168  
  6410.000000   2563556   2562909   2562232   2561563   2560954  
  6400.000000   2560445   2560041   2559715   2559411   2559079  
  6390.000000   2558684   2558226   2557721   2557198   2556673  
  6380.000000   2556151   2555625   2555090   2554558   2554051  
  6370.000000   2553603   2553239   2552966   2552763   2552594  
  6360.000000   2552412   2552176   2551860   2551445   2550922  
  6350.000000   2550285   2549531   2548670   2547728   2546758  
  6340.000000   2545819   2544972   2544250   2543658   2543159  
  6330.000000   2542704   2542230   2541699   2541087   2540401  
  6320.000000   2539653   2538859   2538024   2537149   2536226  
  6310.000000   2535255   2534235   2533172   2532068   2530921  
  6300.000000   2529720   2528462   2527146   2525792   2524423  
  6290.000000   2523072   2521759   2520494   2519266   2518056  
  6280.000000   2516841   2515605   2514339   2513041   2511711  
  6270.000000   2510347   2508945   2507501   2506017   2504505  
  6260.000000   2502976   2501446   2499921   2498402   2496878  
  6250.000000   2495345   2493798   2492246   2490700   2489171  
  6240.000000   2487660   2486158   2484650   2483120   2481560  
  6230.000000   2479975   2478379   2476785   2475202   2473629  
  6220.000000   2472056   2470473   2468876   2467269   2465663  
  6210.000000   2464070   2462497   2460942   2459401   2457871  
  6200.000000   2456362   2454894   2453493   2452183   2450973  
  6190.000000   2449854   2448804   2447792   2446799   2445810  
  6180.000000   2444830   2443863   2442916   2441982   2441050  
  6170.000000   2440102   2439129   2438127   2437108   2436084  
  6160.000000   2435071   2434074   2433087   2432098   2431091  
  6150.000000   2430051   2428974   2427856   2426708   2425544  
  6140.000000   2424387   2423263   2422203   2421234   2420373  
  6130.000000   2419617   2418952   2418345   2417767   2417191  
  6120.000000   2416608   2416019   2415435   2414861   2414299  
  6110.000000   2413736   2413161   2412564   2411956   2411358  
  6100.000000   2410811   2410349   2410006   2409790   2409695  
  6090.000000   2409695   2409760   2409853   2409950   2410023  
  6080.000000   2410069   2410086   2410100   2410137   2410245  
  6070.000000   2410460   2410819   2411326   2411976   2412738  
  6060.000000   2413583   2414480   2415420   2416397   2417424  
  6050.000000   2418501   2419635   2420814   2422037   2423296  
  6040.000000   2424606   2425976   2427429   2428966   2430587  
  6030.000000   2432269   2433996   2435753   2437548   2439397  
  6020.000000   2441328   2443355   2445478   2447668   2449888  
  6010.000000   2452091   2454248   2456344   2458390   2460396  
  6000.000000   2462381   2464348   2466301   2468234   2470157  
  5990.000000   2472086   2474058   2476105   2478262   2480543  
  5980.000000   2482951   2485472   2488087   2490774   2493519  
  5970.000000   2496303   2499118   2501947   2504788   2507630  
  5960.000000   2510484   2513349   2516240   2519154   2522092  
  5950.000000   2525037   2527989   2530948   2533942   2537010  
  5940.000000   2540198   2543544   2547059   2550724   2554489  
  5930.000000   2558291   2562064   2565760   2569349   2572825  
  5920.000000   2576189   2579445   2582588   2585609   2588490  
  5910.000000   2591214   2593770   2596156   2598376   2600455  
  5900.000000   2602424   2604341   2606262   2608260   2610387  
  5890.000000   2612684   2615151   2617766   2620476   2623225  
  5880.000000   2625951   2628608   2631156   2633569   2635827  
  5870.000000   2637912   2639826   2641582   2643221   2644796  
  5860.000000   2646376   2648014   2649750   2651593   2653535  
  5850.000000   2655556   2657645   2659798   2662030   2664351  
  5840.000000   2666775   2669295   2671899   2674562   2677273  
  5830.000000   2680020   2682809   2685642   2688518   2691418  
  5820.000000   2694316   2697175   2699970   2702685   2705323  
  5810.000000   2707904   2710447   2712975   2715494   2718022  
  5800.000000   2720546   2723087   2725629   2728190   2730739  
  5790.000000   2733269   2735718   2738045   2740154   2741974  
  5780.000000   2743388   2744312   2744642   2744331   2743352  
  5770.000000   2741761   2739647   2737168   2734470   2731713  
  5760.000000   2728992   2726392   2723931   2721641   2719527  
  5750.000000   2717621   2715933   2714473   2713209   2712085  
  5740.000000   2711024   2709949   2708813   2707591   2706307  
  5730.000000   2704993   2703698   2702451   2701280   2700193  
  5720.000000   2699206   2698326   2697565   2696917   2696364  
  5710.000000   2695868   2695386   2694880   2694339   2693771  
  5700.000000   2693213   2692702   2692269   2691923   2691654  
  5690.000000   2691447   2691281   2691156   2691067   2691019  
  5680.000000   2690989   2690945   2690825   2690569   2690113  
  5670.000000   2689421   2688467   2687251   2685776   2684058  
  5660.000000   2682114   2679984   2677716   2675387   2673064  
  5650.000000   2670816   2668674   2666647   2664714   2662850  
  5640.000000   2661033   2659261   2657546   2655905   2654346  
  5630.000000   2652858   2651424   2650018   2648632   2647270  
  5620.000000   2645963   2644735   2643609   2642580   2641633  
  5610.000000   2640731   2639853   2638982   2638126   2637299  
  5600.000000   2636522   2635801   2635138   2634522   2633944  
  5590.000000   2633398   2632881   2632389   2631909   2631420  
  5580.000000   2630898   2630321   2629684   2628997   2628281  
  5570.000000   2627558   2626836   2626108   2625347   2624530  
  5560.000000   2623641   2622687   2621691   2620687   2619702  
  5550.000000   2618744   2617804   2616862   2615895   2614896  
  5540.000000   2613868   2612834   2611814   2610829   2609886  
  5530.000000   2608991   2608141   2607334   2606565   2605824  
  5520.000000   2605092   2604343   2603548   2602686   2601750  
  5510.000000   2600750   2599705   2598640   2597564   2596483  
  5500.000000   2595387   2594272   2593137   2591996   2590861  
  5490.000000   2589741   2588622   2587479   2586273   2584977  
  5480.000000   2583582   2582108   2580590   2579072   2577582  
  5470.000000   2576125   2574682   2573225   2571728   2570182  
  5460.000000   2568591   2566968   2565322   2563653   2561956  
  5450.000000   2560225   2558465   2556697   2554951   2553257  
  5440.000000   2551634   2550081   2548590   2547147   2545751  
  5430.000000   2544406   2543125   2541904   2540734   2539578  
  5420.000000   2538413   2537220   2536024   2534868   2533831  
  5410.000000   2532962   2532298   2531813   2531469   2531204  
  5400.000000   2530996   2530833   2530756   2530791   2530983  
  5390.000000   2531326   2531816   2532416   2533123   2533932  
  5380.000000   2534888   2536014   2537354   2538889   2540616  
  5370.000000   2542477   2544463   2546539   2548742   2551072  
  5360.000000   2553592   2556294   2559233   2562391   2565831  
  5350.000000   2569559   2573666   2578164   2583133   2588541  
  5340.000000   2594426   2600721   2607466   2614609   2622219  
  5330.000000   2630252   2638777   2647726   2657152   2666992  
  5320.000000   2677336   2688173   2699654   2711794   2724749  
  5310.000000   2738488   2753102   2768494   2784711   2801650  
  5300.000000   2819384   2837858   2857200   2877405   2898618  
  5290.000000   2920821   2944094   2968327   2993482   3019363  
  5280.000000   3045895   3072932   3100507   3128619   3157401  
  5270.000000   3186888   3217116   3247958   3279233   3310689  
  5260.000000   3342114   3373390   3404495   3435507   3466471  
  5250.000000   3497419   3528209   3558676   3588513   3617553  
  5240.000000   3645598   3672703   3698872   3724310   3749053  
  5230.000000   3773244   3796781   3819657   3841657   3862742  
  5220.000000   3882743   3901738   3919694   3936809   3953120  
  5210.000000   3968820   3983875   3998352   4012088   4025065  
  5200.000000   4037111   4048280   4058516   4067982   4076689  
  5190.000000   4084793   4092249   4099130   4105335   4110914  
  5180.000000   4115791   4120059   4123684   4126764   4129247  
  5170.000000   4131193   4132531   4133327   4133544   4133282  
  5160.000000   4132529   4131367   4129748   4127701   4125155  
  5150.000000   4122146   4118649   4114755   4110487   4105941  
  5140.000000   4101124   4096092   4090822   4085351   4079673  
  5130.000000   4073842   4067868   4061798   4055623   4049361  
  5120.000000   4042988   4036525   4029980   4023405   4016832  
  5110.000000   4010307   4003836   3997416   3991019   3984622  
  5100.000000   3978206   3971773   3965335   3958913   3952525  
  5090.000000   3946183   3939890   3933648   3927457   3921319  
  5080.000000   3915229   3909181   3903156   3897134   3891089  
  5070.000000   3885010   3878888   3872731   3866538   3860315  
  5060.000000   3854043   3847709   3841281   3834745   3828085  
  5050.000000   3821313   3814437   3807481   3800454   3793371  
  5040.000000   3786227   3779030   3771776   3764475   3757132  
  5030.000000   3749762   3742372   3734977   3727589   3720225  
  5020.000000   3712908   3705658   3698500   3691445   3684504  
  5010.000000   3677672   3670953   3664336   3657835   3651449  
  5000.000000   3645204   3639101   3633167   3627391   3621795  
  4990.000000   3616361   3611116   3606052   3601207   3596578  
  4980.000000   3592210   3588090   3584257   3580691   3577425  
  4970.000000   3574435   3571759   3569371   3567308   3565540  
  4960.000000   3564104   3562969   3562175   3561698   3561588  
  4950.000000   3561828   3562468   3563486   3564922   3566736  
  4940.000000   3568955   3571526   3574463   3577707   3581273  
  4930.000000   3585110   3589247   3593654   3598382   3603418  
  4920.000000   3608814   3614548   3620649   3627069   3633812  
  4910.000000   3640822   3648103   3655617   3663373   3671345  
  4900.000000   3679531   3687893   3696404   3705022   3713714  
  4890.000000   3722449   3731197   3739935   3748612   3757189  
  4880.000000   3765582   3773738   3781567   3789034   3796069  
  4870.000000   3802671   3808794   3814455   3819618   3824313  
  4860.000000   3828514   3832269   3835569   3838472   3840975  
  4850.000000   3843134   3844942   3846450   3847659   3848625  
  4840.000000   3849362   3849935   3850367   3850717   3851004  
  4830.000000   3851274   3851539   3851830   3852154   3852527  
  4820.000000   3852949   3853422   3853948   3854529   3855178  
  4810.000000   3855903   3856724   3857645   3858673   3859794  
  4800.000000   3861002   3862278   3863622   3865032   3866529  
  4790.000000   3868122   3869829   3871648   3873574   3875583  
  4780.000000   3877654   3879762   3881893   3884032   3886171  
  4770.000000   3888300   3890407   3892479   3894504   3896479  
  4760.000000   3898404   3900287   3902134   3903952   3905731  
  4750.000000   3907462   3909119   3910684   3912134   3913464  
  4740.000000   3914666   3915754   3916739   3917647   3918498  
  4730.000000   3919322   3920139   3920970   3921826   3922706  
  4720.000000   3923604   3924505   3925397   3926270   3927131  
  4710.000000   3927994   3928895   3929868   3930956   3932189  
  4700.000000   3933595   3935180   3936947   3938880   3940970  
  4690.000000   3943191   3945529   3947959   3950466   3953021  
  4680.000000   3955607   3958187   3960746   3963248   3965690  
  4670.000000   3968054   3970361   3972622   3974883   3977176  
  4660.000000   3979552   3982044   3984689   3987500   3990486  
  4650.000000   3993638   3996941   4000373   4003907   4007520  
  4640.000000   4011188   4014893   4018614   4022338   4026039  
  4630.000000   4029697   4033277   4036751   4040079   4043241  
  4620.000000   4046201   4048948   4051456   4053723   4055723  
  4610.000000   4057465   4058936   4060163   4061159   4061982  
  4600.000000   4062664   4063273   4063833   4064385   4064915  
  4590.000000   4065421   4065853   4066181   4066347   4066330  
  4580.000000   4066096   4065654   4065006   4064191   4063230  
  4570.000000   4062170   4061029   4059837   4058592   4057301  
  4560.000000   4055943   4054515   4052988   4051359   4049610  
  4550.000000   4047745   4045758   4043662   4041460   4039169  
  4540.000000   4036802   4034375   4031907   4029418   4026928  
  4530.000000   4024454   4022016   4019623   4017293   4015025  
  4520.000000   4012842   4010735   4008736   4006833   4005067  
  4510.000000   4003427   4001967   4000687   3999667   3998928  
  4500.000000   3998576   3998643   3999239   4000375   4002135  
  4490.000000   4004489   4007491   4011084   4015318   4020142  
  4480.000000   4025619   4031709   4038477   4045875   4053947  
  4470.000000   4062620   4071915   4081745   4092125   4102975  
  4460.000000   4114311   4126064   4138239   4150759   4163605  
  4450.000000   4176690   4189981   4203406   4216947   4230566  
  4440.000000   4244265   4258033   4271864   4285745   4299639  
  4430.000000   4313521   4327324   4341016   4354514   4367788  
  4420.000000   4380748   4393374   4405581   4417360   4428635  
  4410.000000   4439401   4449575   4459141   4468012   4476176  
  4400.000000   4483577   4490259   4496241   4501641   4506550  
  4390.000000   4511128   4515480   4519748   4524007   4528348  
  4380.000000   4532800   4537409   4542173   4547114   4552227  
  4370.000000   4557531   4563035   4568758   4574713   4580902  
  4360.000000   4587311   4593917   4600663   4607507   4614358  
  4350.000000   4621182   4627873   4634437   4640798   4647026  
  4340.000000   4653101   4659113   4664999   4670698   4675905  
  4330.000000   4680236   4683110   4683972   4682320   4677939  
  4320.000000   4670922   4661760   4651202   4640174   4629532  
  4310.000000   4619982   4611910   4605454   4600487   4596790  
  4300.000000   4594087   4592163   4590870   4590108   4589840  
  4290.000000   4589994   4590550   4591428   4592629   4594110  
  4280.000000   4595902   4597991   4600379   4603034   4605903  
  4270.000000   4608937   4612064   4615227   4618303   4621137  
  4260.000000   4623465   4624983   4625347   4624288   4621650  
  4250.000000   4617488   4612029   4605689   4598927   4592231  
  4240.000000   4585952   4580347   4575472   4571301   4567686  
  4230.000000   4564474   4561489   4558596   4555689   4552696  
  4220.000000   4549606   4546418   4543212   4540053   4537077  
  4210.000000   4534371   4532055   4530170   4528766   4527812  
  4200.000000   4527286   4527108   4527229   4527560   4528063  
  4190.000000   4528672   4529389   4530182   4531091   4532107  
  4180.000000   4533281   4534594   4536085   4537723   4539547  
  4170.000000   4541546   4543788   4546297   4549160   4552396  
  4160.000000   4556071   4560161   4564691   4569607   4574924  
  4150.000000   4580591   4586642   4593041   4599834   4606990  
  4140.000000   4614566   4622538   4630971   4639844   4649221  
  4130.000000   4659060   4669395   4680160   4691367   4702954  
  4120.000000   4714954   4727341   4740183   4753484   4767311  
  4110.000000   4781653   4796542   4811926   4827789   4844046  
  4100.000000   4860647   4877498   4894543   4911711   4928972  
  4090.000000   4946294   4963671   4981099   4998567   5016075  
  4080.000000   5033598   5051142   5068667   5086178   5103608  
  4070.000000   5120925   5138005   5154777   5171091   5186902  
  4060.000000   5202107   5216734   5230737   5244182   5257018  
  4050.000000   5269302   5280965   5292073   5302580   5312585  
  4040.000000   5322054   5331081   5339594   5347643   5355115  
  4030.000000   5362040   5368308   5373952   5378888   5383150  
  4020.000000   5386646   5389435   5391508   5392955   5393755  
  4010.000000   5394046   5393901   5393334   5392136   5390352  
  4000.000000   5388269  
##END= 
