##TITLE= Sample 007 By ssteindl date Montag, November 26 2018
##JCAMP-DX= 4.24
##DATA TYPE= INFRARED SPECTRUM
##ORIGIN= Exported PE Spectrum Data File
##OWNER= Sandra Steindl
##DATE= 18/11/26
##TIME= 12:10:11.00
##SPECTROMETER/DATA SYSTEM= PERKIN-ELMER Frontier FT-IR/NIR IR
##INSTRUMENT PARAMETERS=
  APODIZATION=stark
  DETECTOR=INGAAS
##RESOLUTION= 16.000000
##DELTAX= -2.000000
##XUNITS= 1/CM
##YUNITS= A
##XFACTOR= 1.00
##YFACTOR= 0.00000011920928955078
##FIRSTX= 10000.00
##LASTX= 4000.00
##NPOINTS= 3001
##FIRSTY= 0.278073
##MAXY= 0.634284
##MINY= 0.220032
##XYDATA= (X++(Y..Y))
 10000.000000   2332648   2327352   2323481   2322904   2325726  
  9990.000000   2330295   2334700   2337330   2337053   2333381  
  9980.000000   2326850   2318682   2310247   2302726   2297030  
  9970.000000   2293755   2293192   2295356   2299942   2306214  
  9960.000000   2312995   2318813   2322208   2322168   2318512  
  9950.000000   2311979   2304112   2296712   2291333   2288776  
  9940.000000   2288925   2290916   2293484   2295526   2296394  
  9930.000000   2296118   2295183   2294267   2293821   2293868  
  9920.000000   2293981   2293440   2291594   2288057   2282959  
  9910.000000   2276837   2270541   2264950   2260744   2258262  
  9900.000000   2257427   2257858   2258970   2260189   2261031  
  9890.000000   2261234   2260738   2259699   2258444   2257372  
  9880.000000   2256890   2257225   2258376   2259975   2261401  
  9870.000000   2261870   2260748   2257765   2253201   2247845  
  9860.000000   2242784   2239076   2237388   2237798   2239774  
  9850.000000   2242390   2244685   2245977   2246086   2245276  
  9840.000000   2244099   2243059   2242468   2242312   2242427  
  9830.000000   2242614   2242816   2243165   2243853   2245114  
  9820.000000   2246991   2249464   2252384   2255686   2259353  
  9810.000000   2263402   2267692   2271747   2274708   2275471  
  9800.000000   2273051   2266994   2257685   2246371   2234861  
  9790.000000   2225007   2218147   2214743   2214314   2215713  
  9780.000000   2217540   2218632   2218319   2216566   2213795  
  9770.000000   2210726   2208104   2206576   2206602   2208379  
  9760.000000   2211838   2216533   2221725   2226416   2229616  
  9750.000000   2230554   2228953   2225079   2219728   2213902  
  9740.000000   2208576   2204334   2201328   2199298   2197802  
  9730.000000   2196493   2195210   2194130   2193529   2193781  
  9720.000000   2195067   2197429   2200678   2204483   2208420  
  9710.000000   2211965   2214607   2215808   2215191   2212556  
  9700.000000   2208025   2202028   2195265   2188567   2182721  
  9690.000000   2178322   2175652   2174696   2175138   2176512  
  9680.000000   2178237   2179774   2180672   2180676   2179771  
  9670.000000   2178178   2176324   2174676   2173631   2173324  
  9660.000000   2173635   2174190   2174577   2174487   2173849  
  9650.000000   2172823   2171663   2170580   2169616   2168648  
  9640.000000   2167527   2166185   2164801   2163697   2163240  
  9630.000000   2163576   2164504   2165505   2165933   2165372  
  9620.000000   2163867   2162033   2160840   2161255   2163824  
  9610.000000   2168405   2174181   2179900   2184310   2186518  
  9600.000000   2186252   2183835   2179994   2175579   2171302  
  9590.000000   2167666   2164952   2163344   2162924   2163689  
  9580.000000   2165385   2167532   2169383   2170202   2169436  
  9570.000000   2166976   2163213   2158901   2154935   2151971  
  9560.000000   2150239   2149428   2148852   2147752   2145607  
  9550.000000   2142418   2138682   2135286   2133094   2132709  
  9540.000000   2134166   2136971   2140213   2142837   2143987  
  9530.000000   2143164   2140430   2136219   2131260   2126204  
  9520.000000   2121522   2117340   2113564   2110016   2106640  
  9510.000000   2103632   2101394   2100478   2101298   2104035  
  9500.000000   2108457   2113993   2119853   2125203   2129374  
  9490.000000   2131905   2132633   2131597   2129064   2125443  
  9480.000000   2121299   2117274   2113975   2111857   2111028  
  9470.000000   2111242   2111884   2112222   2111630   2109845  
  9460.000000   2107047   2103735   2100511   2097762   2095551  
  9450.000000   2093587   2091460   2088873   2085898   2083033  
  9440.000000   2081066   2080806   2082709   2086707   2092148  
  9430.000000   2098051   2103379   2107338   2109523   2109910  
  9420.000000   2108770   2106502   2103570   2100375   2097282  
  9410.000000   2094537   2092262   2090398   2088688   2086784  
  9400.000000   2084299   2081082   2077256   2073365   2070157  
  9390.000000   2068393   2068496   2070376   2073407   2076593  
  9380.000000   2078890   2079469   2078010   2074708   2070271  
  9370.000000   2065593   2061542   2058663   2057113   2056686  
  9360.000000   2056911   2057258   2057258   2056725   2055792  
  9350.000000   2054918   2054684   2055554   2057654   2060612  
  9340.000000   2063652   2065708   2065824   2063402   2058555  
  9330.000000   2052080   2045306   2039665   2036256   2035589  
  9320.000000   2037451   2041107   2045490   2049623   2052819  
  9310.000000   2054863   2055896   2056268   2056326   2056272  
  9300.000000   2056129   2055730   2054854   2053256   2050838  
  9290.000000   2047641   2043898   2039965   2036250   2033137  
  9280.000000   2030857   2029462   2028789   2028562   2028482  
  9270.000000   2028358   2028151   2027997   2028131   2028784  
  9260.000000   2030073   2031910   2034053   2036128   2037808  
  9250.000000   2038819   2039068   2038546   2037386   2035744  
  9240.000000   2033843   2031913   2030194   2028915   2028231  
  9230.000000   2028254   2028970   2030341   2032246   2034612  
  9220.000000   2037353   2040418   2043667   2046832   2049484  
  9210.000000   2051111   2051264   2049689   2046438   2041900  
  9200.000000   2036720   2031635   2027238   2023873   2021565  
  9190.000000   2020109   2019138   2018271   2017193   2015733  
  9180.000000   2013829   2011514   2008862   2006031   2003278  
  9170.000000   2000931   1999340   1998755   1999281   2000798  
  9160.000000   2002978   2005311   2007235   2008264   2008154  
  9150.000000   2006894   2004746   2002088   1999401   1997067  
  9140.000000   1995337   1994249   1993672   1993390   1993172  
  9130.000000   1992939   1992767   1992930   1993768   1995574  
  9120.000000   1998435   2002103   2006023   2009420   2011561  
  9110.000000   2011894   2010254   2006924   2002609   1998242  
  9100.000000   1994713   1992728   1992619   1994345   1997409  
  9090.000000   2001082   2004522   2007020   2008093   2007593  
  9080.000000   2005718   2002887   1999602   1996236   1992977  
  9070.000000   1989787   1986549   1983177   1979777   1976703  
  9060.000000   1974471   1973597   1974314   1976481   1979544  
  9050.000000   1982704   1985157   1986347   1986189   1984994  
  9040.000000   1983387   1981990   1981281   1981396   1982186  
  9030.000000   1983296   1984352   1985089   1985405   1985378  
  9020.000000   1985174   1985018   1985102   1985574   1986492  
  9010.000000   1987804   1989332   1990764   1991712   1991825  
  9000.000000   1990914   1989067   1986620   1984145   1982222  
  8990.000000   1981306   1981516   1982661   1984276   1985812  
  8980.000000   1986757   1986799   1985849   1983998   1981440  
  8970.000000   1978380   1975047   1971630   1968325   1965276  
  8960.000000   1962605   1960356   1958495   1956954   1955674  
  8950.000000   1954705   1954189   1954355   1955388   1957330  
  8940.000000   1960010   1963030   1965900   1968136   1969459  
  8930.000000   1969803   1969344   1968354   1967114   1965817  
  8920.000000   1964560   1963384   1962325   1961474   1960939  
  8910.000000   1960809   1961043   1961481   1961849   1961871  
  8900.000000   1961360   1960279   1958784   1957105   1955496  
  8890.000000   1954099   1952955   1952006   1951185   1950484  
  8880.000000   1949995   1949887   1950352   1951518   1953406  
  8870.000000   1955891   1958735   1961618   1964207   1966205  
  8860.000000   1967428   1967826   1967524   1966800   1966043  
  8850.000000   1965660   1965943   1966977   1968565   1970315  
  8840.000000   1971731   1972414   1972164   1971080   1969486  
  8830.000000   1967818   1966439   1965507   1964950   1964504  
  8820.000000   1963869   1962822   1961330   1959553   1957764  
  8810.000000   1956276   1955303   1954973   1955290   1956216  
  8800.000000   1957690   1959631   1961948   1964450   1966873  
  8790.000000   1968848   1970019   1970100   1969006   1966878  
  8780.000000   1964108   1961247   1958882   1957503   1957367  
  8770.000000   1958475   1960543   1963120   1965655   1967662  
  8760.000000   1968807   1968986   1968320   1967083   1965626  
  8750.000000   1964235   1963106   1962267   1961646   1961105  
  8740.000000   1960523   1959862   1959173   1958615   1958372  
  8730.000000   1958628   1959484   1960928   1962820   1964897  
  8720.000000   1966842   1968324   1969110   1969100   1968392  
  8710.000000   1967244   1966035   1965150   1964881   1965344  
  8700.000000   1966452   1967957   1969533   1970892   1971857  
  8690.000000   1972420   1972711   1972936   1973289   1973869  
  8680.000000   1974664   1975542   1976334   1976863   1977040  
  8670.000000   1976870   1976483   1976090   1975928   1976206  
  8660.000000   1977033   1978405   1980194   1982201   1984218  
  8650.000000   1986079   1987711   1989113   1990348   1991457  
  8640.000000   1992444   1993232   1993729   1993871   1993698  
  8630.000000   1993367   1993124   1993241   1993900   1995152  
  8620.000000   1996872   1998832   2000774   2002506   2003944  
  8610.000000   2005100   2006034   2006786   2007351   2007685  
  8600.000000   2007756   2007609   2007379   2007282   2007530  
  8590.000000   2008268   2009500   2011089   2012798   2014379  
  8580.000000   2015657   2016553   2017078   2017285   2017236  
  8570.000000   2016980   2016569   2016097   2015728   2015688  
  8560.000000   2016200   2017412   2019309   2021697   2024217  
  8550.000000   2026469   2028107   2028959   2029052   2028589  
  8540.000000   2027880   2027229   2026859   2026850   2027144  
  8530.000000   2027585   2027977   2028160   2028040   2027639  
  8520.000000   2027062   2026496   2026125   2026100   2026467  
  8510.000000   2027159   2028014   2028816   2029383   2029603  
  8500.000000   2029488   2029142   2028728   2028385   2028199  
  8490.000000   2028165   2028240   2028362   2028528   2028780  
  8480.000000   2029216   2029924   2030944   2032244   2033710  
  8470.000000   2035218   2036663   2038031   2039380   2040833  
  8460.000000   2042509   2044460   2046618   2048790   2050702  
  8450.000000   2052055   2052618   2052267   2051054   2049167  
  8440.000000   2046906   2044602   2042546   2040952   2039912  
  8430.000000   2039440   2039472   2039959   2040854   2042151  
  8420.000000   2043818   2045793   2047938   2050044   2051879  
  8410.000000   2053215   2053940   2054037   2053630   2052886  
  8400.000000   2051997   2051107   2050315   2049686   2049266  
  8390.000000   2049129   2049322   2049892   2050788   2051908  
  8380.000000   2053056   2054054   2054758   2055133   2055233  
  8370.000000   2055146   2054926   2054523   2053808   2052598  
  8360.000000   2050786   2048396   2045647   2042891   2040512  
  8350.000000   2038806   2037878   2037656   2037923   2038449  
  8340.000000   2039062   2039713   2040444   2041323   2042371  
  8330.000000   2043510   2044597   2045460   2045996   2046184  
  8320.000000   2046108   2045888   2045634   2045392   2045135  
  8310.000000   2044806   2044351   2043785   2043166   2042592  
  8300.000000   2042134   2041819   2041602   2041403   2041137  
  8290.000000   2040754   2040255   2039669   2039034   2038365  
  8280.000000   2037652   2036886   2036075   2035277   2034583  
  8270.000000   2034108   2033942   2034125   2034610   2035288  
  8260.000000   2035993   2036558   2036838   2036736   2036222  
  8250.000000   2035321   2034129   2032767   2031366   2030026  
  8240.000000   2028784   2027626   2026480   2025289   2024024  
  8230.000000   2022764   2021649   2020869   2020548   2020694  
  8220.000000   2021146   2021613   2021754   2021276   2020040  
  8210.000000   2018088   2015626   2012939   2010303   2007911  
  8200.000000   2005855   2004144   2002752   2001648   2000796  
  8190.000000   2000152   1999623   1999089   1998409   1997496  
  8180.000000   1996348   1995069   1993836   1992824   1992134  
  8170.000000   1991739   1991494   1991187   1990636   1989753  
  8160.000000   1988574   1987216   1985819   1984470   1983165  
  8150.000000   1981837   1980393   1978800   1977104   1975453  
  8140.000000   1974016   1972940   1972269   1971934   1971766  
  8130.000000   1971547   1971076   1970193   1968827   1966961  
  8120.000000   1964655   1962014   1959207   1956441   1953946  
  8110.000000   1951943   1950585   1949933   1949932   1950436  
  8100.000000   1951237   1952125   1952916   1953469   1953687  
  8090.000000   1953493   1952854   1951760   1950285   1948562  
  8080.000000   1946798   1945210   1943976   1943183   1942792  
  8070.000000   1942677   1942659   1942593   1942387   1942028  
  8060.000000   1941543   1940958   1940262   1939406   1938337  
  8050.000000   1937044   1935596   1934140   1932857   1931895  
  8040.000000   1931307   1931029   1930903   1930743   1930403  
  8030.000000   1929829   1929062   1928197   1927324   1926474  
  8020.000000   1925619   1924695   1923659   1922530   1921412  
  8010.000000   1920453   1919792   1919491   1919501   1919680  
  8000.000000   1919837   1919805   1919496   1918919   1918161  
  7990.000000   1917352   1916606   1915998   1915556   1915275  
  7980.000000   1915139   1915130   1915220   1915350   1915423  
  7970.000000   1915304   1914853   1913975   1912663   1911017  
  7960.000000   1909232   1907544   1906167   1905229   1904744  
  7950.000000   1904617   1904689   1904787   1904779   1904597  
  7940.000000   1904237   1903737   1903150   1902524   1901901  
  7930.000000   1901314   1900808   1900430   1900233   1900234  
  7920.000000   1900416   1900697   1900953   1901046   1900867  
  7910.000000   1900382   1899649   1898816   1898080   1897629  
  7900.000000   1897585   1897963   1898661   1899490   1900230  
  7890.000000   1900690   1900761   1900442   1899825   1899063  
  7880.000000   1898310   1897687   1897247   1896984   1896854  
  7870.000000   1896803   1896797   1896825   1896887   1896974  
  7860.000000   1897040   1897008   1896782   1896291   1895524  
  7850.000000   1894555   1893539   1892672   1892128   1892003  
  7840.000000   1892277   1892819   1893425   1893887   1894054  
  7830.000000   1893874   1893401   1892757   1892089   1891506  
  7820.000000   1891056   1890718   1890429   1890124   1889763  
  7810.000000   1889360   1888964   1888649   1888469   1888447  
  7800.000000   1888552   1888714   1888835   1888815   1888572  
  7790.000000   1888060   1887270   1886237   1885026   1883731  
  7780.000000   1882458   1881317   1880397   1879757   1879409  
  7770.000000   1879313   1879383   1879501   1879540   1879385  
  7760.000000   1878961   1878241   1877255   1876076   1874816  
  7750.000000   1873595   1872526   1871692   1871135   1870847  
  7740.000000   1870775   1870834   1870925   1870957   1870860  
  7730.000000   1870597   1870166   1869583   1868886   1868105  
  7720.000000   1867275   1866420   1865575   1864773   1864050  
  7710.000000   1863442   1862958   1862594   1862313   1862072  
  7700.000000   1861829   1861569   1861304   1861074   1860922  
  7690.000000   1860864   1860872   1860861   1860718   1860331  
  7680.000000   1859640   1858658   1857485   1856276   1855194  
  7670.000000   1854373   1853869   1853676   1853727   1853934  
  7660.000000   1854217   1854506   1854748   1854879   1854825  
  7650.000000   1854493   1853816   1852765   1851401   1849858  
  7640.000000   1848336   1847047   1846158   1845758   1845834  
  7630.000000   1846301   1847028   1847899   1848822   1849743  
  7620.000000   1850623   1851410   1852037   1852413   1852467  
  7610.000000   1852157   1851523   1850662   1849728   1848868  
  7600.000000   1848199   1847770   1847559   1847499   1847493  
  7590.000000   1847468   1847378   1847233   1847074   1846969  
  7580.000000   1846982   1847149   1847478   1847923   1848411  
  7570.000000   1848838   1849110   1849156   1848967   1848593  
  7560.000000   1848139   1847735   1847497   1847497   1847750  
  7550.000000   1848205   1848780   1849378   1849931   1850397  
  7540.000000   1850771   1851058   1851272   1851416   1851510  
  7530.000000   1851582   1851699   1851945   1852417   1853179  
  7520.000000   1854248   1855567   1857025   1858472   1859778  
  7510.000000   1860854   1861689   1862322   1862836   1863305  
  7500.000000   1863783   1864284   1864801   1865324   1865868  
  7490.000000   1866484   1867244   1868221   1869449   1870903  
  7480.000000   1872485   1874049   1875445   1876553   1877334  
  7470.000000   1877824   1878145   1878441   1878850   1879456  
  7460.000000   1880281   1881290   1882426   1883635   1884900  
  7450.000000   1886233   1887662   1889198   1890816   1892441  
  7440.000000   1893982   1895352   1896524   1897536   1898498  
  7430.000000   1899555   1900847   1902460   1904399   1906592  
  7420.000000   1908915   1911228   1913411   1915387   1917133  
  7410.000000   1918667   1920042   1921323   1922584   1923882  
  7400.000000   1925260   1926723   1928244   1929759   1931193  
  7390.000000   1932486   1933626   1934664   1935697   1936861  
  7380.000000   1938270   1939990   1941999   1944211   1946503  
  7370.000000   1948754   1950883   1952852   1954665   1956337  
  7360.000000   1957873   1959255   1960460   1961476   1962332  
  7350.000000   1963100   1963891   1964825   1965984   1967394  
  7340.000000   1969009   1970749   1972512   1974230   1975873  
  7330.000000   1977454   1979004   1980557   1982122   1983682  
  7320.000000   1985200   1986630   1987937   1989106   1990147  
  7310.000000   1991095   1991991   1992881   1993793   1994744  
  7300.000000   1995724   1996716   1997694   1998647   1999572  
  7290.000000   2000487   2001416   2002384   2003391   2004419  
  7280.000000   2005426   2006364   2007198   2007919   2008554  
  7270.000000   2009154   2009781   2010477   2011259   2012108  
  7260.000000   2012996   2013882   2014753   2015605   2016460  
  7250.000000   2017331   2018232   2019155   2020099   2021057  
  7240.000000   2022059   2023142   2024364   2025764   2027366  
  7230.000000   2029147   2031073   2033089   2035171   2037303  
  7220.000000   2039508   2041795   2044179   2046635   2049130  
  7210.000000   2051608   2054042   2056423   2058790   2061194  
  7200.000000   2063705   2066361   2069184   2072150   2075225  
  7190.000000   2078350   2081484   2084580   2087614   2090565  
  7180.000000   2093437   2096238   2099007   2101786   2104638  
  7170.000000   2107606   2110726   2113989   2117372   2120818  
  7160.000000   2124283   2127735   2131182   2134655   2138219  
  7150.000000   2141933   2145862   2150027   2154433   2159019  
  7140.000000   2163720   2168426   2173062   2177559   2181918  
  7130.000000   2186173   2190426   2194786   2199386   2204307  
  7120.000000   2209605   2215255   2221200   2227328   2233535  
  7110.000000   2239711   2245785   2251697   2257440   2263017  
  7100.000000   2268491   2273937   2279465   2285167   2291121  
  7090.000000   2297336   2303772   2310338   2316933   2323468  
  7080.000000   2329909   2336263   2342578   2348897   2355243  
  7070.000000   2361586   2367873   2374032   2380031   2385877  
  7060.000000   2391640   2397418   2403312   2409397   2415695  
  7050.000000   2422183   2428801   2435475   2442132   2448717  
  7040.000000   2455187   2461515   2467686   2473702   2479582  
  7030.000000   2485359   2491075   2496772   2502476   2508203  
  7020.000000   2513942   2519686   2525413   2531118   2536779  
  7010.000000   2542386   2547905   2553314   2558588   2563729  
  7000.000000   2568752   2573692   2578571   2583393   2588116  
  6990.000000   2592682   2597019   2601100   2604939   2608620  
  6980.000000   2612246   2615931   2619724   2623626   2627562  
  6970.000000   2631449   2635199   2638788   2642225   2645570  
  6960.000000   2648873   2652170   2655446   2658662   2661760  
  6950.000000   2664706   2667484   2670118   2672632   2675065  
  6940.000000   2677431   2679755   2682042   2684326   2686632  
  6930.000000   2689003   2691448   2693955   2696461   2698887  
  6920.000000   2701132   2703124   2704816   2706220   2707387  
  6910.000000   2708410   2709386   2710421   2711588   2712932  
  6900.000000   2714441   2716066   2717710   2719276   2720674  
  6890.000000   2721865   2722859   2723720   2724533   2725376  
  6880.000000   2726288   2727267   2728274   2729266   2730218  
  6870.000000   2731143   2732083   2733098   2734222   2735463  
  6860.000000   2736781   2738116   2739401   2740588   2741659  
  6850.000000   2742616   2743474   2744244   2744924   2745507  
  6840.000000   2745988   2746382   2746719   2747055   2747445  
  6830.000000   2747947   2748588   2749380   2750301   2751311  
  6820.000000   2752345   2753335   2754208   2754914   2755432  
  6810.000000   2755781   2756014   2756203   2756411   2756674  
  6800.000000   2756975   2757267   2757481   2757567   2757509  
  6790.000000   2757342   2757124   2756924   2756779   2756693  
  6780.000000   2756632   2756554   2756424   2756244   2756042  
  6770.000000   2755862   2755737   2755673   2755646   2755614  
  6760.000000   2755541   2755411   2755241   2755066   2754929  
  6750.000000   2754860   2754869   2754944   2755060   2755190  
  6740.000000   2755311   2755399   2755434   2755395   2755265  
  6730.000000   2755042   2754741   2754400   2754068   2753795  
  6720.000000   2753608   2753514   2753491   2753507   2753525  
  6710.000000   2753520   2753469   2753356   2753155   2752838  
  6700.000000   2752379   2751770   2751031   2750213   2749384  
  6690.000000   2748618   2747958   2747425   2746997   2746643  
  6680.000000   2746316   2745985   2745618   2745191   2744665  
  6670.000000   2743995   2743136   2742065   2740794   2739386  
  6660.000000   2737933   2736544   2735295   2734225   2733311  
  6650.000000   2732500   2731716   2730906   2730037   2729115  
  6640.000000   2728149   2727152   2726116   2725023   2723849  
  6630.000000   2722585   2721245   2719865   2718490   2717160  
  6620.000000   2715889   2714666   2713449   2712194   2710855  
  6610.000000   2709410   2707857   2706216   2704516   2702794  
  6600.000000   2701077   2699387   2697731   2696114   2694530  
  6590.000000   2692976   2691448   2689944   2688461   2686991  
  6580.000000   2685516   2684012   2682450   2680804   2679068  
  6570.000000   2677252   2675392   2673535   2671730   2670015  
  6560.000000   2668407   2666899   2665473   2664102   2662760  
  6550.000000   2661430   2660098   2658752   2657384   2655987  
  6540.000000   2654563   2653125   2651701   2650315   2648990  
  6530.000000   2647730   2646519   2645328   2644130   2642905  
  6520.000000   2641656   2640396   2639150   2637933   2636748  
  6510.000000   2635587   2634441   2633308   2632203   2631150  
  6500.000000   2630174   2629286   2628470   2627690   2626898  
  6490.000000   2626054   2625136   2624149   2623110   2622039  
  6480.000000   2620944   2619819   2618645   2617412   2616127  
  6470.000000   2614822   2613544   2612341   2611240   2610241  
  6460.000000   2609308   2608389   2607429   2606392   2605267  
  6450.000000   2604071   2602848   2601645   2600516   2599497  
  6440.000000   2598612   2597855   2597202   2596605   2596008  
  6430.000000   2595354   2594613   2593779   2592883   2591979  
  6420.000000   2591133   2590397   2589806   2589360   2589047  
  6410.000000   2588834   2588695   2588599   2588525   2588445  
  6400.000000   2588336   2588174   2587947   2587661   2587341  
  6390.000000   2587023   2586745   2586528   2586370   2586249  
  6380.000000   2586128   2585972   2585758   2585485   2585161  
  6370.000000   2584802   2584419   2584021   2583610   2583192  
  6360.000000   2582776   2582374   2581990   2581615   2581225  
  6350.000000   2580787   2580270   2579667   2578988   2578275  
  6340.000000   2577571   2576916   2576326   2575797   2575305  
  6330.000000   2574827   2574341   2573840   2573318   2572768  
  6320.000000   2572167   2571488   2570697   2569781   2568746  
  6310.000000   2567629   2566475   2565333   2564227   2563163  
  6300.000000   2562117   2561068   2559995   2558901   2557797  
  6290.000000   2556709   2555649   2554622   2553612   2552600  
  6280.000000   2551558   2550471   2549321   2548104   2546815  
  6270.000000   2545453   2544019   2542527   2540989   2539423  
  6260.000000   2537837   2536231   2534591   2532900   2531143  
  6250.000000   2529332   2527492   2525672   2523913   2522247  
  6240.000000   2520672   2519163   2517679   2516182   2514652  
  6230.000000   2513089   2511510   2509932   2508363   2506795  
  6220.000000   2505207   2503578   2501896   2500164   2498403  
  6210.000000   2496637   2494891   2493182   2491518   2489903  
  6200.000000   2488337   2486821   2485349   2483913   2482497  
  6190.000000   2481083   2479663   2478239   2476831   2475463  
  6180.000000   2474161   2472932   2471768   2470643   2469530  
  6170.000000   2468406   2467265   2466110   2464947   2463771  
  6160.000000   2462570   2461315   2459989   2458590   2457147  
  6150.000000   2455708   2454333   2453068   2451928   2450899  
  6140.000000   2449940   2449004   2448055   2447070   2446049  
  6130.000000   2444995   2443916   2442810   2441680   2440532  
  6120.000000   2439393   2438296   2437291   2436408   2435668  
  6110.000000   2435062   2434570   2434159   2433812   2433515  
  6100.000000   2433274   2433085   2432948   2432841   2432744  
  6090.000000   2432629   2432489   2432324   2432155   2431999  
  6080.000000   2431878   2431794   2431749   2431734   2431751  
  6070.000000   2431800   2431892   2432028   2432213   2432437  
  6060.000000   2432701   2433004   2433368   2433812   2434371  
  6050.000000   2435056   2435875   2436805   2437825   2438901  
  6040.000000   2440028   2441199   2442435   2443743   2445136  
  6030.000000   2446603   2448133   2449705   2451318   2452969  
  6020.000000   2454675   2456440   2458273   2460155   2462069  
  6010.000000   2463985   2465891   2467776   2469650   2471518  
  6000.000000   2473396   2475289   2477211   2479170   2481191  
  5990.000000   2483290   2485485   2487769   2490122   2492495  
  5980.000000   2494848   2497146   2499392   2501616   2503881  
  5970.000000   2506243   2508751   2511407   2514195   2517061  
  5960.000000   2519964   2522861   2525747   2528621   2531507  
  5950.000000   2534419   2537374   2540377   2543438   2546564  
  5940.000000   2549771   2553070   2556466   2559954   2563514  
  5930.000000   2567118   2570736   2574340   2577908   2581419  
  5920.000000   2584848   2588169   2591355   2594387   2597260  
  5910.000000   2599988   2602595   2605114   2607569   2609980  
  5900.000000   2612349   2614685   2616994   2619303   2621635  
  5890.000000   2624029   2626501   2629063   2631698   2634384  
  5880.000000   2637086   2639773   2642411   2644967   2647401  
  5870.000000   2649673   2651746   2653600   2655244   2656721  
  5860.000000   2658100   2659467   2660901   2662461   2664175  
  5850.000000   2666046   2668057   2670183   2672400   2674687  
  5840.000000   2677028   2679409   2681818   2684246   2686688  
  5830.000000   2689141   2691607   2694075   2696538   2698975  
  5820.000000   2701374   2703723   2706031   2708318   2710609  
  5810.000000   2712926   2715269   2717631   2719974   2722283  
  5800.000000   2724529   2726734   2728904   2731083   2733264  
  5790.000000   2735451   2737576   2739581   2741353   2742811  
  5780.000000   2743851   2744414   2744441   2743925   2742873  
  5770.000000   2741354   2739451   2737296   2735006   2732706  
  5760.000000   2730466   2728342   2726334   2724450   2722673  
  5750.000000   2721017   2719486   2718101   2716858   2715745  
  5740.000000   2714732   2713783   2712872   2711982   2711116  
  5730.000000   2710272   2709458   2708658   2707864   2707052  
  5720.000000   2706222   2705379   2704551   2703762   2703041  
  5710.000000   2702400   2701844   2701366   2700963   2700631  
  5700.000000   2700370   2700172   2700023   2699903   2699785  
  5690.000000   2699656   2699512   2699375   2699262   2699195  
  5680.000000   2699163   2699142   2699075   2698905   2698573  
  5670.000000   2698044   2697292   2696315   2695104   2693665  
  5660.000000   2692003   2690147   2688140   2686054   2683966  
  5650.000000   2681952   2680053   2678287   2676631   2675052  
  5640.000000   2673513   2671996   2670497   2669024   2667592  
  5630.000000   2666202   2664855   2663543   2662269   2661036  
  5620.000000   2659861   2658750   2657705   2656708   2655735  
  5610.000000   2654761   2653778   2652791   2651831   2650929  
  5600.000000   2650109   2649376   2648715   2648094   2647482  
  5590.000000   2646850   2646184   2645479   2644736   2643955  
  5580.000000   2643137   2642288   2641416   2640540   2639674  
  5570.000000   2638830   2637999   2637163   2636290   2635358  
  5560.000000   2634355   2633292   2632197   2631100   2630026  
  5550.000000   2628983   2627966   2626962   2625964   2624974  
  5540.000000   2624004   2623067   2622166   2621294   2620428  
  5530.000000   2619545   2618630   2617679   2616706   2615727  
  5520.000000   2614759   2613807   2612869   2611940   2611014  
  5510.000000   2610094   2609180   2608275   2607364   2606433  
  5500.000000   2605459   2604434   2603363   2602278   2601212  
  5490.000000   2600196   2599228   2598284   2597311   2596257  
  5480.000000   2595078   2593764   2592327   2590805   2589234  
  5470.000000   2587642   2586038   2584424   2582791   2581141  
  5460.000000   2579475   2577799   2576107   2574389   2572625  
  5450.000000   2570805   2568930   2567024   2565123   2563266  
  5440.000000   2561481   2559777   2558148   2556576   2555049  
  5430.000000   2553558   2552102   2550668   2549244   2547799  
  5420.000000   2546320   2544801   2543279   2541806   2540464  
  5410.000000   2539306   2538365   2537616   2537021   2536521  
  5400.000000   2536094   2535726   2535445   2535267   2535213  
  5390.000000   2535262   2535397   2535578   2535811   2536107  
  5380.000000   2536533   2537131   2537956   2538994   2540231  
  5370.000000   2541598   2543064   2544583   2546178   2547849  
  5360.000000   2549651   2551585   2553697   2555972   2558467  
  5350.000000   2561189   2564230   2567613   2571427   2575658  
  5340.000000   2580344   2585423   2590916   2596761   2603003  
  5330.000000   2609596   2616597   2623956   2631731   2639874  
  5320.000000   2648470   2657501   2667089   2677226   2688031  
  5310.000000   2699465   2711607   2724384   2737861   2751976  
  5300.000000   2766819   2782360   2798720   2815887   2833983  
  5290.000000   2852975   2872929   2893737   2915369   2937648  
  5280.000000   2960517   2983846   3007677   3032012   3056989  
  5270.000000   3082646   3109034   3136040   3163501   3191177  
  5260.000000   3218870   3246458   3273929   3301360   3328824  
  5250.000000   3356362   3383867   3411178   3438007   3464161  
  5240.000000   3489438   3513853   3537411   3560293   3582556  
  5230.000000   3604340   3625579   3646270   3666233   3685430  
  5220.000000   3703722   3721186   3737812   3753785   3769145  
  5210.000000   3784053   3798451   3812358   3825583   3838071  
  5200.000000   3849645   3860349   3870146   3879204   3887560  
  5190.000000   3895367   3902595   3909304   3915390   3920886  
  5180.000000   3925717   3929970   3933621   3936775   3939391  
  5170.000000   3941532   3943125   3944219   3944767   3944852  
  5160.000000   3944463   3943689   3942501   3940947   3938972  
  5150.000000   3936611   3933828   3930687   3927185   3923391  
  5140.000000   3919295   3914943   3910313   3905451   3900359  
  5130.000000   3895107   3889720   3884262   3878738   3873174  
  5120.000000   3867549   3861871   3856125   3850332   3844492  
  5110.000000   3838624   3832721   3826785   3820805   3814791  
  5100.000000   3808756   3802730   3796743   3790818   3784956  
  5090.000000   3779146   3773361   3767584   3761804   3756038  
  5080.000000   3750307   3744643   3739056   3733549   3728089  
  5070.000000   3722642   3717159   3711607   3705956   3700195  
  5060.000000   3694316   3688324   3682217   3676007   3669703  
  5050.000000   3663327   3656896   3650440   3643974   3637516  
  5040.000000   3631066   3624627   3618189   3611749   3605303  
  5030.000000   3598856   3592412   3585980   3579568   3573181  
  5020.000000   3566825   3560502   3554224   3547994   3541839  
  5010.000000   3535769   3529822   3524007   3518358   3512870  
  5000.000000   3507559   3502405   3497420   3492582   3487922  
  4990.000000   3483436   3479175   3475142   3471387   3467894  
  4980.000000   3464692   3461743   3459066   3456627   3454458  
  4970.000000   3452545   3450937   3449621   3448645   3447980  
  4960.000000   3447661   3447651   3447990   3448652   3449688  
  4950.000000   3451075   3452859   3455001   3457530   3460396  
  4940.000000   3463628   3467189   3471127   3475418   3480113  
  4930.000000   3485177   3490638   3496440   3502597   3509057  
  4920.000000   3515843   3522926   3530345   3538078   3546156  
  4910.000000   3554548   3563262   3572257   3581526   3591024  
  4900.000000   3600734   3610610   3620624   3630737   3640912  
  4890.000000   3651119   3661317   3671478   3681550   3691497  
  4880.000000   3701250   3710773   3719990   3728876   3737364  
  4870.000000   3745442   3753049   3760189   3766811   3772936  
  4860.000000   3778533   3783648   3788267   3792450   3796191  
  4850.000000   3799553   3802541   3805227   3807628   3809821  
  4840.000000   3811827   3813706   3815457   3817112   3818653  
  4830.000000   3820102   3821451   3822734   3823966   3825183  
  4820.000000   3826399   3827632   3828877   3830131   3831384  
  4810.000000   3832632   3833875   3835115   3836359   3837612  
  4800.000000   3838879   3840166   3841480   3842827   3844220  
  4790.000000   3845664   3847167   3848731   3850364   3852070  
  4780.000000   3853862   3855750   3857739   3859822   3861976  
  4770.000000   3864160   3866328   3868435   3870446   3872351  
  4760.000000   3874155   3875880   3877546   3879173   3880757  
  4750.000000   3882294   3883758   3885133   3886397   3887546  
  4740.000000   3888571   3889483   3890282   3890982   3891589  
  4730.000000   3892118   3892577   3892982   3893340   3893662  
  4720.000000   3893955   3894229   3894496   3894770   3895067  
  4710.000000   3895402   3895790   3896238   3896757   3897349  
  4700.000000   3898027   3898801   3899686   3900694   3901834  
  4690.000000   3903105   3904502   3906009   3907614   3909293  
  4680.000000   3911032   3912801   3914577   3916320   3918003  
  4670.000000   3919587   3921068   3922441   3923741   3925002  
  4660.000000   3926289   3927649   3929140   3930797   3932656  
  4650.000000   3934734   3937048   3939599   3942380   3945367  
  4640.000000   3948524   3951805   3955154   3958524   3961870  
  4630.000000   3965160   3968366   3971467   3974435   3977250  
  4620.000000   3979872   3982277   3984430   3986320   3987931  
  4610.000000   3989279   3990371   3991246   3991921   3992445  
  4600.000000   3992832   3993126   3993335   3993491   3993591  
  4590.000000   3993656   3993669   3993637   3993527   3993328  
  4580.000000   3992997   3992518   3991858   3991021   3990000  
  4570.000000   3988827   3987519   3986111   3984612   3983040  
  4560.000000   3981381   3979635   3977789   3975855   3973840  
  4550.000000   3971779   3969689   3967599   3965510   3963423  
  4540.000000   3961321   3959188   3957014   3954794   3952535  
  4530.000000   3950243   3947936   3945617   3943308   3941008  
  4520.000000   3938752   3936546   3934440   3932445   3930618  
  4510.000000   3928962   3927539   3926347   3925463   3924895  
  4500.000000   3924737   3924997   3925769   3927043   3928905  
  4490.000000   3931330   3934405   3938110   3942538   3947665  
  4480.000000   3953573   3960211   3967631   3975761   3984637  
  4470.000000   3994190   4004456   4015368   4026949   4039109  
  4460.000000   4051833   4065001   4078569   4092412   4106491  
  4450.000000   4120711   4135052   4149459   4163925   4178422  
  4440.000000   4192946   4207483   4222021   4236556   4251056  
  4430.000000   4265514   4279872   4294112   4308149   4321957  
  4420.000000   4335436   4348566   4361247   4373471   4385141  
  4410.000000   4396251   4406696   4416463   4425451   4433658  
  4400.000000   4441020   4447586   4453360   4458456   4462933  
  4390.000000   4466941   4470560   4473932   4477123   4480243  
  4380.000000   4483330   4486455   4489632   4492908   4496296  
  4370.000000   4499833   4503543   4507461   4511609   4516007  
  4360.000000   4520657   4525556   4530678   4536006   4541480  
  4350.000000   4547078   4552714   4558379   4563996   4569597  
  4340.000000   4575146   4580694   4586172   4591500   4596407  
  4330.000000   4600544   4603411   4604533   4603494   4600126  
  4320.000000   4594528   4587134   4578584   4569664   4561085  
  4310.000000   4553434   4547020   4541952   4538113   4535317  
  4300.000000   4533322   4531941   4531033   4530509   4530323  
  4290.000000   4530414   4530766   4531320   4532081   4533020  
  4280.000000   4534156   4535481   4536993   4538675   4540494  
  4270.000000   4542432   4544443   4546492   4548474   4550248  
  4260.000000   4551573   4552180   4551764   4550100   4547059  
  4250.000000   4542701   4537227   4530997   4524404   4517868  
  4240.000000   4511689   4506092   4501129   4496785   4492934  
  4230.000000   4489448   4486176   4483005   4479845   4476634  
  4220.000000   4473359   4470008   4466637   4463279   4460041  
  4210.000000   4456985   4454228   4451824   4449847   4448301  
  4200.000000   4447198   4446482   4446119   4446027   4446167  
  4190.000000   4446470   4446931   4447508   4448227   4449055  
  4180.000000   4450013   4451057   4452199   4453396   4454692  
  4170.000000   4456091   4457693   4459551   4461782   4464424  
  4160.000000   4467550   4471134   4475193   4479663   4484556  
  4150.000000   4489828   4495523   4501619   4508178   4515174  
  4140.000000   4522657   4530583   4538993   4547834   4557147  
  4130.000000   4566875   4577052   4587617   4598605   4609970  
  4120.000000   4621768   4633988   4646710   4659942   4673759  
  4110.000000   4688150   4703147   4718697   4734780   4751304  
  4100.000000   4768215   4785407   4802819   4820367   4838014  
  4090.000000   4855718   4873469   4891257   4909072   4926914  
  4080.000000   4944759   4962611   4980436   4998238   5015959  
  4070.000000   5033579   5050991   5068144   5084902   5101224  
  4060.000000   5116998   5132233   5146860   5160927   5174379  
  4050.000000   5187286   5199603   5211425   5222722   5233596  
  4040.000000   5243991   5253969   5263413   5272339   5280605  
  4030.000000   5288231   5295096   5301235   5306548   5311062  
  4020.000000   5314664   5317407   5319282   5320400   5320757  
  4010.000000   5320529   5319815   5318648   5316810   5314350  
  4000.000000   5311570  
##END= 
