##TITLE= Sample 003 By ssteindl date Montag, November 26 2018
##JCAMP-DX= 4.24
##DATA TYPE= INFRARED SPECTRUM
##ORIGIN= Exported PE Spectrum Data File
##OWNER= Sandra Steindl
##DATE= 18/11/26
##TIME= 12:06:04.00
##SPECTROMETER/DATA SYSTEM= PERKIN-ELMER Frontier FT-IR/NIR IR
##INSTRUMENT PARAMETERS=
  APODIZATION=stark
  DETECTOR=INGAAS
##RESOLUTION= 16.000000
##DELTAX= -2.000000
##XUNITS= 1/CM
##YUNITS= A
##XFACTOR= 1.00
##YFACTOR= 0.00000011920928955078
##FIRSTX= 10000.00
##LASTX= 4000.00
##NPOINTS= 3001
##FIRSTY= 0.291526
##MAXY= 0.623037
##MINY= 0.233114
##XYDATA= (X++(Y..Y))
 10000.000000   2445495   2449881   2452317   2450049   2442583  
  9990.000000   2431537   2419044   2407221   2398238   2393819  
  9980.000000   2394232   2398434   2404610   2410933   2415963  
  9970.000000   2419100   2420619   2421271   2421802   2422477  
  9960.000000   2423054   2422847   2421313   2418260   2414177  
  9950.000000   2409978   2406692   2405077   2405295   2407052  
  9940.000000   2409708   2412737   2415853   2419085   2422558  
  9930.000000   2426233   2429745   2432414   2433488   2432468  
  9920.000000   2429387   2424896   2420050   2415968   2413402  
  9910.000000   2412574   2413130   2414424   2415743   2416568  
  9900.000000   2416591   2415686   2413762   2410730   2406544  
  9890.000000   2401331   2395515   2389813   2385104   2382126  
  9880.000000   2381226   2382167   2384226   2386412   2387875  
  9870.000000   2388141   2387273   2385697   2383978   2382514  
  9860.000000   2381438   2380656   2380064   2379731   2380006  
  9850.000000   2381407   2384349   2388894   2394516   2400207  
  9840.000000   2404713   2406990   2406584   2403805   2399613  
  9830.000000   2395217   2391617   2389261   2387930   2386953  
  9820.000000   2385568   2383300   2380184   2376719   2373603  
  9810.000000   2371394   2370198   2369660   2369092   2367873  
  9800.000000   2365757   2363051   2360521   2359076   2359433  
  9790.000000   2361773   2365728   2370395   2374725   2377686  
  9780.000000   2378644   2377348   2374046   2369318   2364006  
  9770.000000   2359116   2355629   2354477   2356203   2360973  
  9760.000000   2368265   2377135   2386239   2394338   2400467  
  9750.000000   2404172   2405455   2404504   2401569   2396621  
  9740.000000   2389586   2380304   2368995   2356269   2343226  
  9730.000000   2331234   2321543   2315111   2312242   2312830  
  9720.000000   2316327   2322175   2329781   2338642   2348147  
  9710.000000   2357481   2365659   2371630   2374679   2374554  
  9700.000000   2371714   2367041   2361667   2356478   2351970  
  9690.000000   2348139   2344680   2341257   2337675   2334012  
  9680.000000   2330427   2327113   2324064   2321195   2318395  
  9670.000000   2315746   2313595   2312447   2312806   2314812  
  9660.000000   2318181   2322136   2325748   2328192   2329111  
  9650.000000   2328667   2327473   2326297   2325795   2326321  
  9640.000000   2327901   2330364   2333444   2336915   2340512  
  9630.000000   2343937   2346742   2348464   2348698   2347338  
  9620.000000   2344602   2341023   2337211   2333624   2330396  
  9610.000000   2327326   2324039   2320230   2315835   2311115  
  9600.000000   2306494   2302400   2299036   2296350   2294125  
  9590.000000   2292163   2290460   2289221   2288747   2289205  
  9580.000000   2290463   2292083   2293481   2294196   2294111  
  9570.000000   2293491   2292892   2292823   2293540   2294807  
  9560.000000   2296019   2296370   2295222   2292321   2287924  
  9550.000000   2282684   2277448   2273025   2269974   2268586  
  9540.000000   2268792   2270317   2272649   2275203   2277384  
  9530.000000   2278734   2279097   2278611   2277729   2276915  
  9520.000000   2276467   2276211   2275565   2273722   2270101  
  9510.000000   2264735   2258435   2252678   2249077   2248882  
  9500.000000   2252373   2258792   2266476   2273454   2278063  
  9490.000000   2279438   2277714   2273748   2268747   2263718  
  9480.000000   2259273   2255535   2252370   2249573   2247058  
  9470.000000   2244895   2243217   2242177   2241789   2242035  
  9460.000000   2242814   2244071   2245734   2247663   2249617  
  9450.000000   2251176   2251916   2251484   2249836   2247262  
  9440.000000   2244344   2241757   2240020   2239344   2239586  
  9430.000000   2240394   2241371   2242251   2242930   2243420  
  9420.000000   2243725   2243734   2243213   2241889   2239628  
  9410.000000   2236549   2233066   2229756   2227186   2225703  
  9400.000000   2225363   2225945   2227077   2228384   2229554  
  9390.000000   2230403   2230804   2230709   2230107   2229096  
  9380.000000   2227886   2226810   2226256   2226509   2227622  
  9370.000000   2229286   2230897   2231726   2231169   2228965  
  9360.000000   2225281   2220662   2215885   2211714   2208724  
  9350.000000   2207141   2206849   2207468   2208493   2209436  
  9340.000000   2209921   2209780   2209077   2208132   2207416  
  9330.000000   2207422   2208460   2210528   2213282   2216110  
  9320.000000   2218344   2219449   2219221   2217823   2215705  
  9310.000000   2213396   2211273   2209470   2207850   2206180  
  9300.000000   2204252   2202081   2199882   2198030   2196830  
  9290.000000   2196399   2196554   2196887   2196871   2196022  
  9280.000000   2194055   2190936   2186939   2182495   2178143  
  9270.000000   2174346   2171472   2169689   2168968   2169065  
  9260.000000   2169614   2170239   2170695   2170939   2171127  
  9250.000000   2171564   2172570   2174337   2176838   2179787  
  9240.000000   2182775   2185369   2187280   2188370   2188655  
  9230.000000   2188220   2187167   2185603   2183655   2181527  
  9220.000000   2179495   2177883   2176921   2176650   2176837  
  9210.000000   2177067   2176887   2175995   2174363   2172249  
  9200.000000   2170108   2168369   2167275   2166787   2166679  
  9190.000000   2166677   2166629   2166606   2166856   2167681  
  9180.000000   2169245   2171488   2174124   2176750   2178994  
  9170.000000   2180637   2181646   2182102   2182087   2181614  
  9160.000000   2180634   2179132   2177199   2175084   2173127  
  9150.000000   2171655   2170836   2170568   2170486   2170117  
  9140.000000   2169057   2167158   2164540   2161593   2158816  
  9130.000000   2156701   2155551   2155480   2156379   2158035  
  9120.000000   2160122   2162265   2164044   2165063   2165042  
  9110.000000   2163850   2161566   2158421   2154774   2150947  
  9100.000000   2147170   2143501   2139932   2136467   2133225  
  9090.000000   2130468   2128498   2127575   2127737   2128787  
  9080.000000   2130320   2131881   2133150   2134016   2134591  
  9070.000000   2135053   2135538   2135996   2136236   2135998  
  9060.000000   2135154   2133802   2132290   2131068   2130470  
  9050.000000   2130584   2131164   2131776   2131936   2131374  
  9040.000000   2130119   2128502   2126959   2125830   2125194  
  9030.000000   2124827   2124329   2123266   2121403   2118757  
  9020.000000   2115642   2112489   2109714   2107572   2106129  
  9010.000000   2105309   2104974   2105022   2105431   2106248  
  9000.000000   2107531   2109286   2111433   2113798   2116142  
  8990.000000   2118206   2119777   2120711   2120972   2120628  
  8980.000000   2119843   2118844   2117862   2117089   2116618  
  8970.000000   2116418   2116326   2116107   2115521   2114402  
  8960.000000   2112694   2110485   2107981   2105465   2103223  
  8950.000000   2101497   2100439   2100101   2100432   2101287  
  8940.000000   2102474   2103768   2104985   2105985   2106714  
  8930.000000   2107177   2107422   2107504   2107460   2107325  
  8920.000000   2107136   2106975   2106958   2107234   2107925  
  8910.000000   2109047   2110467   2111877   2112880   2113057  
  8900.000000   2112108   2109938   2106727   2102904   2099066  
  8890.000000   2095856   2093814   2093302   2094388   2096882  
  8880.000000   2100308   2104085   2107606   2110407   2112229  
  8870.000000   2113066   2113130   2112705   2112038   2111199  
  8860.000000   2110125   2108608   2106476   2103678   2100405  
  8850.000000   2097055   2094101   2091970   2090860   2090744  
  8840.000000   2091350   2092334   2093385   2094352   2095251  
  8830.000000   2096192   2097290   2098534   2099802   2100842  
  8820.000000   2101428   2101397   2100774   2099720   2098512  
  8810.000000   2097431   2096694   2096427   2096648   2097332  
  8800.000000   2098405   2099795   2101391   2103055   2104603  
  8790.000000   2105851   2106645   2106900   2106637   2105952  
  8780.000000   2105018   2104004   2103049   2102225   2101535  
  8770.000000   2100972   2100520   2100229   2100163   2100435  
  8760.000000   2101117   2102241   2103725   2105379   2106928  
  8750.000000   2108052   2108492   2108073   2106799   2104808  
  8740.000000   2102389   2099872   2097582   2095750   2094497  
  8730.000000   2093853   2093777   2094225   2095131   2096460  
  8720.000000   2098138   2100081   2102134   2104121   2105872  
  8710.000000   2107257   2108242   2108819   2109042   2108909  
  8700.000000   2108410   2107460   2105993   2103991   2101558  
  8690.000000   2098949   2096517   2094692   2093833   2094202  
  8680.000000   2095831   2098580   2102105   2105965   2109668  
  8670.000000   2112757   2114898   2115904   2115789   2114695  
  8660.000000   2112899   2110701   2108430   2106331   2104595  
  8650.000000   2103322   2102562   2102331   2102581   2103244  
  8640.000000   2104168   2105209   2106211   2107103   2107915  
  8630.000000   2108779   2109895   2111406   2113348   2115537  
  8620.000000   2117641   2119216   2119895   2119499   2118140  
  8610.000000   2116209   2114247   2112839   2112407   2113169  
  8600.000000   2115058   2117816   2121051   2124340   2127283  
  8590.000000   2129537   2130837   2131013   2130023   2127983  
  8580.000000   2125195   2122122   2119323   2117324   2116483  
  8570.000000   2116922   2118466   2120737   2123201   2125362  
  8560.000000   2126849   2127520   2127456   2126895   2126160  
  8550.000000   2125500   2125064   2124820   2124659   2124414  
  8540.000000   2123990   2123404   2122812   2122471   2122625  
  8530.000000   2123448   2124926   2126907   2129111   2131257  
  8520.000000   2133135   2134658   2135867   2136831   2137610  
  8510.000000   2138155   2138366   2138090   2137247   2135871  
  8500.000000   2134156   2132399   2130911   2129961   2129702  
  8490.000000   2130191   2131382   2133196   2135520   2138209  
  8480.000000   2141051   2143765   2146060   2147674   2148475  
  8470.000000   2148511   2148037   2147430   2147059   2147187  
  8460.000000   2147899   2149118   2150643   2152266   2153817  
  8450.000000   2155196   2156307   2157029   2157194   2156636  
  8440.000000   2155268   2153160   2150587   2147982   2145824  
  8430.000000   2144487   2144123   2144642   2145753   2147110  
  8420.000000   2148401   2149463   2150260   2150847   2151274  
  8410.000000   2151553   2151670   2151596   2151377   2151094  
  8400.000000   2150892   2150848   2150944   2151035   2150908  
  8390.000000   2150392   2149443   2148229   2147078   2146403  
  8380.000000   2146514   2147533   2149321   2151540   2153753  
  8370.000000   2155554   2156682   2157049   2156734   2155895  
  8360.000000   2154718   2153368   2151986   2150694   2149594  
  8350.000000   2148782   2148315   2148226   2148481   2149024  
  8340.000000   2149753   2150571   2151370   2152043   2152472  
  8330.000000   2152533   2152130   2151224   2149883   2148275  
  8320.000000   2146645   2145252   2144302   2143885   2143943  
  8310.000000   2144299   2144708   2144948   2144857   2144381  
  8300.000000   2143555   2142500   2141380   2140372   2139622  
  8290.000000   2139221   2139179   2139419   2139780   2140051  
  8280.000000   2140024   2139562   2138636   2137346   2135872  
  8270.000000   2134419   2133147   2132125   2131322   2130638  
  8260.000000   2129956   2129196   2128330   2127382   2126393  
  8250.000000   2125388   2124371   2123323   2122231   2121106  
  8240.000000   2119987   2118930   2117986   2117175   2116492  
  8230.000000   2115920   2115453   2115113   2114931   2114922  
  8220.000000   2115053   2115228   2115301   2115128   2114622  
  8210.000000   2113805   2112811   2111845   2111094   2110666  
  8200.000000   2110523   2110517   2110433   2110083   2109363  
  8190.000000   2108289   2106958   2105500   2103999   2102482  
  8180.000000   2100909   2099236   2097460   2095657   2093970  
  8170.000000   2092560   2091534   2090883   2090465   2090038  
  8160.000000   2089352   2088229   2086646   2084729   2082729  
  8150.000000   2080922   2079521   2078609   2078119   2077879  
  8140.000000   2077693   2077416   2076999   2076489   2075966  
  8130.000000   2075500   2075080   2074619   2073981   2073037  
  8120.000000   2071746   2070160   2068433   2066741   2065217  
  8110.000000   2063891   2062682   2061448   2060057   2058465  
  8100.000000   2056751   2055102   2053751   2052882   2052562  
  8090.000000   2052700   2053084   2053439   2053528   2053209  
  8080.000000   2052477   2051440   2050285   2049204   2048359  
  8070.000000   2047831   2047619   2047638   2047749   2047783  
  8060.000000   2047584   2047051   2046161   2044994   2043698  
  8050.000000   2042463   2041439   2040705   2040235   2039921  
  8040.000000   2039620   2039206   2038620   2037870   2037010  
  8030.000000   2036088   2035113   2034039   2032803   2031365  
  8020.000000   2029764   2028130   2026657   2025546   2024925  
  8010.000000   2024809   2025083   2025555   2026007   2026268  
  8000.000000   2026248   2025937   2025386   2024654   2023808  
  7990.000000   2022883   2021920   2020945   2020004   2019121  
  7980.000000   2018311   2017549   2016797   2016017   2015207  
  7970.000000   2014426   2013781   2013408   2013414   2013844  
  7960.000000   2014654   2015722   2016883   2017969   2018847  
  7950.000000   2019425   2019664   2019548   2019094   2018328  
  7940.000000   2017315   2016135   2014896   2013697   2012611  
  7930.000000   2011665   2010837   2010089   2009388   2008746  
  7920.000000   2008221   2007896   2007835   2008039   2008432  
  7910.000000   2008872   2009205   2009328   2009240   2009038  
  7900.000000   2008898   2008989   2009413   2010149   2011057  
  7890.000000   2011923   2012533   2012747   2012543   2012021  
  7880.000000   2011355   2010740   2010312   2010127   2010138  
  7870.000000   2010231   2010268   2010132   2009764   2009174  
  7860.000000   2008426   2007619   2006843   2006173   2005643  
  7850.000000   2005260   2005014   2004886   2004859   2004914  
  7840.000000   2005018   2005125   2005170   2005092   2004851  
  7830.000000   2004447   2003930   2003388   2002918   2002595  
  7820.000000   2002441   2002415   2002428   2002380   2002188  
  7810.000000   2001829   2001335   2000788   2000277   1999877  
  7800.000000   1999605   1999436   1999299   1999111   1998800  
  7790.000000   1998316   1997644   1996788   1995769   1994618  
  7780.000000   1993374   1992087   1990815   1989622   1988562  
  7770.000000   1987677   1986980   1986467   1986114   1985902  
  7760.000000   1985809   1985824   1985932   1986104   1986291  
  7750.000000   1986421   1986414   1986197   1985729   1985010  
  7740.000000   1984089   1983053   1982008   1981058   1980280  
  7730.000000   1979712   1979340   1979111   1978938   1978726  
  7720.000000   1978397   1977907   1977265   1976521   1975756  
  7710.000000   1975041   1974424   1973902   1973433   1972951  
  7700.000000   1972403   1971774   1971106   1970485   1970013  
  7690.000000   1969772   1969777   1969980   1970267   1970506  
  7680.000000   1970584   1970451   1970125   1969679   1969205  
  7670.000000   1968771   1968395   1968044   1967646   1967127  
  7660.000000   1966442   1965595   1964641   1963667   1962764  
  7650.000000   1961997   1961394   1960947   1960618   1960367  
  7640.000000   1960159   1959986   1959854   1959785   1959800  
  7630.000000   1959909   1960108   1960367   1960643   1960869  
  7620.000000   1960984   1960921   1960642   1960129   1959409  
  7610.000000   1958545   1957633   1956785   1956106   1955668  
  7600.000000   1955499   1955579   1955843   1956207   1956580  
  7590.000000   1956893   1957107   1957218   1957254   1957256  
  7580.000000   1957268   1957313   1957398   1957500   1957585  
  7570.000000   1957607   1957531   1957341   1957049   1956690  
  7560.000000   1956318   1955989   1955751   1955629   1955633  
  7550.000000   1955750   1955965   1956260   1956622   1957046  
  7540.000000   1957527   1958054   1958609   1959170   1959716  
  7530.000000   1960229   1960707   1961146   1961549   1961900  
  7520.000000   1962175   1962330   1962328   1962147   1961806  
  7510.000000   1961371   1960946   1960652   1960601   1960865  
  7500.000000   1961460   1962338   1963404   1964538   1965629  
  7490.000000   1966591   1967385   1968012   1968516   1968955  
  7480.000000   1969402   1969908   1970513   1971222   1972029  
  7470.000000   1972905   1973824   1974755   1975681   1976594  
  7460.000000   1977495   1978396   1979319   1980295   1981360  
  7450.000000   1982550   1983891   1985384   1986998   1988657  
  7440.000000   1990260   1991693   1992879   1993782   1994444  
  7430.000000   1994956   1995454   1996061   1996864   1997880  
  7420.000000   1999073   2000372   2001710   2003052   2004403  
  7410.000000   2005801   2007279   2008849   2010473   2012081  
  7400.000000   2013597   2014964   2016180   2017287   2018361  
  7390.000000   2019470   2020644   2021862   2023064   2024185  
  7380.000000   2025187   2026087   2026952   2027878   2028940  
  7370.000000   2030159   2031490   2032823   2034032   2035005  
  7360.000000   2035695   2036131   2036417   2036706   2037162  
  7350.000000   2037929   2039099   2040703   2042692   2044961  
  7340.000000   2047364   2049745   2051958   2053894   2055498  
  7330.000000   2056767   2057748   2058512   2059150   2059741  
  7320.000000   2060347   2061012   2061765   2062635   2063637  
  7310.000000   2064785   2066058   2067420   2068794   2070100  
  7300.000000   2071259   2072224   2072985   2073569   2074027  
  7290.000000   2074412   2074766   2075117   2075486   2075899  
  7280.000000   2076390   2077002   2077759   2078656   2079639  
  7270.000000   2080611   2081462   2082099   2082496   2082685  
  7260.000000   2082773   2082880   2083126   2083566   2084205  
  7250.000000   2084986   2085845   2086721   2087608   2088534  
  7240.000000   2089563   2090756   2092156   2093761   2095550  
  7230.000000   2097472   2099486   2101543   2103617   2105665  
  7220.000000   2107665   2109579   2111399   2113129   2114814  
  7210.000000   2116509   2118290   2120206   2122287   2124518  
  7200.000000   2126867   2129285   2131738   2134199   2136669  
  7190.000000   2139141   2141623   2144099   2146570   2149027  
  7180.000000   2151494   2153994   2156574   2159265   2162094  
  7170.000000   2165058   2168149   2171342   2174631   2178009  
  7160.000000   2181489   2185066   2188743   2192485   2196268  
  7150.000000   2200049   2203819   2207568   2211330   2215129  
  7140.000000   2219008   2222977   2227053   2231221   2235487  
  7130.000000   2239846   2244315   2248899   2253612   2258447  
  7120.000000   2263405   2268469   2273645   2278921   2284299  
  7110.000000   2289751   2295241   2300699   2306072   2311306  
  7100.000000   2316406   2321404   2326382   2331415   2336570  
  7090.000000   2341865   2347289   2352803   2358382   2364022  
  7080.000000   2369747   2375587   2381562   2387643   2393763  
  7070.000000   2399817   2405710   2411378   2416820   2422082  
  7060.000000   2427254   2432418   2437644   2442963   2448378  
  7050.000000   2453874   2459429   2465024   2470637   2476246  
  7040.000000   2481826   2487361   2492847   2498305   2503770  
  7030.000000   2509278   2514845   2520447   2526027   2531509  
  7020.000000   2536833   2541982   2546987   2551928   2556882  
  7010.000000   2561905   2566992   2572099   2577136   2582035  
  7000.000000   2586748   2591284   2595676   2599977   2604216  
  6990.000000   2608406   2612527   2616565   2620503   2624353  
  6980.000000   2628124   2631841   2635503   2639115   2642662  
  6970.000000   2646155   2649598   2653015   2656404   2659753  
  6960.000000   2663008   2666123   2669054   2671819   2674469  
  6950.000000   2677105   2679803   2682607   2685471   2688296  
  6940.000000   2690941   2693304   2695341   2697108   2698706  
  6930.000000   2700269   2701884   2703588   2705340   2707081  
  6920.000000   2708746   2710319   2711814   2713279   2714743  
  6910.000000   2716210   2717642   2718985   2720188   2721237  
  6900.000000   2722161   2723023   2723898   2724850   2725912  
  6890.000000   2727094   2728375   2729734   2731133   2732542  
  6880.000000   2733918   2735222   2736418   2737490   2738443  
  6870.000000   2739307   2740125   2740930   2741738   2742539  
  6860.000000   2743309   2744030   2744701   2745349   2746017  
  6850.000000   2746745   2747548   2748415   2749302   2750168  
  6840.000000   2750978   2751727   2752428   2753107   2753778  
  6830.000000   2754440   2755073   2755658   2756184   2756662  
  6820.000000   2757112   2757553   2757985   2758390   2758730  
  6810.000000   2758978   2759123   2759189   2759217   2759258  
  6800.000000   2759338   2759457   2759583   2759678   2759712  
  6790.000000   2759686   2759622   2759565   2759550   2759598  
  6780.000000   2759703   2759847   2760002   2760147   2760264  
  6770.000000   2760339   2760356   2760298   2760154   2759930  
  6760.000000   2759657   2759385   2759167   2759038   2758997  
  6750.000000   2758999   2758975   2758856   2758601   2758215  
  6740.000000   2757743   2757255   2756819   2756482   2756259  
  6730.000000   2756143   2756117   2756161   2756257   2756383  
  6720.000000   2756499   2756553   2756484   2756251   2755845  
  6710.000000   2755309   2754720   2754171   2753734   2753440  
  6700.000000   2753262   2753136   2752972   2752705   2752289  
  6690.000000   2751733   2751066   2750345   2749618   2748921  
  6680.000000   2748264   2747638   2747008   2746331   2745557  
  6670.000000   2744649   2743591   2742402   2741127   2739838  
  6660.000000   2738602   2737474   2736468   2735568   2734726  
  6650.000000   2733894   2733028   2732109   2731130   2730098  
  6640.000000   2729012   2727873   2726674   2725423   2724134  
  6630.000000   2722843   2721580   2720370   2719207   2718066  
  6620.000000   2716896   2715656   2714315   2712874   2711353  
  6610.000000   2709783   2708189   2706585   2704970   2703344  
  6600.000000   2701714   2700095   2698509   2696971   2695475  
  6590.000000   2694004   2692524   2691014   2689465   2687894  
  6580.000000   2686328   2684795   2683304   2681842   2680383  
  6570.000000   2678900   2677384   2675849   2674331   2672862  
  6560.000000   2671463   2670127   2668823   2667513   2666167  
  6550.000000   2664781   2663379   2661999   2660682   2659448  
  6540.000000   2658296   2657198   2656118   2655014   2653857  
  6530.000000   2652627   2651326   2649964   2648572   2647185  
  6520.000000   2645849   2644602   2643465   2642433   2641474  
  6510.000000   2640537   2639573   2638550   2637468   2636358  
  6500.000000   2635268   2634247   2633319   2632481   2631706  
  6490.000000   2630952   2630186   2629389   2628556   2627690  
  6480.000000   2626792   2625857   2624874   2623837   2622751  
  6470.000000   2621632   2620506   2619393   2618300   2617218  
  6460.000000   2616128   2615013   2613869   2612709   2611561  
  6450.000000   2610454   2609410   2608438   2607537   2606703  
  6440.000000   2605939   2605251   2604646   2604117   2603641  
  6430.000000   2603178   2602685   2602127   2601500   2600828  
  6420.000000   2600160   2599545   2599023   2598601   2598264  
  6410.000000   2597974   2597693   2597391   2597050   2596668  
  6400.000000   2596250   2595807   2595359   2594929   2594547  
  6390.000000   2594242   2594031   2593909   2593850   2593807  
  6380.000000   2593731   2593584   2593356   2593061   2592727  
  6370.000000   2592382   2592037   2591686   2591311   2590904  
  6360.000000   2590469   2590033   2589625   2589267   2588952  
  6350.000000   2588650   2588311   2587897   2587389   2586805  
  6340.000000   2586183   2585571   2584993   2584451   2583919  
  6330.000000   2583368   2582774   2582148   2581513   2580911  
  6320.000000   2580362   2579868   2579388   2578874   2578271  
  6310.000000   2577552   2576713   2575787   2574813   2573830  
  6300.000000   2572858   2571898   2570933   2569943   2568901  
  6290.000000   2567796   2566617   2565371   2564069   2562736  
  6280.000000   2561393   2560066   2558763   2557482   2556195  
  6270.000000   2554874   2553486   2552022   2550493   2548936  
  6260.000000   2547390   2545884   2544424   2542987   2541532  
  6250.000000   2540023   2538438   2536791   2535113   2533451  
  6240.000000   2531842   2530307   2528843   2527433   2526048  
  6230.000000   2524664   2523258   2521810   2520303   2518725  
  6220.000000   2517076   2515371   2513646   2511946   2510312  
  6210.000000   2508764   2507296   2505872   2504445   2502978  
  6200.000000   2501458   2499907   2498364   2496871   2495450  
  6190.000000   2494093   2492770   2491443   2490087   2488703  
  6180.000000   2487319   2485967   2484677   2483451   2482268  
  6170.000000   2481089   2479880   2478624   2477329   2476021  
  6160.000000   2474737   2473506   2472341   2471244   2470203  
  6150.000000   2469202   2468230   2467271   2466310   2465328  
  6140.000000   2464309   2463242   2462132   2460993   2459858  
  6130.000000   2458752   2457699   2456701   2455752   2454837  
  6120.000000   2453947   2453082   2452256   2451483   2450778  
  6110.000000   2450137   2449551   2448998   2448465   2447939  
  6100.000000   2447428   2446938   2446486   2446076   2445716  
  6090.000000   2445399   2445126   2444893   2444707   2444564  
  6080.000000   2444468   2444411   2444392   2444405   2444463  
  6070.000000   2444577   2444770   2445051   2445429   2445887  
  6060.000000   2446410   2446966   2447543   2448127   2448727  
  6050.000000   2449346   2450004   2450704   2451464   2452291  
  6040.000000   2453208   2454230   2455382   2456663   2458071  
  6030.000000   2459576   2461148   2462752   2464376   2466014  
  6020.000000   2467682   2469388   2471141   2472924   2474719  
  6010.000000   2476492   2478228   2479919   2481581   2483230  
  6000.000000   2484893   2486578   2488294   2490034   2491802  
  5990.000000   2493595   2495424   2497294   2499209   2501161  
  5980.000000   2503143   2505143   2507168   2509230   2511363  
  5970.000000   2513589   2515932   2518385   2520932   2523533  
  5960.000000   2526163   2528792   2531418   2534045   2536692  
  5950.000000   2539372   2542100   2544884   2547733   2550656  
  5940.000000   2553663   2556756   2559929   2563162   2566419  
  5930.000000   2569663   2572857   2575979   2579016   2581968  
  5920.000000   2584835   2587612   2590291   2592858   2595303  
  5910.000000   2597624   2599826   2601923   2603930   2605869  
  5900.000000   2607758   2609628   2611511   2613453   2615494  
  5890.000000   2617669   2619983   2622418   2624926   2627449  
  5880.000000   2629925   2632303   2634552   2636661   2638631  
  5870.000000   2640472   2642206   2643854   2645450   2647032  
  5860.000000   2648638   2650297   2652023   2653807   2655633  
  5850.000000   2657480   2659341   2661226   2663164   2665190  
  5840.000000   2667335   2669610   2672006   2674492   2677029  
  5830.000000   2679576   2682106   2684593   2687029   2689403  
  5820.000000   2691717   2693975   2696195   2698400   2700614  
  5810.000000   2702856   2705126   2707418   2709699   2711954  
  5800.000000   2714154   2716317   2718440   2720553   2722641  
  5790.000000   2724698   2726659   2728471   2730042   2731313  
  5780.000000   2732205   2732680   2732685   2732209   2731239  
  5770.000000   2729819   2728006   2725922   2723682   2721430  
  5760.000000   2719258   2717243   2715395   2713712   2712160  
  5750.000000   2710723   2709384   2708147   2707010   2705970  
  5740.000000   2705012   2704108   2703237   2702374   2701519  
  5730.000000   2700665   2699823   2698991   2698177   2697376  
  5720.000000   2696598   2695850   2695153   2694516   2693949  
  5710.000000   2693445   2692994   2692582   2692208   2691881  
  5700.000000   2691620   2691440   2691348   2691331   2691358  
  5690.000000   2691393   2691403   2691375   2691307   2691214  
  5680.000000   2691103   2690977   2690810   2690572   2690213  
  5670.000000   2689695   2688981   2688056   2686910   2685556  
  5660.000000   2684014   2682331   2680560   2678773   2677029  
  5650.000000   2675381   2673843   2672411   2671048   2669714  
  5640.000000   2668372   2667006   2665614   2664212   2662817  
  5630.000000   2661442   2660098   2658790   2657532   2656333  
  5620.000000   2655212   2654173   2653209   2652294   2651397  
  5610.000000   2650485   2649544   2648579   2647616   2646686  
  5600.000000   2645818   2645021   2644290   2643606   2642956  
  5590.000000   2642331   2641733   2641167   2640628   2640103  
  5580.000000   2639563   2638976   2638319   2637584   2636783  
  5570.000000   2635939   2635075   2634207   2633334   2632451  
  5560.000000   2631546   2630615   2629661   2628692   2627713  
  5550.000000   2626726   2625726   2624712   2623685   2622661  
  5540.000000   2621661   2620711   2619823   2618997   2618216  
  5530.000000   2617454   2616688   2615903   2615099   2614282  
  5520.000000   2613463   2612645   2611824   2610990   2610134  
  5510.000000   2609252   2608344   2607416   2606471   2605512  
  5500.000000   2604533   2603534   2602516   2601489   2600461  
  5490.000000   2599441   2598423   2597391   2596318   2595183  
  5480.000000   2593969   2592680   2591330   2589941   2588527  
  5470.000000   2587100   2585653   2584181   2582672   2581124  
  5460.000000   2579532   2577898   2576210   2574461   2572642  
  5450.000000   2570757   2568827   2566889   2564988   2563158  
  5440.000000   2561419   2559766   2558184   2556652   2555162  
  5430.000000   2553713   2552314   2550957   2549632   2548307  
  5420.000000   2546968   2545605   2544256   2542975   2541843  
  5410.000000   2540907   2540191   2539653   2539237   2538861  
  5400.000000   2538488   2538093   2537712   2537376   2537142  
  5390.000000   2537024   2537041   2537176   2537436   2537824  
  5380.000000   2538377   2539110   2540051   2541172   2542455  
  5370.000000   2543835   2545288   2546773   2548312   2549899  
  5360.000000   2551587   2553372   2555302   2557370   2559639  
  5350.000000   2562125   2564916   2568037   2571568   2575492  
  5340.000000   2579852   2584596   2589761   2595303   2601276  
  5330.000000   2607632   2614416   2621557   2629083   2636926  
  5320.000000   2645154   2653754   2662855   2672475   2682753  
  5310.000000   2693670   2705315   2717613   2730615   2744240  
  5300.000000   2758557   2773519   2789235   2805689   2822999  
  5290.000000   2841141   2860183   2880033   2900673   2921945  
  5280.000000   2943805   2966138   2988988   3012358   3036375  
  5270.000000   3061067   3086476   3112485   3138939   3165607  
  5260.000000   3192304   3218917   3245438   3271936   3298475  
  5250.000000   3325088   3351663   3378041   3403943   3429186  
  5240.000000   3453578   3477140   3499882   3521983   3543504  
  5230.000000   3564584   3585162   3605236   3624627   3643287  
  5220.000000   3661065   3678014   3694106   3709504   3724240  
  5210.000000   3738473   3752165   3765365   3777922   3789815  
  5200.000000   3800894   3811204   3820699   3829511   3837640  
  5190.000000   3845200   3852137   3858497   3864188   3869260  
  5180.000000   3873662   3877498   3880758   3883543   3885811  
  5170.000000   3887617   3888893   3889693   3889984   3889859  
  5160.000000   3889314   3888429   3887164   3885544   3883498  
  5150.000000   3881048   3878164   3874918   3871328   3867478  
  5140.000000   3863371   3859048   3854482   3849699   3844690  
  5130.000000   3839509   3834177   3828756   3823257   3817706  
  5120.000000   3812088   3806413   3800678   3794916   3789150  
  5110.000000   3783421   3777742   3772122   3766540   3760979  
  5100.000000   3755414   3749838   3744249   3738660   3733082  
  5090.000000   3727524   3721987   3716470   3710966   3705473  
  5080.000000   3699984   3694500   3689014   3683527   3678033  
  5070.000000   3672536   3667031   3661519   3655989   3650433  
  5060.000000   3644825   3639148   3633379   3627516   3621559  
  5050.000000   3615530   3609443   3603324   3597176   3591005  
  5040.000000   3584798   3578551   3572256   3565918   3559546  
  5030.000000   3553160   3546777   3540414   3534086   3527804  
  5020.000000   3521579   3515416   3509327   3503311   3497382  
  5010.000000   3491537   3485795   3480156   3474645   3469268  
  5000.000000   3464054   3459001   3454135   3449446   3444958  
  4990.000000   3440659   3436580   3432711   3429090   3425700  
  4980.000000   3422571   3419678   3417044   3414641   3412505  
  4970.000000   3410617   3409029   3407726   3406758   3406099  
  4960.000000   3405785   3405779   3406113   3406754   3407745  
  4950.000000   3409062   3410751   3412786   3415202   3417958  
  4940.000000   3421078   3424514   3428295   3432375   3436789  
  4930.000000   3441498   3446536   3451868   3457529   3463487  
  4920.000000   3469776   3476363   3483275   3490478   3497990  
  4910.000000   3505777   3513854   3522193   3530801   3539646  
  4900.000000   3548714   3557957   3567340   3576815   3586343  
  4890.000000   3595896   3605444   3614968   3624429   3633800  
  4880.000000   3643016   3652041   3660802   3669271   3677385  
  4870.000000   3685131   3692457   3699362   3705801   3711791  
  4860.000000   3717307   3722396   3727055   3731350   3735285  
  4850.000000   3738922   3742259   3745350   3748193   3750840  
  4840.000000   3753293   3755602   3757767   3759828   3761780  
  4830.000000   3763654   3765449   3767195   3768897   3770579  
  4820.000000   3772240   3773885   3775506   3777098   3778659  
  4810.000000   3780195   3781721   3783257   3784823   3786441  
  4800.000000   3788124   3789881   3791719   3793635   3795629  
  4790.000000   3797690   3799806   3801962   3804143   3806334  
  4780.000000   3808531   3810734   3812942   3815157   3817370  
  4770.000000   3819568   3821724   3823818   3825825   3827738  
  4760.000000   3829553   3831284   3832935   3834521   3836035  
  4750.000000   3837476   3838822   3840063   3841177   3842163  
  4740.000000   3843015   3843750   3844376   3844920   3845394  
  4730.000000   3845818   3846190   3846513   3846773   3846961  
  4720.000000   3847064   3847086   3847037   3846942   3846837  
  4710.000000   3846758   3846744   3846822   3847016   3847333  
  4700.000000   3847778   3848346   3849033   3849833   3850745  
  4690.000000   3851768   3852909   3854168   3855548   3857031  
  4680.000000   3858594   3860188   3861767   3863265   3864644  
  4670.000000   3865867   3866945   3867896   3868775   3869633  
  4660.000000   3870536   3871523   3872639   3873903   3875336  
  4650.000000   3876949   3878756   3880763   3882972   3885374  
  4640.000000   3887948   3890664   3893481   3896360   3899255  
  4630.000000   3902130   3904946   3907674   3910286   3912765  
  4620.000000   3915089   3917247   3919221   3920999   3922559  
  4610.000000   3923895   3924994   3925878   3926561   3927099  
  4600.000000   3927529   3927917   3928291   3928691   3929111  
  4590.000000   3929554   3929983   3930382   3930703   3930926  
  4580.000000   3931006   3930930   3930668   3930223   3929589  
  4570.000000   3928793   3927850   3926797   3925652   3924445  
  4560.000000   3923182   3921882   3920545   3919186   3917802  
  4550.000000   3916400   3914962   3913475   3911908   3910243  
  4540.000000   3908461   3906569   3904588   3902551   3900501  
  4530.000000   3898464   3896465   3894501   3892577   3890676  
  4520.000000   3888818   3887005   3885286   3883675   3882231  
  4510.000000   3880958   3879911   3879080   3878530   3878259  
  4500.000000   3878353   3878821   3879756   3881158   3883116  
  4490.000000   3885619   3888757   3892523   3897015   3902218  
  4480.000000   3908212   3914947   3922457   3930650   3939530  
  4470.000000   3948994   3959046   3969600   3980671   3992186  
  4460.000000   4004155   4016502   4029222   4042231   4055506  
  4450.000000   4068964   4082575   4096267   4110013   4123767  
  4440.000000   4137513   4151235   4164924   4178584   4192193  
  4430.000000   4205756   4219225   4232592   4245781   4258772  
  4420.000000   4271473   4283863   4295840   4307389   4318404  
  4410.000000   4328866   4338667   4347790   4356136   4363708  
  4400.000000   4370447   4376403   4381575   4386066   4389927  
  4390.000000   4393295   4396248   4398931   4401422   4403842  
  4380.000000   4406243   4408701   4411232   4413875   4416639  
  4370.000000   4419561   4422671   4426018   4429647   4433592  
  4360.000000   4437870   4442477   4447377   4452529   4457855  
  4350.000000   4463309   4468800   4474308   4479764   4485197  
  4340.000000   4490578   4495948   4501240   4506378   4511115  
  4330.000000   4515141   4518014   4519319   4518696   4516006  
  4320.000000   4511344   4505097   4497831   4490238   4482935  
  4310.000000   4476434   4470997   4466718   4463491   4461157  
  4300.000000   4459513   4458404   4457714   4457366   4457312  
  4290.000000   4457493   4457881   4458421   4459112   4459934  
  4280.000000   4460914   4462055   4463363   4464832   4466435  
  4270.000000   4468158   4469957   4471802   4473592   4475199  
  4260.000000   4476398   4476946   4476566   4475057   4472309  
  4250.000000   4468382   4463457   4457857   4451923   4446016  
  4240.000000   4440387   4435222   4430563   4426398   4422629  
  4230.000000   4419161   4415878   4412685   4409502   4406266  
  4220.000000   4402950   4399534   4396064   4392579   4389190  
  4210.000000   4385972   4383048   4380477   4378330   4376608  
  4200.000000   4375317   4374402   4373828   4373514   4373420  
  4190.000000   4373470   4373643   4373884   4374209   4374588  
  4180.000000   4375063   4375621   4376316   4377141   4378160  
  4170.000000   4379380   4380880   4382683   4384875   4387472  
  4160.000000   4390542   4394070   4398093   4402566   4407513  
  4150.000000   4412878   4418689   4424890   4431513   4438502  
  4140.000000   4445896   4453652   4461828   4470398   4479435  
  4130.000000   4488916   4498903   4509356   4520314   4531729  
  4120.000000   4543636   4555998   4568865   4582215   4596095  
  4110.000000   4610477   4625377   4640736   4656529   4672670  
  4100.000000   4689112   4705771   4722610   4739577   4756664  
  4090.000000   4773852   4791140   4808515   4825954   4843439  
  4080.000000   4860929   4878418   4895865   4913278   4930601  
  4070.000000   4947818   4964823   4981565   4997911   5013822  
  4060.000000   5029196   5044050   5058319   5072052   5085189  
  4050.000000   5097784   5109783   5121267   5132200   5142679  
  4040.000000   5152649   5162172   5171135   5179561   5187326  
  4030.000000   5194470   5200905   5206700   5211782   5216189  
  4020.000000   5219803   5222649   5224676   5225946   5226414  
  4010.000000   5226224   5225461   5224164   5222143   5219477  
  4000.000000   5216486  
##END= 
