##TITLE= Sample 001 By ssteindl date Montag, November 26 2018
##JCAMP-DX= 4.24
##DATA TYPE= INFRARED SPECTRUM
##ORIGIN= Exported PE Spectrum Data File
##OWNER= Sandra Steindl
##DATE= 18/11/26
##TIME= 12:04:15.00
##SPECTROMETER/DATA SYSTEM= PERKIN-ELMER Frontier FT-IR/NIR IR
##INSTRUMENT PARAMETERS=
  APODIZATION=stark
  DETECTOR=INGAAS
##RESOLUTION= 16.000000
##DELTAX= -2.000000
##XUNITS= 1/CM
##YUNITS= A
##XFACTOR= 1.00
##YFACTOR= 0.00000011920928955078
##FIRSTX= 10000.00
##LASTX= 4000.00
##NPOINTS= 3001
##FIRSTY= 0.271890
##MAXY= 0.651284
##MINY= 0.216510
##XYDATA= (X++(Y..Y))
 10000.000000   2280779   2281128   2282504   2285737   2289675  
  9990.000000   2292231   2292136   2289389   2284589   2278599  
  9980.000000   2272607   2267559   2263697   2260454   2256942  
  9970.000000   2252335   2246210   2238824   2231068   2224240  
  9960.000000   2219630   2218220   2220407   2225930   2233927  
  9950.000000   2243054   2251808   2258717   2262771   2263527  
  9940.000000   2261364   2257290   2252788   2249327   2247995  
  9930.000000   2249166   2252457   2256971   2261598   2265517  
  9920.000000   2268279   2269997   2271008   2271757   2272462  
  9910.000000   2273082   2273346   2272867   2271341   2268563  
  9900.000000   2264523   2259314   2253177   2246485   2239755  
  9890.000000   2233665   2228873   2225936   2225015   2225904  
  9880.000000   2227966   2230485   2232803   2234669   2236140  
  9870.000000   2237531   2239094   2240768   2242201   2242690  
  9860.000000   2241658   2238642   2233667   2226978   2219030  
  9850.000000   2210239   2200940   2191556   2182675   2175353  
  9840.000000   2170845   2170480   2174977   2184162   2196687  
  9830.000000   2210309   2222470   2230920   2234424   2232830  
  9820.000000   2227098   2218673   2209128   2199675   2191131  
  9810.000000   2184015   2178719   2175698   2175291   2177650  
  9800.000000   2182354   2188472   2194569   2199154   2201057  
  9790.000000   2199747   2195499   2189119   2181774   2174506  
  9780.000000   2168146   2163161   2159790   2158140   2158226  
  9770.000000   2160004   2163216   2167410   2171895   2175926  
  9760.000000   2178874   2180377   2180459   2179370   2177537  
  9750.000000   2175272   2172804   2170193   2167523   2164959  
  9740.000000   2162832   2161576   2161548   2162915   2165460  
  9730.000000   2168700   2171924   2174523   2176117   2176731  
  9720.000000   2176704   2176553   2176715   2177396   2178460  
  9710.000000   2179483   2179894   2179159   2176988   2173391  
  9700.000000   2168690   2163378   2157956   2152791   2148048  
  9690.000000   2143729   2139802   2136298   2133400   2131391  
  9680.000000   2130546   2130995   2132596   2134978   2137607  
  9670.000000   2140011   2141920   2143360   2144628   2146112  
  9660.000000   2148126   2150693   2153534   2156070   2157664  
  9650.000000   2157750   2156085   2152739   2148136   2142884  
  9640.000000   2137654   2133056   2129517   2127308   2126450  
  9630.000000   2126860   2128269   2130421   2133006   2135838  
  9620.000000   2138755   2141678   2144480   2146935   2148714  
  9610.000000   2149357   2148478   2145791   2141343   2135442  
  9600.000000   2128674   2121707   2115143   2109433   2104800  
  9590.000000   2101370   2099167   2098254   2098650   2100300  
  9580.000000   2102978   2106228   2109471   2112060   2113542  
  9570.000000   2113673   2112557   2110507   2107987   2105480  
  9560.000000   2103412   2102165   2102027   2103242   2105886  
  9550.000000   2109821   2114559   2119285   2122966   2124583  
  9540.000000   2123433   2119320   2112687   2104463   2095883  
  9530.000000   2088131   2082118   2078307   2076684   2076896  
  9520.000000   2078328   2080350   2082353   2083932   2084879  
  9510.000000   2085242   2085283   2085348   2085781   2086681  
  9500.000000   2087902   2088989   2089388   2088627   2086555  
  9490.000000   2083473   2080069   2077246   2075777   2076040  
  9480.000000   2077851   2080528   2083109   2084669   2084555  
  9470.000000   2082589   2079014   2074453   2069688   2065524  
  9460.000000   2062620   2061372   2061849   2063706   2066260  
  9450.000000   2068543   2069538   2068413   2064811   2059008  
  9440.000000   2051938   2044964   2039507   2036624   2036678  
  9430.000000   2039302   2043518   2048123   2052009   2054493  
  9420.000000   2055436   2055171   2054297   2053337   2052563  
  9410.000000   2051842   2050804   2048972   2046056   2042051  
  9400.000000   2037350   2032652   2028811   2026605   2026458  
  9390.000000   2028300   2031524   2035182   2038274   2040034  
  9380.000000   2040175   2038935   2037027   2035390   2034885  
  9370.000000   2035995   2038641   2042282   2046089   2049299  
  9360.000000   2051392   2052283   2052236   2051764   2051339  
  9350.000000   2051197   2051211   2050921   2049744   2047159  
  9340.000000   2042948   2037246   2030558   2023646   2017330  
  9330.000000   2012345   2009127   2007814   2008199   2009886  
  9320.000000   2012340   2015046   2017553   2019562   2020930  
  9310.000000   2021647   2021819   2021560   2021028   2020293  
  9300.000000   2019404   2018273   2016780   2014773   2012193  
  9290.000000   2009123   2005818   2002665   2000100   1998493  
  9280.000000   1998025   1998605   1999873   2001340   2002543  
  9270.000000   2003221   2003351   2003173   2003088   2003533  
  9260.000000   2004847   2007110   2010170   2013620   2016959  
  9250.000000   2019608   2021028   2020804   2018767   2015122  
  9240.000000   2010418   2005531   2001429   1999042   1998935  
  9230.000000   2001167   2005154   2009862   2014081   2016769  
  9220.000000   2017279   2015465   2011653   2006501   2000811  
  9210.000000   1995300   1990523   1986826   1984426   1983393  
  9200.000000   1983633   1984881   1986686   1988528   1989875  
  9190.000000   1990374   1989933   1988784   1987423   1986354  
  9180.000000   1985962   1986300   1987171   1988139   1988728  
  9170.000000   1988590   1987626   1986014   1984090   1982289  
  9160.000000   1981006   1980539   1981017   1982373   1984357  
  9150.000000   1986538   1988371   1989282   1988825   1986845  
  9140.000000   1983579   1979632   1975846   1973062   1971887  
  9130.000000   1972472   1974451   1977089   1979510   1980994  
  9120.000000   1981123   1979944   1977879   1975581   1973684  
  9110.000000   1972633   1972611   1973463   1974800   1976061  
  9100.000000   1976719   1976346   1974724   1971909   1968248  
  9090.000000   1964321   1960805   1958335   1957378   1958086  
  9080.000000   1960255   1963366   1966699   1969537   1971273  
  9070.000000   1971645   1970730   1968978   1967019   1965539  
  9060.000000   1965065   1965773   1967429   1969393   1970865  
  9050.000000   1971005   1969239   1965378   1959737   1953005  
  9040.000000   1946042   1939704   1934673   1931392   1930025  
  9030.000000   1930543   1932768   1936444   1941160   1946400  
  9020.000000   1951498   1955792   1958750   1960095   1959956  
  9010.000000   1958730   1957064   1955474   1954272   1953362  
  9000.000000   1952395   1950910   1948583   1945440   1941864  
  8990.000000   1938574   1936304   1935671   1936879   1939754  
  8980.000000   1943729   1948076   1952065   1955128   1956966  
  8970.000000   1957510   1956929   1955480   1953473   1951144  
  8960.000000   1948661   1946093   1943466   1940812   1938203  
  8950.000000   1935839   1933960   1932871   1932729   1933555  
  8940.000000   1935103   1936956   1938593   1939545   1939551  
  8930.000000   1938569   1936809   1934551   1932105   1929641  
  8920.000000   1927246   1924900   1922611   1920433   1918504  
  8910.000000   1917003   1916082   1915831   1916240   1917246  
  8900.000000   1918761   1920713   1923015   1925543   1928103  
  8890.000000   1930423   1932237   1933352   1933768   1933664  
  8880.000000   1933355   1933133   1933145   1933315   1933384  
  8870.000000   1933037   1932069   1930513   1928638   1926866  
  8860.000000   1925566   1924920   1924834   1925009   1925096  
  8850.000000   1924855   1924279   1923564   1923009   1922835  
  8840.000000   1923069   1923532   1923930   1924024   1923776  
  8830.000000   1923374   1923190   1923588   1924770   1926655  
  8820.000000   1928894   1930981   1932446   1933003   1932662  
  8810.000000   1931677   1930473   1929477   1929005   1929193  
  8800.000000   1929983   1931196   1932587   1933934   1935071  
  8790.000000   1935936   1936557   1937042   1937526   1938114  
  8780.000000   1938834   1939597   1940224   1940486   1940208  
  8770.000000   1939350   1938050   1936633   1935487   1934972  
  8760.000000   1935253   1936278   1937751   1939259   1940391  
  8750.000000   1940868   1940622   1939767   1938552   1937214  
  8740.000000   1935925   1934706   1933495   1932176   1930701  
  8730.000000   1929143   1927716   1926741   1926537   1927344  
  8720.000000   1929215   1931993   1935325   1938743   1941787  
  8710.000000   1944097   1945508   1946039   1945886   1945321  
  8700.000000   1944642   1944067   1943733   1943666   1943830  
  8690.000000   1944149   1944533   1944915   1945230   1945466  
  8680.000000   1945630   1945794   1946050   1946521   1947298  
  8670.000000   1948405   1949768   1951208   1952496   1953407  
  8660.000000   1953813   1953709   1953232   1952594   1952014  
  8650.000000   1951646   1951543   1951663   1951926   1952261  
  8640.000000   1952660   1953160   1953817   1954651   1955621  
  8630.000000   1956622   1957520   1958231   1958754   1959209  
  8620.000000   1959784   1960679   1962033   1963850   1966001  
  8610.000000   1968235   1970263   1971799   1972650   1972724  
  8600.000000   1972082   1970893   1969428   1968016   1966989  
  8590.000000   1966647   1967169   1968613   1970866   1973713  
  8580.000000   1976848   1979972   1982815   1985193   1986998  
  8570.000000   1988176   1988715   1988613   1987925   1986746  
  8560.000000   1985271   1983737   1982409   1981496   1981100  
  8550.000000   1981199   1981650   1982269   1982888   1983430  
  8540.000000   1983927   1984485   1985225   1986211   1987419  
  8530.000000   1988735   1990009   1991132   1992093   1993003  
  8520.000000   1994049   1995426   1997245   1999467   2001873  
  8510.000000   2004116   2005820   2006668   2006506   2005389  
  8500.000000   2003574   2001446   1999401   1997781   1996789  
  8490.000000   1996492   1996808   1997594   1998684   1999938  
  8480.000000   2001234   2002463   2003523   2004294   2004664  
  8470.000000   2004540   2003935   2002947   2001795   2000745  
  8460.000000   2000070   1999975   2000548   2001758   2003472  
  8450.000000   2005517   2007719   2009920   2011990   2013797  
  8440.000000   2015234   2016183   2016572   2016383   2015720  
  8430.000000   2014780   2013825   2013131   2012904   2013274  
  8420.000000   2014226   2015675   2017456   2019419   2021398  
  8410.000000   2023239   2024763   2025781   2026121   2025660  
  8400.000000   2024398   2022470   2020173   2017880   2015960  
  8390.000000   2014674   2014104   2014165   2014625   2015231  
  8380.000000   2015769   2016158   2016426   2016695   2017088  
  8370.000000   2017683   2018464   2019321   2020102   2020645  
  8360.000000   2020854   2020694   2020210   2019487   2018630  
  8350.000000   2017732   2016848   2016013   2015226   2014499  
  8340.000000   2013845   2013302   2012916   2012730   2012769  
  8330.000000   2012998   2013313   2013541   2013488   2012992  
  8320.000000   2011986   2010541   2008869   2007300   2006183  
  8310.000000   2005810   2006293   2007563   2009358   2011318  
  8300.000000   2013047   2014216   2014615   2014180   2012979  
  8290.000000   2011166   2008946   2006529   2004124   2001898  
  8280.000000   1999969   1998383   1997108   1996062   1995130  
  8270.000000   1994224   1993306   1992426   1991691   1991227  
  8260.000000   1991107   1991307   1991711   1992135   1992397  
  8250.000000   1992382   1992083   1991599   1991084   1990678  
  8240.000000   1990446   1990346   1990258   1990020   1989498  
  8230.000000   1988617   1987382   1985864   1984165   1982405  
  8220.000000   1980682   1979096   1977722   1976635   1975871  
  8210.000000   1975433   1975253   1975220   1975190   1975037  
  8200.000000   1974678   1974092   1973306   1972370   1971314  
  8190.000000   1970132   1968793   1967268   1965572   1963771  
  8180.000000   1961982   1960325   1958868   1957606   1956436  
  8170.000000   1955218   1953821   1952206   1950447   1948726  
  8160.000000   1947264   1946234   1945694   1945547   1945575  
  8150.000000   1945495   1945059   1944124   1942703   1940951  
  8140.000000   1939116   1937458   1936175   1935359   1934973  
  8130.000000   1934882   1934892   1934810   1934480   1933821  
  8120.000000   1932827   1931550   1930080   1928505   1926896  
  8110.000000   1925290   1923708   1922151   1920643   1919218  
  8100.000000   1917927   1916828   1915949   1915291   1914809  
  8090.000000   1914438   1914109   1913785   1913467   1913187  
  8080.000000   1912986   1912870   1912799   1912665   1912337  
  8070.000000   1911677   1910611   1909136   1907347   1905402  
  8060.000000   1903495   1901806   1900461   1899528   1898997  
  8050.000000   1898816   1898888   1899111   1899373   1899579  
  8040.000000   1899644   1899515   1899163   1898590   1897823  
  8030.000000   1896888   1895825   1894643   1893358   1891971  
  8020.000000   1890505   1888999   1887511   1886113   1884859  
  8010.000000   1883792   1882920   1882243   1881752   1881459  
  8000.000000   1881379   1881526   1881883   1882377   1882884  
  7990.000000   1883242   1883305   1882981   1882283   1881313  
  7980.000000   1880253   1879280   1878526   1878012   1877658  
  7970.000000   1877309   1876801   1876027   1874970   1873713  
  7960.000000   1872400   1871197   1870228   1869561   1869187  
  7950.000000   1869047   1869052   1869112   1869152   1869121  
  7940.000000   1868995   1868766   1868453   1868080   1867681  
  7930.000000   1867277   1866871   1866444   1865967   1865421  
  7920.000000   1864822   1864228   1863734   1863441   1863412  
  7910.000000   1863640   1864037   1864456   1864741   1864781  
  7900.000000   1864549   1864104   1863557   1863025   1862586  
  7890.000000   1862258   1862015   1861812   1861629   1861469  
  7880.000000   1861360   1861314   1861303   1861250   1861059  
  7870.000000   1860661   1860064   1859380   1858791   1858505  
  7860.000000   1858661   1859287   1860268   1861396   1862436  
  7850.000000   1863200   1863599   1863638   1863385   1862913  
  7840.000000   1862264   1861440   1860434   1859277   1858062  
  7830.000000   1856954   1856140   1855775   1855906   1856467  
  7820.000000   1857266   1858062   1858613   1858758   1858437  
  7810.000000   1857704   1856688   1855559   1854483   1853588  
  7800.000000   1852947   1852564   1852381   1852283   1852133  
  7790.000000   1851796   1851176   1850253   1849079   1847781  
  7780.000000   1846517   1845440   1844654   1844191   1844015  
  7770.000000   1844038   1844155   1844266   1844299   1844212  
  7760.000000   1843993   1843651   1843210   1842707   1842188  
  7750.000000   1841697   1841274   1840936   1840682   1840480  
  7740.000000   1840290   1840059   1839741   1839298   1838705  
  7730.000000   1837951   1837047   1836033   1834983   1834008  
  7720.000000   1833224   1832740   1832604   1832797   1833218  
  7710.000000   1833719   1834142   1834363   1834324   1834024  
  7700.000000   1833513   1832838   1832033   1831094   1830016  
  7690.000000   1828809   1827535   1826311   1825285   1824592  
  7680.000000   1824299   1824384   1824726   1825157   1825507  
  7670.000000   1825661   1825585   1825317   1824947   1824557  
  7660.000000   1824208   1823907   1823634   1823349   1823034  
  7650.000000   1822694   1822359   1822069   1821855   1821726  
  7640.000000   1821666   1821650   1821651   1821657   1821675  
  7630.000000   1821726   1821828   1821985   1822178   1822367  
  7620.000000   1822499   1822523   1822409   1822156   1821796  
  7610.000000   1821379   1820965   1820595   1820286   1820018  
  7600.000000   1819750   1819435   1819043   1818575   1818066  
  7590.000000   1817584   1817197   1816962   1816899   1816984  
  7580.000000   1817163   1817357   1817500   1817540   1817465  
  7570.000000   1817281   1817029   1816750   1816496   1816305  
  7560.000000   1816213   1816240   1816404   1816710   1817158  
  7550.000000   1817734   1818414   1819156   1819911   1820624  
  7540.000000   1821252   1821762   1822166   1822492   1822807  
  7530.000000   1823167   1823622   1824174   1824790   1825405  
  7520.000000   1825963   1826438   1826867   1827342   1827982  
  7510.000000   1828890   1830104   1831572   1833171   1834731  
  7500.000000   1836102   1837193   1838010   1838630   1839173  
  7490.000000   1839741   1840396   1841137   1841928   1842713  
  7480.000000   1843467   1844192   1844925   1845706   1846562  
  7470.000000   1847488   1848460   1849447   1850441   1851460  
  7460.000000   1852553   1853769   1855149   1856695   1858377  
  7450.000000   1860140   1861927   1863698   1865435   1867139  
  7440.000000   1868823   1870494   1872153   1873789   1875392  
  7430.000000   1876951   1878463   1879920   1881322   1882654  
  7420.000000   1883905   1885068   1886154   1887197   1888251  
  7410.000000   1889385   1890667   1892154   1893873   1895824  
  7400.000000   1897972   1900254   1902593   1904903   1907105  
  7390.000000   1909140   1910989   1912659   1914192   1915630  
  7380.000000   1917015   1918364   1919673   1920924   1922107  
  7370.000000   1923248   1924404   1925672   1927145   1928897  
  7360.000000   1930939   1933225   1935648   1938077   1940387  
  7350.000000   1942491   1944344   1945946   1947331   1948539  
  7340.000000   1949615   1950588   1951490   1952350   1953200  
  7330.000000   1954072   1954986   1955948   1956945   1957965  
  7320.000000   1958991   1960036   1961129   1962323   1963668  
  7310.000000   1965192   1966886   1968695   1970532   1972293  
  7300.000000   1973893   1975278   1976441   1977408   1978236  
  7290.000000   1978984   1979704   1980432   1981190   1981997  
  7280.000000   1982877   1983862   1984984   1986263   1987687  
  7270.000000   1989208   1990743   1992196   1993485   1994563  
  7260.000000   1995443   1996174   1996843   1997517   1998250  
  7250.000000   1999044   1999886   2000747   2001628   2002560  
  7240.000000   2003614   2004865   2006374   2008152   2010167  
  7230.000000   2012343   2014610   2016903   2019210   2021532  
  7220.000000   2023902   2026318   2028779   2031237   2033656  
  7210.000000   2035997   2038276   2040533   2042852   2045313  
  7200.000000   2047988   2050904   2054054   2057396   2060880  
  7190.000000   2064440   2068032   2071607   2075138   2078595  
  7180.000000   2081973   2085263   2088484   2091648   2094792  
  7170.000000   2097929   2101098   2104310   2107602   2110989  
  7160.000000   2114507   2118166   2121985   2125962   2130106  
  7150.000000   2134417   2138919   2143625   2148560   2153705  
  7140.000000   2159027   2164433   2169836   2175133   2180295  
  7130.000000   2185323   2190304   2195327   2200506   2205888  
  7120.000000   2211486   2217234   2223065   2228904   2234735  
  7110.000000   2240575   2246493   2252548   2258794   2265231  
  7100.000000   2271840   2278569   2285381   2292238   2299132  
  7090.000000   2306047   2312974   2319886   2326762   2333582  
  7080.000000   2340352   2347091   2353837   2360611   2367423  
  7070.000000   2374250   2381055   2387795   2394445   2400999  
  7060.000000   2407477   2413906   2420317   2426735   2433181  
  7050.000000   2439681   2446261   2452950   2459763   2466691  
  7040.000000   2473692   2480700   2487640   2494450   2501098  
  7030.000000   2507588   2513943   2520204   2526401   2532563  
  7020.000000   2538704   2544852   2551028   2557262   2563552  
  7010.000000   2569867   2576124   2582218   2588028   2593483  
  7000.000000   2598561   2603330   2607899   2612414   2616993  
  6990.000000   2621728   2626635   2631703   2636865   2642052  
  6980.000000   2647164   2652119   2656822   2661218   2665271  
  6970.000000   2669011   2672499   2675840   2679123   2682421  
  6960.000000   2685739   2689046   2692272   2695366   2698291  
  6950.000000   2701063   2703709   2706272   2708760   2711170  
  6940.000000   2713476   2715683   2717810   2719933   2722128  
  6930.000000   2724472   2726984   2729634   2732325   2734943  
  6920.000000   2737374   2739546   2741426   2743030   2744399  
  6910.000000   2745594   2746676   2747718   2748783   2749939  
  6900.000000   2751226   2752657   2754198   2755793   2757361  
  6890.000000   2758846   2760212   2761464   2762626   2763731  
  6880.000000   2764789   2765801   2766750   2767632   2768456  
  6870.000000   2769254   2770061   2770902   2771775   2772652  
  6860.000000   2773492   2774269   2774976   2775642   2776311  
  6850.000000   2777022   2777794   2778619   2779470   2780327  
  6840.000000   2781177   2782030   2782898   2783784   2784666  
  6830.000000   2785506   2786257   2786899   2787438   2787917  
  6820.000000   2788385   2788881   2789401   2789913   2790357  
  6810.000000   2790693   2790901   2791008   2791052   2791076  
  6800.000000   2791089   2791074   2790993   2790820   2790554  
  6790.000000   2790235   2789916   2789644   2789434   2789263  
  6780.000000   2789082   2788855   2788569   2788260   2787984  
  6770.000000   2787798   2787722   2787729   2787755   2787730  
  6760.000000   2787603   2787365   2787043   2786684   2786322  
  6750.000000   2785966   2785602   2785210   2784785   2784352  
  6740.000000   2783956   2783647   2783449   2783352   2783307  
  6730.000000   2783254   2783138   2782934   2782648   2782308  
  6720.000000   2781942   2781570   2781193   2780813   2780431  
  6710.000000   2780064   2779729   2779443   2779193   2778951  
  6700.000000   2778665   2778293   2777806   2777211   2776527  
  6690.000000   2775787   2774999   2774162   2773255   2772268  
  6680.000000   2771208   2770118   2769048   2768052   2767148  
  6670.000000   2766320   2765514   2764671   2763743   2762720  
  6660.000000   2761620   2760481   2759338   2758210   2757091  
  6650.000000   2755972   2754843   2753715   2752610   2751555  
  6640.000000   2750561   2749619   2748697   2747756   2746758  
  6630.000000   2745684   2744528   2743298   2741998   2740633  
  6620.000000   2739205   2737725   2736212   2734698   2733204  
  6610.000000   2731741   2730286   2728801   2727238   2725571  
  6600.000000   2723805   2721987   2720176   2718433   2716784  
  6590.000000   2715221   2713708   2712206   2710688   2709157  
  6580.000000   2707630   2706125   2704637   2703137   2701579  
  6570.000000   2699926   2698170   2696343   2694508   2692730  
  6560.000000   2691057   2689493   2688009   2686557   2685104  
  6550.000000   2683643   2682200   2680822   2679551   2678407  
  6540.000000   2677382   2676446   2675564   2674705   2673853  
  6530.000000   2672993   2672109   2671173   2670159   2669041  
  6520.000000   2667819   2666511   2665156   2663792   2662443  
  6510.000000   2661111   2659783   2658444   2657097   2655772  
  6500.000000   2654516   2653377   2652381   2651521   2650755  
  6490.000000   2650026   2649282   2648497   2647676   2646842  
  6480.000000   2646019   2645215   2644421   2643608   2642753  
  6470.000000   2641844   2640892   2639914   2638928   2637937  
  6460.000000   2636926   2635872   2634756   2633582   2632376  
  6450.000000   2631188   2630073   2629071   2628200   2627449  
  6440.000000   2626785   2626158   2625522   2624836   2624077  
  6430.000000   2623236   2622333   2621400   2620491   2619654  
  6420.000000   2618933   2618342   2617869   2617477   2617122  
  6410.000000   2616768   2616405   2616045   2615721   2615462  
  6400.000000   2615282   2615168   2615088   2615001   2614878  
  6390.000000   2614704   2614484   2614228   2613948   2613641  
  6380.000000   2613299   2612914   2612490   2612049   2611625  
  6370.000000   2611259   2610977   2610788   2610673   2610601  
  6360.000000   2610530   2610425   2610259   2610015   2609679  
  6350.000000   2609245   2608711   2608088   2607398   2606674  
  6340.000000   2605951   2605258   2604602   2603979   2603369  
  6330.000000   2602761   2602146   2601534   2600937   2600368  
  6320.000000   2599818   2599264   2598668   2597995   2597222  
  6310.000000   2596348   2595385   2594362   2593296   2592203  
  6300.000000   2591086   2589953   2588814   2587691   2586599  
  6290.000000   2585550   2584527   2583500   2582418   2581242  
  6280.000000   2579944   2578532   2577032   2575492   2573952  
  6270.000000   2572442   2570973   2569539   2568126   2566718  
  6260.000000   2565300   2563859   2562379   2560846   2559252  
  6250.000000   2557602   2555912   2554215   2552542   2550919  
  6240.000000   2549352   2547826   2546317   2544798   2543253  
  6230.000000   2541682   2540093   2538497   2536900   2535296  
  6220.000000   2533677   2532032   2530363   2528679   2526998  
  6210.000000   2525335   2523696   2522081   2520482   2518900  
  6200.000000   2517344   2515831   2514379   2512991   2511651  
  6190.000000   2510324   2508968   2507550   2506064   2504529  
  6180.000000   2502990   2501493   2500076   2498754   2497522  
  6170.000000   2496359   2495247   2494171   2493129   2492115  
  6160.000000   2491126   2490142   2489141   2488097   2486996  
  6150.000000   2485830   2484608   2483343   2482050   2480738  
  6140.000000   2479420   2478111   2476838   2475634   2474535  
  6130.000000   2473558   2472704   2471943   2471232   2470521  
  6120.000000   2469774   2468977   2468142   2467295   2466472  
  6110.000000   2465697   2464985   2464331   2463728   2463157  
  6100.000000   2462607   2462063   2461525   2460992   2460479  
  6090.000000   2460001   2459588   2459260   2459038   2458919  
  6080.000000   2458894   2458932   2459010   2459102   2459206  
  6070.000000   2459325   2459479   2459678   2459936   2460246  
  6060.000000   2460613   2461032   2461522   2462094   2462776  
  6050.000000   2463576   2464498   2465519   2466620   2467772  
  6040.000000   2468967   2470201   2471495   2472860   2474318  
  6030.000000   2475869   2477515   2479240   2481036   2482881  
  6020.000000   2484764   2486657   2488542   2490391   2492197  
  6010.000000   2493956   2495690   2497424   2499193   2501011  
  6000.000000   2502885   2504796   2506727   2508654   2510577  
  5990.000000   2512502   2514457   2516459   2518526   2520658  
  5980.000000   2522857   2525115   2527447   2529863   2532392  
  5970.000000   2535044   2537826   2540716   2543693   2546718  
  5960.000000   2549778   2552856   2555961   2559090   2562252  
  5950.000000   2565431   2568623   2571816   2575020   2578254  
  5940.000000   2581556   2584962   2588497   2592170   2595964  
  5930.000000   2599850   2603784   2607726   2611634   2615474  
  5920.000000   2619210   2622812   2626252   2629513   2632590  
  5910.000000   2635491   2638232   2640838   2643331   2645744  
  5900.000000   2648110   2650481   2652909   2655456   2658161  
  5890.000000   2661046   2664085   2667231   2670403   2673532  
  5880.000000   2676553   2679435   2682163   2684741   2687175  
  5870.000000   2689469   2691629   2693661   2695587   2697439  
  5860.000000   2699257   2701074   2702913   2704783   2706687  
  5850.000000   2708632   2710636   2712732   2714948   2717305  
  5840.000000   2719792   2722371   2724983   2727569   2730088  
  5830.000000   2732525   2734897   2737227   2739544   2741855  
  5820.000000   2744156   2746429   2748666   2750867   2753049  
  5810.000000   2755238   2757449   2759696   2761964   2764252  
  5800.000000   2766534   2768821   2771102   2773398   2775685  
  5790.000000   2777957   2780153   2782224   2784078   2785643  
  5780.000000   2786814   2787512   2787644   2787167   2786061  
  5770.000000   2784390   2782259   2779848   2777330   2774882  
  5760.000000   2772602   2770550   2768698   2767011   2765432  
  5750.000000   2763941   2762530   2761221   2760024   2758942  
  5740.000000   2757959   2757042   2756171   2755322   2754502  
  5730.000000   2753709   2752952   2752219   2751503   2750786  
  5720.000000   2750067   2749350   2748656   2747995   2747377  
  5710.000000   2746785   2746205   2745618   2745029   2744459  
  5700.000000   2743942   2743511   2743177   2742927   2742725  
  5690.000000   2742538   2742341   2742144   2741968   2741851  
  5680.000000   2741801   2741805   2741802   2741720   2741471  
  5670.000000   2740995   2740250   2739229   2737933   2736381  
  5660.000000   2734590   2732596   2730441   2728196   2725935  
  5650.000000   2723735   2721644   2719684   2717835   2716066  
  5640.000000   2714336   2712625   2710935   2709289   2707718  
  5630.000000   2706247   2704889   2703637   2702480   2701393  
  5620.000000   2700358   2699352   2698359   2697357   2696338  
  5610.000000   2695299   2694259   2693244   2692290   2691420  
  5600.000000   2690635   2689914   2689215   2688492   2687715  
  5590.000000   2686875   2685985   2685073   2684165   2683275  
  5580.000000   2682401   2681530   2680648   2679747   2678827  
  5570.000000   2677893   2676946   2675983   2674990   2673959  
  5560.000000   2672889   2671790   2670679   2669576   2668489  
  5550.000000   2667416   2666344   2665259   2664160   2663058  
  5540.000000   2661973   2660926   2659924   2658958   2658005  
  5530.000000   2657043   2656058   2655053   2654046   2653060  
  5520.000000   2652105   2651177   2650254   2649307   2648314  
  5510.000000   2647269   2646180   2645066   2643940   2642811  
  5500.000000   2641675   2640525   2639355   2638169   2636969  
  5490.000000   2635762   2634535   2633268   2631929   2630502  
  5480.000000   2628980   2627383   2625746   2624108   2622493  
  5470.000000   2620907   2619330   2617738   2616106   2614429  
  5460.000000   2612707   2610951   2609162   2607335   2605458  
  5450.000000   2603525   2601543   2599539   2597548   2595602  
  5440.000000   2593713   2591873   2590059   2588248   2586433  
  5430.000000   2584626   2582856   2581140   2579492   2577895  
  5420.000000   2576336   2574802   2573317   2571917   2570667  
  5410.000000   2569601   2568736   2568028   2567431   2566883  
  5400.000000   2566373   2565909   2565557   2565366   2565391  
  5390.000000   2565617   2566018   2566523   2567100   2567722  
  5380.000000   2568434   2569273   2570311   2571558   2573026  
  5370.000000   2574658   2576430   2578277   2580204   2582185  
  5360.000000   2584267   2586444   2588783   2591293   2594068  
  5350.000000   2597142   2600628   2604547   2608979   2613880  
  5340.000000   2619269   2625058   2631267   2637833   2644814  
  5330.000000   2652165   2659952   2668117   2676712   2685685  
  5320.000000   2695130   2705042   2715570   2726724   2738640  
  5310.000000   2751271   2764682   2778768   2793571   2809011  
  5300.000000   2825189   2842098   2859895   2878601   2898357  
  5290.000000   2919124   2940944   2963669   2987228   3011412  
  5280.000000   3036152   3061323   3086984   3113155   3139988  
  5270.000000   3167527   3195811   3224715   3254061   3283597  
  5260.000000   3313116   3342498   3371725   3400873   3430001  
  5250.000000   3459143   3488174   3516934   3545128   3572579  
  5240.000000   3599092   3624704   3649432   3673479   3696911  
  5230.000000   3719887   3742342   3764275   3785484   3805909  
  5220.000000   3825371   3843917   3861510   3878333   3894432  
  5210.000000   3909999   3925008   3939517   3953357   3966489  
  5200.000000   3978726   3990103   4000556   4010238   4019158  
  5190.000000   4027463   4035107   4042153   4048493   4054173  
  5180.000000   4059120   4063432   4067086   4070191   4072705  
  5170.000000   4074691   4076078   4076926   4077192   4076971  
  5160.000000   4076256   4075140   4073589   4071649   4069258  
  5150.000000   4066455   4063204   4059577   4055574   4051272  
  5140.000000   4046665   4041806   4036680   4031341   4025794  
  5130.000000   4020109   4014299   4008409   4002418   3996328  
  5120.000000   3990097   3983729   3977218   3970605   3963922  
  5110.000000   3957215   3950503   3943805   3937113   3930436  
  5100.000000   3923777   3917162   3910612   3904156   3897802  
  5090.000000   3891555   3885400   3879330   3873328   3867388  
  5080.000000   3861494   3855631   3849766   3843868   3837904  
  5070.000000   3831857   3825724   3819524   3813280   3807018  
  5060.000000   3800743   3794453   3788123   3781729   3775240  
  5050.000000   3768647   3761937   3755120   3748203   3741207  
  5040.000000   3734151   3727067   3719983   3712934   3705946  
  5030.000000   3699035   3692202   3685435   3678715   3672024  
  5020.000000   3665358   3658717   3652124   3645596   3639165  
  5010.000000   3632841   3626650   3620587   3614675   3608909  
  5000.000000   3603317   3597892   3592665   3587625   3582797  
  4990.000000   3578164   3573757   3569563   3565623   3561929  
  4980.000000   3558527   3555405   3552603   3550096   3547917  
  4970.000000   3546029   3544460   3543168   3542184   3541468  
  4960.000000   3541063   3540948   3541186   3541774   3542784  
  4950.000000   3544208   3546097   3548410   3551164   3554288  
  4940.000000   3557784   3561583   3565703   3570097   3574809  
  4930.000000   3579813   3585163   3590840   3596898   3603310  
  4920.000000   3610113   3617267   3624785   3632612   3640748  
  4910.000000   3649146   3657818   3666737   3675923   3685357  
  4900.000000   3695038   3704925   3714983   3725155   3735390  
  4890.000000   3745643   3755871   3766048   3776130   3786094  
  4880.000000   3795881   3805463   3814771   3823777   3832408  
  4870.000000   3840645   3848415   3855708   3862468   3868712  
  4860.000000   3874415   3879628   3884349   3888641   3892498  
  4850.000000   3895975   3899062   3901816   3904243   3906418  
  4840.000000   3908364   3910156   3911810   3913374   3914846  
  4830.000000   3916258   3917610   3918938   3920253   3921589  
  4820.000000   3922954   3924359   3925798   3927267   3928759  
  4810.000000   3930273   3931812   3933379   3934974   3936591  
  4800.000000   3938226   3939871   3941534   3943225   3944967  
  4790.000000   3946777   3948668   3950638   3952674   3954757  
  4780.000000   3956865   3958984   3961101   3963213   3965312  
  4770.000000   3967388   3969424   3971409   3973327   3975181  
  4760.000000   3976971   3978711   3980402   3982049   3983634  
  4750.000000   3985143   3986548   3987835   3988987   3990006  
  4740.000000   3990890   3991655   3992310   3992875   3993364  
  4730.000000   3993797   3994187   3994544   3994868   3995156  
  4720.000000   3995400   3995602   3995771   3995929   3996110  
  4710.000000   3996346   3996667   3997083   3997599   3998200  
  4700.000000   3998882   3999638   4000483   4001432   4002512  
  4690.000000   4003740   4005126   4006657   4008317   4010068  
  4680.000000   4011877   4013695   4015491   4017216   4018850  
  4670.000000   4020364   4021765   4023066   4024316   4025560  
  4660.000000   4026864   4028274   4029832   4031555   4033451  
  4650.000000   4035514   4037741   4040125   4042665   4045355  
  4640.000000   4048187   4051144   4054202   4057332   4060497  
  4630.000000   4063665   4066794   4069852   4072793   4075586  
  4620.000000   4078187   4080571   4082704   4084577   4086172  
  4610.000000   4087497   4088548   4089359   4089946   4090368  
  4600.000000   4090659   4090891   4091093   4091319   4091564  
  4590.000000   4091835   4092082   4092270   4092324   4092199  
  4580.000000   4091829   4091192   4090260   4089053   4087590  
  4570.000000   4085928   4084112   4082207   4080246   4078266  
  4560.000000   4076265   4074247   4072189   4070086   4067923  
  4550.000000   4065710   4063448   4061154   4058832   4056487  
  4540.000000   4054118   4051728   4049322   4046910   4044513  
  4530.000000   4042145   4039826   4037558   4035357   4033210  
  4520.000000   4031139   4029134   4027230   4025420   4023752  
  4510.000000   4022219   4020880   4019736   4018874   4018314  
  4500.000000   4018170   4018470   4019327   4020744   4022809  
  4490.000000   4025493   4028868   4032895   4037646   4043083  
  4480.000000   4049274   4056168   4063814   4072139   4081172  
  4470.000000   4090829   4101130   4111989   4123419   4135330  
  4460.000000   4147723   4160504   4173663   4187108   4200824  
  4450.000000   4214728   4228804   4242992   4257287   4271660  
  4440.000000   4286118   4300656   4315272   4329956   4344673  
  4430.000000   4359395   4374053   4388618   4403012   4417219  
  4420.000000   4431162   4444832   4458136   4471051   4483459  
  4410.000000   4495321   4506509   4516992   4526668   4535543  
  4400.000000   4543569   4550814   4557291   4563121   4568366  
  4390.000000   4573170   4577609   4581817   4585846   4589787  
  4380.000000   4593652   4597483   4601271   4605043   4608806  
  4370.000000   4612609   4616501   4620551   4624823   4629376  
  4360.000000   4634249   4639470   4645032   4650931   4657105  
  4350.000000   4663527   4670082   4676733   4683355   4689933  
  4340.000000   4696378   4702695   4708775   4714520   4719653  
  4330.000000   4723847   4726629   4727567   4726282   4722641  
  4320.000000   4716755   4709062   4700189   4690909   4681915  
  4310.000000   4673793   4666857   4661234   4656825   4653463  
  4300.000000   4650920   4649019   4647626   4646657   4646079  
  4290.000000   4645848   4645965   4646386   4647121   4648133  
  4280.000000   4649427   4650966   4652725   4654664   4656736  
  4270.000000   4658912   4661145   4663394   4665551   4667465  
  4260.000000   4668890   4669551   4669148   4667469   4664408  
  4250.000000   4660051   4654625   4648508   4642096   4635796  
  4240.000000   4629885   4624553   4619822   4615647   4611893  
  4230.000000   4608429   4605118   4601861   4598592   4595265  
  4220.000000   4591890   4588472   4585092   4581808   4578751  
  4210.000000   4576002   4573682   4571827   4570482   4569603  
  4200.000000   4569154   4569036   4569188   4569515   4569986  
  4190.000000   4570545   4571211   4571964   4572852   4573863  
  4180.000000   4575042   4576362   4577856   4579487   4581294  
  4170.000000   4583270   4585487   4587972   4590824   4594070  
  4160.000000   4597785   4601954   4606605   4611683   4617199  
  4150.000000   4623093   4629392   4636053   4643124   4650569  
  4140.000000   4658446   4666722   4675457   4684617   4694258  
  4130.000000   4704337   4714895   4725878   4737317   4749163  
  4120.000000   4761462   4774193   4787421   4801141   4815414  
  4110.000000   4830223   4845592   4861471   4877839   4894609  
  4100.000000   4911724   4929076   4946598   4964196   4981826  
  4090.000000   4999447   5017052   5034650   5052255   5069901  
  4080.000000   5087592   5105354   5123157   5140998   5158792  
  4070.000000   5176492   5193963   5211135   5227869   5244135  
  4060.000000   5259848   5275043   5289678   5303822   5317427  
  4050.000000   5330558   5343155   5355286   5366885   5378020  
  4040.000000   5388597   5398651   5408052   5416819   5424830  
  4030.000000   5432139   5438666   5444489   5449540   5453863  
  4020.000000   5457348   5460039   5461900   5463019   5463367  
  4010.000000   5463101   5462306   5461019   5459035   5456422  
  4000.000000   5453488  
##END= 
