##TITLE= Sample 010 By ssteindl date Montag, November 26 2018
##JCAMP-DX= 4.24
##DATA TYPE= INFRARED SPECTRUM
##ORIGIN= Exported PE Spectrum Data File
##OWNER= Sandra Steindl
##DATE= 18/11/26
##TIME= 12:12:51.00
##SPECTROMETER/DATA SYSTEM= PERKIN-ELMER Frontier FT-IR/NIR IR
##INSTRUMENT PARAMETERS=
  APODIZATION=stark
  DETECTOR=INGAAS
##RESOLUTION= 16.000000
##DELTAX= -2.000000
##XUNITS= 1/CM
##YUNITS= A
##XFACTOR= 1.00
##YFACTOR= 0.00000011920928955078
##FIRSTX= 10000.00
##LASTX= 4000.00
##NPOINTS= 3001
##FIRSTY= 0.300126
##MAXY= 0.677829
##MINY= 0.238482
##XYDATA= (X++(Y..Y))
 10000.000000   2517639   2518024   2517927   2516460   2513141  
  9990.000000   2508252   2502789   2498153   2495688   2496112  
  9980.000000   2499067   2503217   2506700   2507896   2506061  
  9970.000000   2501659   2496164   2491436   2488961   2489257  
  9960.000000   2491736   2494997   2497448   2497916   2496042  
  9950.000000   2492292   2487657   2483217   2479768   2477679  
  9940.000000   2476932   2477267   2478321   2479651   2480760  
  9930.000000   2481097   2480187   2477840   2474302   2470304  
  9920.000000   2466853   2464883   2464889   2466686   2469479  
  9910.000000   2472153   2473701   2473622   2472030   2469560  
  9900.000000   2467020   2465034   2463870   2463382   2463242  
  9890.000000   2463051   2462542   2461520   2459882   2457548  
  9880.000000   2454531   2451050   2447570   2444848   2443663  
  9870.000000   2444600   2447730   2452511   2457972   2462983  
  9860.000000   2466729   2468857   2469534   2469146   2468009  
  9850.000000   2466160   2463410   2459640   2455141   2450805  
  9840.000000   2447948   2447880   2451250   2457712   2465789  
  9830.000000   2473424   2478532   2479822   2477109   2471352  
  9820.000000   2464229   2457470   2452371   2449399   2448329  
  9810.000000   2448397   2448688   2448330   2446632   2443207  
  9800.000000   2437972   2431380   2424355   2418321   2414816  
  9790.000000   2415042   2419390   2427084   2436375   2444886  
  9780.000000   2450435   2451619   2448288   2441502   2433132  
  9770.000000   2425226   2419413   2416551   2416730   2419472  
  9760.000000   2424031   2429572   2435219   2440092   2443280  
  9750.000000   2444086   2442149   2437734   2431707   2425377  
  9740.000000   2420147   2417033   2416438   2417977   2420747  
  9730.000000   2423588   2425484   2425797   2424316   2421228  
  9720.000000   2416924   2411977   2407015   2402809   2400149  
  9710.000000   2399771   2402099   2407028   2413824   2421191  
  9700.000000   2427599   2431628   2432387   2429628   2423827  
  9690.000000   2415892   2407033   2398429   2391149   2385999  
  9680.000000   2383439   2383585   2386094   2390371   2395559  
  9670.000000   2400887   2405713   2409737   2412920   2415379  
  9660.000000   2417231   2418358   2418499   2417234   2414341  
  9650.000000   2409879   2404367   2398634   2393569   2389877  
  9640.000000   2387780   2387109   2387321   2387887   2388374  
  9630.000000   2388656   2388773   2388852   2388929   2388895  
  9620.000000   2388537   2387603   2385951   2383539   2380484  
  9610.000000   2376940   2373098   2369133   2365239   2361661  
  9600.000000   2358686   2356598   2355557   2355508   2356149  
  9590.000000   2357002   2357595   2357621   2357042   2356062  
  9580.000000   2355000   2354146   2353647   2353493   2353586  
  9570.000000   2353822   2354200   2354778   2355633   2356679  
  9560.000000   2357637   2358031   2357355   2355269   2351761  
  9550.000000   2347229   2342386   2338111   2335176   2334085  
  9540.000000   2334917   2337372   2340839   2344553   2347745  
  9530.000000   2349752   2350141   2348751   2345773   2341681  
  9520.000000   2337197   2333081   2329996   2328328   2328112  
  9510.000000   2329092   2330778   2332698   2334442   2335844  
  9500.000000   2336893   2337720   2338452   2339112   2339576  
  9490.000000   2339551   2338696   2336702   2333444   2329042  
  9480.000000   2323876   2318537   2313673   2309887   2307521  
  9470.000000   2306621   2306854   2307651   2308338   2308344  
  9460.000000   2307353   2305325   2302515   2299279   2296049  
  9450.000000   2293101   2290643   2288690   2287210   2286094  
  9440.000000   2285256   2284658   2284350   2284516   2285412  
  9430.000000   2287369   2290600   2295160   2300752   2306767  
  9420.000000   2312323   2316504   2318632   2318478   2316364  
  9410.000000   2312981   2309160   2305498   2302194   2298987  
  9400.000000   2295355   2290802   2285166   2278793   2272475  
  9390.000000   2267215   2263827   2262694   2263630   2266047  
  9380.000000   2269164   2272284   2274957   2277031   2278631  
  9370.000000   2280011   2281473   2283202   2285290   2287666  
  9360.000000   2290164   2292470   2294169   2294800   2293989  
  9350.000000   2291672   2288141   2284103   2280405   2277844  
  9340.000000   2276828   2277275   2278604   2279917   2280302  
  9330.000000   2279112   2276166   2271750   2266457   2261005  
  9320.000000   2256011   2251958   2249145   2247769   2247927  
  9310.000000   2249587   2252550   2256390   2260480   2264040  
  9300.000000   2266291   2266621   2264811   2261078   2256127  
  9290.000000   2250886   2246366   2243361   2242310   2243182  
  9280.000000   2245459   2248331   2250889   2252490   2252878  
  9270.000000   2252272   2251202   2250314   2250100   2250664  
  9260.000000   2251675   2252471   2252384   2250987   2248275  
  9250.000000   2244673   2240862   2237565   2235254   2234062  
  9240.000000   2233769   2233972   2234254   2234310   2233975  
  9230.000000   2233185   2231916   2230176   2228018   2225601  
  9220.000000   2223226   2221298   2220224   2220198   2221103  
  9210.000000   2222491   2223763   2224355   2223958   2222603  
  9200.000000   2220645   2218583   2216857   2215695   2215093  
  9190.000000   2214911   2214994   2215295   2215854   2216749  
  9180.000000   2217956   2219312   2220514   2221238   2221284  
  9170.000000   2220624   2219452   2218011   2216528   2215031  
  9160.000000   2213402   2211450   2209059   2206338   2203588  
  9150.000000   2201301   2199961   2199956   2201415   2204192  
  9140.000000   2207871   2211861   2215487   2218056   2218985  
  9130.000000   2217927   2214947   2210507   2205448   2200787  
  9120.000000   2197500   2196179   2196831   2198883   2201401  
  9110.000000   2203430   2204261   2203714   2202091   2200060  
  9100.000000   2198281   2197234   2197071   2197658   2198707  
  9090.000000   2199890   2200976   2201772   2202109   2201739  
  9080.000000   2200405   2197917   2194303   2189850   2185083  
  9070.000000   2180654   2177168   2175016   2174271   2174773  
  9060.000000   2176233   2178377   2180948   2183733   2186489  
  9050.000000   2188898   2190579   2191185   2190588   2188918  
  9040.000000   2186619   2184241   2182340   2181208   2180843  
  9030.000000   2180956   2181144   2181060   2180516   2179563  
  9020.000000   2178404   2177339   2176623   2176471   2177017  
  9010.000000   2178340   2180426   2183149   2186231   2189239  
  9000.000000   2191657   2193025   2193119   2192024   2190118  
  8990.000000   2187940   2186002   2184599   2183719   2183105  
  8980.000000   2182398   2181349   2179918   2178314   2176870  
  8970.000000   2175902   2175535   2175683   2176066   2176360  
  8960.000000   2176296   2175777   2174884   2173832   2172883  
  8950.000000   2172256   2172074   2172332   2172912   2173571  
  8940.000000   2174000   2173862   2172909   2171034   2168358  
  8930.000000   2165223   2162133   2159607   2158021   2157498  
  8920.000000   2157907   2158920   2160162   2161333   2162297  
  8910.000000   2163065   2163713   2164302   2164810   2165172  
  8900.000000   2165331   2165333   2165358   2165673   2166528  
  8890.000000   2168006   2169941   2171921   2173395   2173849  
  8880.000000   2172974   2170758   2167511   2163764   2160142  
  8870.000000   2157193   2155261   2154465   2154664   2155580  
  8860.000000   2156806   2157997   2158895   2159448   2159749  
  8850.000000   2160009   2160430   2161068   2161794   2162237  
  8840.000000   2161973   2160590   2157935   2154138   2149656  
  8830.000000   2145122   2141169   2138275   2136647   2136275  
  8820.000000   2136989   2138582   2140856   2143645   2146763  
  8810.000000   2149943   2152817   2154971   2156095   2156082  
  8800.000000   2155148   2153726   2152401   2151652   2151745  
  8790.000000   2152622   2153950   2155259   2156096   2156215  
  8780.000000   2155610   2154532   2153349   2152445   2152092  
  8770.000000   2152404   2153327   2154650   2156085   2157309  
  8760.000000   2158068   2158222   2157795   2156973   2156068  
  8750.000000   2155428   2155339   2155931   2157142   2158733  
  8740.000000   2160373   2161751   2162663   2163095   2163177  
  8730.000000   2163156   2163266   2163679   2164439   2165474  
  8720.000000   2166628   2167699   2168498   2168869   2168718  
  8710.000000   2168013   2166793   2165156   2163254   2161284  
  8700.000000   2159465   2158006   2157073   2156767   2157104  
  8690.000000   2158020   2159370   2160951   2162548   2163963  
  8680.000000   2165075   2165844   2166332   2166663   2166989  
  8670.000000   2167434   2168065   2168883   2169869   2170991  
  8660.000000   2172255   2173663   2175196   2176744   2178103  
  8650.000000   2179006   2179212   2178611   2177321   2175707  
  8640.000000   2174315   2173715   2174295   2176152   2179030  
  8630.000000   2182422   2185711   2188377   2190131   2190968  
  8620.000000   2191109   2190876   2190557   2190318   2190205  
  8610.000000   2190166   2190149   2190124   2190116   2190172  
  8600.000000   2190315   2190529   2190744   2190897   2190946  
  8590.000000   2190925   2190924   2191064   2191451   2192128  
  8580.000000   2193067   2194169   2195309   2196368   2197275  
  8570.000000   2197991   2198523   2198894   2199146   2199326  
  8560.000000   2199479   2199656   2199897   2200244   2200712  
  8550.000000   2201322   2202073   2202964   2203962   2205011  
  8540.000000   2206022   2206863   2207391   2207466   2207031  
  8530.000000   2206109   2204835   2203410   2202072   2201025  
  8520.000000   2200389   2200208   2200444   2201049   2201964  
  8510.000000   2203178   2204704   2206553   2208679   2210941  
  8500.000000   2213114   2214905   2216044   2216341   2215774  
  8490.000000   2214502   2212857   2211269   2210160   2209851  
  8480.000000   2210456   2211880   2213826   2215894   2217684  
  8470.000000   2218888   2219363   2219136   2218373   2217292  
  8460.000000   2216108   2214998   2214112   2213583   2213532  
  8450.000000   2214089   2215342   2217307   2219849   2222706  
  8440.000000   2225517   2227911   2229584   2230371   2230293  
  8430.000000   2229509   2228264   2226810   2225372   2224128  
  8420.000000   2223205   2222699   2222644   2223034   2223750  
  8410.000000   2224612   2225362   2225781   2225743   2225282  
  8400.000000   2224580   2223890   2223454   2223374   2223589  
  8390.000000   2223881   2223987   2223711   2223012   2222037  
  8380.000000   2221062   2220396   2220260   2220725   2221695  
  8370.000000   2222958   2224260   2225384   2226200   2226662  
  8360.000000   2226798   2226681   2226410   2226107   2225889  
  8350.000000   2225870   2226104   2226588   2227230   2227895  
  8340.000000   2228423   2228712   2228731   2228535   2228199  
  8330.000000   2227771   2227208   2226400   2225214   2223580  
  8320.000000   2221571   2219414   2217446   2215994   2215234  
  8310.000000   2215123   2215387   2215649   2215546   2214897  
  8300.000000   2213759   2212418   2211267   2210640   2210680  
  8290.000000   2211276   2212123   2212826   2213033   2212553  
  8280.000000   2211402   2209783   2208003   2206369   2205111  
  8270.000000   2204335   2204028   2204061   2204235   2204314  
  8260.000000   2204081   2203393   2202204   2200598   2198772  
  8250.000000   2197009   2195596   2194747   2194523   2194822  
  8240.000000   2195395   2195948   2196210   2196032   2195410  
  8230.000000   2194480   2193446   2192491   2191699   2191026  
  8220.000000   2190318   2189380   2188046   2186259   2184090  
  8210.000000   2181749   2179505   2177618   2176236   2175363  
  8200.000000   2174843   2174417   2173795   2172751   2171192  
  8190.000000   2169192   2166962   2164793   2162950   2161603  
  8180.000000   2160777   2160356   2160140   2159900   2159454  
  8170.000000   2158699   2157621   2156266   2154701   2152995  
  8160.000000   2151201   2149369   2147568   2145885   2144428  
  8150.000000   2143286   2142496   2142014   2141708   2141387  
  8140.000000   2140852   2139962   2138672   2137050   2135258  
  8130.000000   2133492   2131941   2130714   2129843   2129265  
  8120.000000   2128863   2128494   2128035   2127402   2126578  
  8110.000000   2125600   2124557   2123561   2122724   2122129  
  8100.000000   2121808   2121730   2121807   2121916   2121929  
  8090.000000   2121760   2121378   2120824   2120176   2119522  
  8080.000000   2118908   2118317   2117670   2116855   2115779  
  8070.000000   2114411   2112812   2111122   2109522   2108173  
  8060.000000   2107157   2106454   2105942   2105444   2104796  
  8050.000000   2103897   2102752   2101456   2100158   2099005  
  8040.000000   2098092   2097439   2097005   2096706   2096466  
  8030.000000   2096228   2095968   2095674   2095325   2094881  
  8020.000000   2094281   2093481   2092473   2091319   2090138  
  8010.000000   2089076   2088260   2087742   2087481   2087350  
  8000.000000   2087173   2086793   2086114   2085134   2083932  
  7990.000000   2082644   2081405   2080319   2079433   2078738  
  7980.000000   2078186   2077709   2077235   2076703   2076065  
  7970.000000   2075303   2074427   2073490   2072579   2071792  
  7960.000000   2071219   2070890   2070773   2070744   2070646  
  7950.000000   2070307   2069622   2068567   2067229   2065770  
  7940.000000   2064387   2063268   2062542   2062278   2062473  
  7930.000000   2063083   2064021   2065176   2066409   2067560  
  7920.000000   2068468   2068983   2069023   2068565   2067686  
  7910.000000   2066511   2065196   2063869   2062608   2061440  
  7900.000000   2060358   2059378   2058541   2057952   2057716  
  7890.000000   2057924   2058574   2059565   2060692   2061689  
  7880.000000   2062313   2062388   2061874   2060850   2059505  
  7870.000000   2058060   2056727   2055653   2054905   2054486  
  7860.000000   2054344   2054423   2054663   2055027   2055480  
  7850.000000   2055989   2056502   2056946   2057236   2057279  
  7840.000000   2057008   2056384   2055426   2054195   2052803  
  7830.000000   2051386   2050082   2049017   2048266   2047861  
  7820.000000   2047762   2047893   2048135   2048378   2048528  
  7810.000000   2048541   2048413   2048176   2047872   2047522  
  7800.000000   2047120   2046621   2045976   2045145   2044142  
  7790.000000   2043026   2041894   2040844   2039934   2039163  
  7780.000000   2038472   2037779   2037022   2036199   2035380  
  7770.000000   2034683   2034222   2034062   2034174   2034453  
  7760.000000   2034752   2034941   2034954   2034806   2034570  
  7750.000000   2034321   2034094   2033849   2033493   2032921  
  7740.000000   2032079   2030994   2029776   2028578   2027530  
  7730.000000   2026692   2026032   2025457   2024862   2024199  
  7720.000000   2023495   2022850   2022381   2022165   2022189  
  7710.000000   2022351   2022488   2022441   2022113   2021499  
  7700.000000   2020685   2019809   2019006   2018372   2017933  
  7690.000000   2017654   2017460   2017262   2016981   2016562  
  7680.000000   2015977   2015227   2014339   2013372   2012400  
  7670.000000   2011513   2010789   2010279   2009995   2009911  
  7660.000000   2009970   2010104   2010258   2010384   2010453  
  7650.000000   2010433   2010291   2009983   2009479   2008768  
  7640.000000   2007884   2006908   2005957   2005161   2004627  
  7630.000000   2004413   2004511   2004849   2005307   2005747  
  7620.000000   2006043   2006105   2005899   2005442   2004805  
  7610.000000   2004090   2003411   2002870   2002537   2002439  
  7600.000000   2002561   2002854   2003250   2003670   2004036  
  7590.000000   2004275   2004325   2004143   2003725   2003104  
  7580.000000   2002363   2001618   2000997   2000614   2000534  
  7570.000000   2000762   2001236   2001859   2002518   2003120  
  7560.000000   2003603   2003941   2004129   2004174   2004094  
  7550.000000   2003905   2003648   2003358   2003086   2002862  
  7540.000000   2002695   2002559   2002419   2002241   2002030  
  7530.000000   2001838   2001762   2001900   2002322   2003027  
  7520.000000   2003944   2004943   2005900   2006728   2007426  
  7510.000000   2008063   2008756   2009605   2010669   2011928  
  7500.000000   2013304   2014678   2015942   2017012   2017860  
  7490.000000   2018490   2018943   2019276   2019561   2019879  
  7480.000000   2020316   2020944   2021810   2022917   2024222  
  7470.000000   2025647   2027103   2028520   2029867   2031154  
  7460.000000   2032423   2033714   2035058   2036453   2037888  
  7450.000000   2039336   2040784   2042224   2043657   2045072  
  7440.000000   2046453   2047772   2049013   2050183   2051315  
  7430.000000   2052463   2053684   2055006   2056423   2057893  
  7420.000000   2059363   2060789   2062161   2063498   2064835  
  7410.000000   2066199   2067593   2068997   2070386   2071754  
  7400.000000   2073133   2074583   2076170   2077928   2079833  
  7390.000000   2081802   2083716   2085464   2086980   2088269  
  7380.000000   2089394   2090450   2091520   2092651   2093849  
  7370.000000   2095089   2096346   2097603   2098854   2100091  
  7360.000000   2101289   2102411   2103422   2104320   2105160  
  7350.000000   2106061   2107175   2108633   2110481   2112652  
  7340.000000   2114981   2117251   2119270   2120929   2122234  
  7330.000000   2123280   2124208   2125143   2126157   2127262  
  7320.000000   2128420   2129591   2130749   2131912   2133112  
  7310.000000   2134381   2135720   2137092   2138429   2139659  
  7300.000000   2140726   2141614   2142344   2142961   2143519  
  7290.000000   2144069   2144646   2145277   2145977   2146764  
  7280.000000   2147643   2148618   2149671   2150775   2151886  
  7270.000000   2152955   2153935   2154787   2155497   2156062  
  7260.000000   2156515   2156895   2157273   2157715   2158291  
  7250.000000   2159043   2159996   2161133   2162424   2163822  
  7240.000000   2165294   2166818   2168404   2170065   2171839  
  7230.000000   2173742   2175799   2178004   2180360   2182835  
  7220.000000   2185403   2188001   2190576   2193059   2195418  
  7210.000000   2197640   2199776   2201900   2204119   2206511  
  7200.000000   2209127   2211955   2214962   2218090   2221315  
  7190.000000   2224630   2228070   2231656   2235395   2239232  
  7180.000000   2243079   2246817   2250367   2253695   2256857  
  7170.000000   2259950   2263118   2266465   2270065   2273909  
  7160.000000   2277954   2282119   2286351   2290605   2294884  
  7150.000000   2299187   2303538   2307933   2312387   2316895  
  7140.000000   2321485   2326173   2331005   2335997   2341176  
  7130.000000   2346528   2352056   2357734   2363566   2369532  
  7120.000000   2375637   2381844   2388125   2394418   2400687  
  7110.000000   2406895   2413064   2419238   2425507   2431953  
  7100.000000   2438651   2445620   2452841   2460232   2467691  
  7090.000000   2475099   2482367   2489428   2496274   2502919  
  7080.000000   2509426   2515857   2522286   2528765   2535336  
  7070.000000   2542022   2548841   2555801   2562907   2570154  
  7060.000000   2577518   2584953   2592393   2599758   2606985  
  7050.000000   2614033   2620907   2627649   2634324   2640998  
  7040.000000   2647711   2654472   2661255   2668022   2674734  
  7030.000000   2681375   2687944   2694459   2700936   2707392  
  7020.000000   2713821   2720218   2726567   2732864   2739099  
  7010.000000   2745278   2751391   2757440   2763407   2769292  
  7000.000000   2775077   2780763   2786328   2791762   2797030  
  6990.000000   2802122   2807024   2811765   2816380   2820935  
  6980.000000   2825471   2830019   2834550   2839020   2843349  
  6970.000000   2847490   2851408   2855125   2858670   2862104  
  6960.000000   2865457   2868757   2871999   2875193   2878333  
  6950.000000   2881443   2884529   2887604   2890639   2893602  
  6940.000000   2896434   2899098   2901562   2903839   2905944  
  6930.000000   2907912   2909755   2911489   2913113   2914656  
  6920.000000   2916148   2917653   2919222   2920892   2922648  
  6910.000000   2924443   2926193   2927827   2929292   2930591  
  6900.000000   2931755   2932851   2933937   2935066   2936260  
  6890.000000   2937534   2938885   2940313   2941800   2943317  
  6880.000000   2944811   2946223   2947492   2948586   2949504  
  6870.000000   2950285   2950984   2951655   2952326   2952997  
  6860.000000   2953649   2954269   2954859   2955453   2956092  
  6850.000000   2956819   2957638   2958529   2959435   2960304  
  6840.000000   2961095   2961806   2962457   2963079   2963686  
  6830.000000   2964266   2964778   2965174   2965411   2965477  
  6820.000000   2965384   2965173   2964888   2964583   2964294  
  6810.000000   2964064   2963925   2963914   2964043   2964310  
  6800.000000   2964669   2965054   2965379   2965573   2965590  
  6790.000000   2965428   2965114   2964694   2964211   2963697  
  6780.000000   2963168   2962635   2962108   2961605   2961140  
  6770.000000   2960722   2960343   2959985   2959623   2959241  
  6760.000000   2958836   2958421   2958006   2957595   2957176  
  6750.000000   2956732   2956256   2955768   2955315   2954958  
  6740.000000   2954748   2954694   2954749   2954823   2954809  
  6730.000000   2954625   2954243   2953703   2953084   2952477  
  6720.000000   2951940   2951486   2951083   2950680   2950233  
  6710.000000   2949735   2949201   2948670   2948164   2947696  
  6700.000000   2947247   2946797   2946322   2945818   2945281  
  6690.000000   2944709   2944079   2943357   2942504   2941503  
  6680.000000   2940368   2939153   2937927   2936755   2935658  
  6670.000000   2934624   2933594   2932515   2931345   2930092  
  6660.000000   2928793   2927506   2926268   2925091   2923943  
  6650.000000   2922777   2921543   2920215   2918786   2917271  
  6640.000000   2915684   2914036   2912326   2910562   2908756  
  6630.000000   2906946   2905168   2903461   2901835   2900278  
  6620.000000   2898750   2897213   2895638   2894021   2892373  
  6610.000000   2890713   2889045   2887357   2885623   2883827  
  6600.000000   2881970   2880083   2878214   2876410   2874688  
  6590.000000   2873034   2871402   2869738   2868001   2866181  
  6580.000000   2864299   2862392   2860501   2858649   2856844  
  6570.000000   2855080   2853352   2851661   2850010   2848396  
  6560.000000   2846806   2845215   2843595   2841936   2840256  
  6550.000000   2838600   2837025   2835572   2834246   2833004  
  6540.000000   2831774   2830479   2829075   2827564   2825999  
  6530.000000   2824452   2822990   2821642   2820397   2819208  
  6520.000000   2818029   2816819   2815572   2814301   2813029  
  6510.000000   2811770   2810530   2809300   2808076   2806867  
  6500.000000   2805696   2804594   2803586   2802679   2801856  
  6490.000000   2801084   2800321   2799531   2798690   2797781  
  6480.000000   2796795   2795720   2794546   2793272   2791904  
  6470.000000   2790468   2788994   2787518   2786063   2784644  
  6460.000000   2783266   2781935   2780660   2779463   2778359  
  6450.000000   2777354   2776431   2775552   2774671   2773750  
  6440.000000   2772779   2771774   2770780   2769838   2768979  
  6430.000000   2768200   2767482   2766786   2766092   2765394  
  6420.000000   2764712   2764072   2763497   2762991   2762542  
  6410.000000   2762132   2761752   2761403   2761106   2760875  
  6400.000000   2760716   2760607   2760506   2760366   2760151  
  6390.000000   2759852   2759484   2759086   2758696   2758343  
  6380.000000   2758040   2757786   2757573   2757392   2757228  
  6370.000000   2757063   2756860   2756579   2756175   2755625  
  6360.000000   2754939   2754168   2753384   2752663   2752046  
  6350.000000   2751532   2751071   2750593   2750027   2749339  
  6340.000000   2748534   2747657   2746764   2745906   2745103  
  6330.000000   2744352   2743625   2742897   2742144   2741361  
  6320.000000   2740544   2739697   2738810   2737872   2736868  
  6310.000000   2735794   2734652   2733459   2732228   2730975  
  6300.000000   2729702   2728412   2727104   2725791   2724483  
  6290.000000   2723199   2721942   2720708   2719467   2718187  
  6280.000000   2716829   2715376   2713824   2712193   2710514  
  6270.000000   2708821   2707138   2705479   2703838   2702208  
  6260.000000   2700569   2698909   2697212   2695477   2693703  
  6250.000000   2691903   2690088   2688274   2686470   2684675  
  6240.000000   2682880   2681068   2679224   2677342   2675428  
  6230.000000   2673497   2671568   2669654   2667760   2665879  
  6220.000000   2664004   2662133   2660274   2658450   2656683  
  6210.000000   2654993   2653385   2651846   2650354   2648883  
  6200.000000   2647417   2645948   2644476   2642999   2641511  
  6190.000000   2639994   2638435   2636825   2635176   2633514  
  6180.000000   2631883   2630317   2628841   2627451   2626126  
  6170.000000   2624830   2623531   2622209   2620863   2619506  
  6160.000000   2618160   2616842   2615569   2614344   2613164  
  6150.000000   2612019   2610893   2609766   2608617   2607426  
  6140.000000   2606185   2604900   2603592   2602290   2601025  
  6130.000000   2599812   2598653   2597528   2596414   2595288  
  6120.000000   2594148   2593007   2591894   2590840   2589869  
  6110.000000   2588986   2588186   2587446   2586751   2586082  
  6100.000000   2585437   2584810   2584206   2583623   2583066  
  6090.000000   2582539   2582058   2581634   2581293   2581042  
  6080.000000   2580894   2580837   2580869   2580970   2581135  
  6070.000000   2581349   2581609   2581895   2582195   2582484  
  6060.000000   2582757   2583011   2583278   2583590   2584005  
  6050.000000   2584555   2585273   2586152   2587180   2588323  
  6040.000000   2589556   2590850   2592197   2593580   2594998  
  6030.000000   2596438   2597905   2599399   2600946   2602567  
  6020.000000   2604294   2606136   2608090   2610120   2612182  
  6010.000000   2614217   2616188   2618070   2619871   2621607  
  6000.000000   2623315   2625018   2626747   2628513   2630336  
  5990.000000   2632224   2634193   2636247   2638395   2640628  
  5980.000000   2642945   2645329   2647781   2650288   2652856  
  5970.000000   2655469   2658126   2660802   2663495   2666194  
  5960.000000   2668920   2671693   2674556   2677535   2680656  
  5950.000000   2683912   2687294   2690769   2694318   2697921  
  5940.000000   2701575   2705277   2709028   2712816   2716625  
  5930.000000   2720429   2724204   2727927   2731587   2735174  
  5920.000000   2738683   2742103   2745424   2748633   2751724  
  5910.000000   2754696   2757559   2760329   2763025   2765674  
  5900.000000   2768297   2770927   2773587   2776312   2779115  
  5890.000000   2782015   2784998   2788049   2791131   2794210  
  5880.000000   2797247   2800212   2803073   2805804   2808377  
  5870.000000   2810773   2812982   2815016   2816906   2818703  
  5860.000000   2820461   2822231   2824046   2825923   2827864  
  5850.000000   2829868   2831934   2834070   2836279   2838560  
  5840.000000   2840899   2843270   2845646   2848005   2850345  
  5830.000000   2852678   2855031   2857421   2859862   2862341  
  5820.000000   2864841   2867340   2869830   2872315   2874810  
  5810.000000   2877329   2879866   2882409   2884918   2887373  
  5800.000000   2889746   2892057   2894316   2896568   2898814  
  5790.000000   2901060   2903242   2905305   2907140   2908665  
  5780.000000   2909772   2910395   2910462   2909955   2908869  
  5770.000000   2907273   2905254   2902962   2900535   2898123  
  5760.000000   2895817   2893687   2891736   2889962   2888335  
  5750.000000   2886845   2885476   2884224   2883073   2882002  
  5740.000000   2880989   2880010   2879065   2878158   2877314  
  5730.000000   2876541   2875845   2875200   2874575   2873929  
  5720.000000   2873244   2872514   2871761   2871007   2870279  
  5710.000000   2869584   2868925   2868292   2867693   2867139  
  5700.000000   2866657   2866270   2865989   2865810   2865705  
  5690.000000   2865651   2865618   2865602   2865601   2865625  
  5680.000000   2865665   2865703   2865694   2865589   2865332  
  5670.000000   2864885   2864213   2863303   2862143   2860736  
  5660.000000   2859088   2857236   2855228   2853144   2851059  
  5650.000000   2849053   2847166   2845415   2843778   2842223  
  5640.000000   2840708   2839208   2837704   2836193   2834670  
  5630.000000   2833132   2831580   2830020   2828476   2826978  
  5620.000000   2825566   2824260   2823066   2821958   2820898  
  5610.000000   2819838   2818754   2817638   2816513   2815410  
  5600.000000   2814360   2813381   2812473   2811620   2810807  
  5590.000000   2810017   2809239   2808465   2807685   2806886  
  5580.000000   2806054   2805184   2804277   2803346   2802405  
  5570.000000   2801465   2800520   2799556   2798552   2797494  
  5560.000000   2796384   2795240   2794084   2792937   2791800  
  5550.000000   2790663   2789501   2788302   2787067   2785823  
  5540.000000   2784603   2783438   2782337   2781283   2780240  
  5530.000000   2779177   2778074   2776940   2775801   2774687  
  5520.000000   2773615   2772577   2771543   2770478   2769354  
  5510.000000   2768167   2766930   2765673   2764415   2763169  
  5500.000000   2761928   2760684   2759428   2758168   2756911  
  5490.000000   2755669   2754430   2753168   2751839   2750409  
  5480.000000   2748857   2747196   2745457   2743688   2741920  
  5470.000000   2740172   2738435   2736692   2734926   2733139  
  5460.000000   2731335   2729528   2727716   2725886   2724013  
  5450.000000   2722073   2720062   2717997   2715917   2713866  
  5440.000000   2711875   2709953   2708092   2706275   2704497  
  5430.000000   2702759   2701079   2699459   2697893   2696345  
  5420.000000   2694791   2693207   2691620   2690084   2688695  
  5410.000000   2687521   2686611   2685937   2685446   2685046  
  5400.000000   2684687   2684333   2684016   2683773   2683668  
  5390.000000   2683717   2683934   2684285   2684767   2685363  
  5380.000000   2686116   2687051   2688222   2689622   2691253  
  5370.000000   2693048   2694978   2696978   2699062   2701211  
  5360.000000   2703490   2705908   2708547   2711417   2714603  
  5350.000000   2718113   2722028   2726338   2731101   2736272  
  5340.000000   2741888   2747894   2754349   2761221   2768587  
  5330.000000   2776406   2784732   2793487   2802705   2812312  
  5320.000000   2822396   2832948   2844126   2855954   2868593  
  5310.000000   2882017   2896320   2911404   2927319   2943962  
  5300.000000   2961410   2979609   2998691   3018648   3039628  
  5290.000000   3061611   3084677   3108715   3133685   3159389  
  5280.000000   3185752   3212632   3240072   3268086   3296829  
  5270.000000   3326354   3356711   3387771   3419330   3451098  
  5260.000000   3482821   3514339   3545608   3576703   3607696  
  5250.000000   3638651   3669469   3700017   3730006   3759265  
  5240.000000   3787578   3814976   3841446   3867177   3892205  
  5230.000000   3916679   3940508   3963698   3986044   4007513  
  5220.000000   4027941   4047408   4065886   4083570   4100490  
  5210.000000   4116824   4132510   4147586   4161861   4175304  
  5200.000000   4187742   4199250   4209798   4219577   4228615  
  5190.000000   4237068   4244876   4252090   4258581   4264387  
  5180.000000   4269430   4273820   4277539   4280704   4283265  
  5170.000000   4285274   4286640   4287407   4287523   4287091  
  5160.000000   4286114   4284708   4282856   4280620   4277939  
  5150.000000   4274851   4271310   4267381   4263053   4258403  
  5140.000000   4253416   4248144   4242563   4236725   4230629  
  5130.000000   4224345   4217892   4211329   4204650   4197880  
  5120.000000   4190993   4184008   4176925   4169784   4162605  
  5110.000000   4155424   4148240   4141060   4133866   4126658  
  5100.000000   4119439   4112234   4105067   4097966   4090939  
  5090.000000   4083990   4077105   4070275   4063487   4056742  
  5080.000000   4050035   4043366   4036718   4030079   4023425  
  5070.000000   4016748   4010037   4003299   3996535   3989753  
  5060.000000   3982942   3976096   3969194   3962227   3955182  
  5050.000000   3948060   3940855   3933571   3926201   3918750  
  5040.000000   3911223   3903642   3896035   3888441   3880891  
  5030.000000   3873407   3865995   3858645   3851347   3844090  
  5020.000000   3836882   3829730   3822664   3815696   3808850  
  5010.000000   3802121   3795520   3789035   3782690   3776486  
  5000.000000   3770468   3764646   3759063   3753717   3748637  
  4990.000000   3743802   3739236   3734917   3730873   3727080  
  4980.000000   3723568   3720304   3717319   3714584   3712146  
  4970.000000   3709989   3708176   3706695   3705601   3704864  
  4960.000000   3704519   3704525   3704916   3705658   3706802  
  4950.000000   3708322   3710269   3712603   3715354   3718464  
  4940.000000   3721959   3725785   3729980   3734508   3739414  
  4930.000000   3744656   3750267   3756196   3762469   3769041  
  4920.000000   3775949   3783172   3790753   3798673   3806962  
  4910.000000   3815588   3824555   3833819   3843367   3853148  
  4900.000000   3863139   3873284   3883550   3893889   3904269  
  4890.000000   3914659   3925027   3935350   3945585   3955698  
  4880.000000   3965623   3975323   3984729   3993816   4002525  
  4870.000000   4010849   4018729   4026166   4033104   4039557  
  4860.000000   4045488   4050942   4055915   4060474   4064628  
  4850.000000   4068445   4071928   4075135   4078065   4080776  
  4840.000000   4083273   4085615   4087812   4089915   4091928  
  4830.000000   4093888   4095793   4097668   4099507   4101322  
  4820.000000   4103101   4104848   4106551   4108216   4109843  
  4810.000000   4111446   4113037   4114634   4116246   4117884  
  4800.000000   4119554   4121259   4123003   4124788   4126612  
  4790.000000   4128471   4130356   4132257   4134166   4136083  
  4780.000000   4138013   4139965   4141944   4143950   4145963  
  4770.000000   4147957   4149892   4151742   4153485   4155124  
  4760.000000   4156668   4158148   4159580   4160989   4162371  
  4750.000000   4163729   4165043   4166302   4167481   4168569  
  4740.000000   4169541   4170392   4171105   4171685   4172135  
  4730.000000   4172475   4172716   4172875   4172953   4172950  
  4720.000000   4172855   4172670   4172400   4172072   4171725  
  4710.000000   4171402   4171149   4170993   4170952   4171026  
  4700.000000   4171213   4171504   4171904   4172418   4173064  
  4690.000000   4173851   4174792   4175883   4177115   4178462  
  4680.000000   4179895   4181366   4182835   4184247   4185566  
  4670.000000   4186753   4187802   4188712   4189520   4190261  
  4660.000000   4190995   4191769   4192636   4193632   4194793  
  4650.000000   4196141   4197695   4199460   4201436   4203607  
  4640.000000   4205946   4208416   4210973   4213577   4216183  
  4630.000000   4218756   4221260   4223664   4225933   4228041  
  4620.000000   4229958   4231669   4233154   4234416   4235447  
  4610.000000   4236265   4236868   4237287   4237529   4237637  
  4600.000000   4237628   4237554   4237424   4237276   4237096  
  4590.000000   4236892   4236621   4236261   4235758   4235083  
  4580.000000   4234188   4233059   4231675   4230050   4228195  
  4570.000000   4226154   4223959   4221663   4219291   4216878  
  4560.000000   4214423   4211935   4209400   4206822   4204197  
  4550.000000   4201545   4198877   4196217   4193575   4190964  
  4540.000000   4188382   4185829   4183305   4180807   4178346  
  4530.000000   4175913   4173518   4171139   4168780   4166418  
  4520.000000   4164074   4161746   4159495   4157347   4155391  
  4510.000000   4153657   4152240   4151155   4150489   4150242  
  4500.000000   4150499   4151248   4152572   4154444   4156942  
  4490.000000   4160032   4163796   4168200   4173334   4179167  
  4480.000000   4185784   4193139   4201296   4210187   4219854  
  4470.000000   4230216   4241295   4253001   4265335   4278192  
  4460.000000   4291553   4305302   4319407   4333760   4348335  
  4450.000000   4363049   4377895   4392825   4407850   4422953  
  4440.000000   4438146   4453426   4468783   4484208   4499659  
  4430.000000   4515120   4530526   4545862   4561046   4576059  
  4420.000000   4590798   4605225   4619213   4632711   4645583  
  4410.000000   4657787   4669202   4679815   4689537   4698394  
  4400.000000   4706344   4713459   4719750   4725339   4730283  
  4390.000000   4734737   4738786   4742587   4746215   4749790  
  4380.000000   4753351   4756960   4760616   4764345   4768146  
  4370.000000   4772049   4776087   4780313   4784783   4789547  
  4360.000000   4794639   4800082   4805866   4811987   4818391  
  4350.000000   4825062   4831907   4838903   4845937   4852985  
  4340.000000   4859931   4866738   4873251   4879330   4884681  
  4330.000000   4888978   4891782   4892709   4891437   4887881  
  4320.000000   4882183   4874796   4866337   4857559   4849125  
  4310.000000   4841587   4835228   4830153   4826245   4823334  
  4300.000000   4821197   4819666   4818623   4817989   4817735  
  4290.000000   4817804   4818180   4818798   4819654   4820709  
  4280.000000   4821980   4823460   4825158   4827072   4829180  
  4270.000000   4831471   4833894   4836392   4838830   4841033  
  4260.000000   4842729   4843628   4843423   4841902   4838965  
  4250.000000   4834706   4829353   4823286   4816899   4810602  
  4240.000000   4804676   4799327   4794593   4790455   4786792  
  4230.000000   4783484   4780385   4777379   4774369   4771285  
  4220.000000   4768108   4764832   4761525   4758245   4755116  
  4210.000000   4752217   4749663   4747493   4745765   4744463  
  4200.000000   4743590   4743091   4742942   4743071   4743446  
  4190.000000   4743989   4744686   4745476   4746380   4747374  
  4180.000000   4748512   4749790   4751271   4752946   4754876  
  4170.000000   4757054   4759549   4762367   4765592   4769232  
  4160.000000   4773361   4777963   4783085   4788682   4794781  
  4150.000000   4801323   4808329   4815732   4823551   4831724  
  4140.000000   4840289   4849206   4858548   4868306   4878562  
  4130.000000   4889295   4900554   4912272   4924457   4937031  
  4120.000000   4950009   4963356   4977138   4991370   5006140  
  4110.000000   5021462   5037391   5053889   5070941   5088456  
  4100.000000   5106368   5124566   5142977   5161516   5180142  
  4090.000000   5198819   5217534   5236280   5255047   5273832  
  4080.000000   5292611   5311387   5330124   5348829   5367441  
  4070.000000   5385938   5404210   5422206   5439788   5456926  
  4060.000000   5473516   5489587   5505081   5520057   5534454  
  4050.000000   5548326   5561594   5574317   5586416   5597962  
  4040.000000   5608869   5619191   5628816   5637787   5645991  
  4030.000000   5653494   5660211   5666215   5671429   5675898  
  4020.000000   5679506   5682311   5684290   5685545   5686045  
  4010.000000   5685947   5685335   5684215   5682327   5679721  
  4000.000000   5676750  
##END= 
