##TITLE= Sample 006 By ssteindl date Dienstag, November 20 2018
##JCAMP-DX= 4.24
##DATA TYPE= INFRARED SPECTRUM
##ORIGIN= Exported PE Spectrum Data File
##OWNER= Sandra Steindl
##DATE= 18/11/20
##TIME= 16:11:48.00
##SPECTROMETER/DATA SYSTEM= PERKIN-ELMER Frontier FT-IR/NIR IR
##INSTRUMENT PARAMETERS=
  APODIZATION=stark
  DETECTOR=INGAAS
##RESOLUTION= 16.000000
##DELTAX= -2.000000
##XUNITS= 1/CM
##YUNITS= A
##XFACTOR= 1.00
##YFACTOR= 0.00000011920928955078
##FIRSTX= 10000.00
##LASTX= 4000.00
##NPOINTS= 3001
##FIRSTY= 0.274166
##MAXY= 0.608705
##MINY= 0.205586
##XYDATA= (X++(Y..Y))
 10000.000000   2299867   2299616   2298244   2294601   2289227  
  9990.000000   2283509   2278244   2273591   2269928   2267874  
  9980.000000   2267720   2269309   2272174   2275641   2278840  
  9970.000000   2281051   2282001   2281985   2281644   2281721  
  9960.000000   2282604   2284190   2285854   2286806   2286403  
  9950.000000   2284491   2281380   2277691   2273951   2270335  
  9940.000000   2266546   2261961   2255970   2248234   2238944  
  9930.000000   2228676   2218305   2208634   2200292   2193593  
  9920.000000   2188650   2185454   2184007   2184306   2186340  
  9910.000000   2189965   2194941   2200911   2207538   2214523  
  9900.000000   2221640   2228649   2235258   2241075   2245718  
  9890.000000   2248920   2250694   2251346   2251382   2251270  
  9880.000000   2251195   2250906   2249782   2247062   2242209  
  9870.000000   2235194   2226585   2217426   2208862   2201888  
  9860.000000   2197009   2194365   2193694   2194718   2197140  
  9850.000000   2200839   2205692   2211483   2217796   2223908  
  9840.000000   2229009   2232197   2232879   2230687   2225753  
  9830.000000   2218489   2209693   2200390   2191773   2185108  
  9820.000000   2181407   2181344   2184886   2191423   2199737  
  9810.000000   2208410   2216059   2221687   2224781   2225302  
  9800.000000   2223547   2219938   2214971   2209105   2202907  
  9790.000000   2196994   2192050   2188626   2186930   2186710  
  9780.000000   2187206   2187423   2186430   2183758   2179583  
  9770.000000   2174682   2170133   2166894   2165466   2165757  
  9760.000000   2167212   2169118   2170966   2172632   2174376  
  9750.000000   2176570   2179414   2182684   2185738   2187694  
  9740.000000   2187820   2185800   2181938   2177033   2172129  
  9730.000000   2168176   2165729   2164900   2165356   2166594  
  9720.000000   2168050   2169331   2170164   2170423   2170026  
  9710.000000   2168931   2167163   2164835   2162187   2159492  
  9700.000000   2156971   2154689   2152511   2150222   2147637  
  9690.000000   2144829   2142148   2140179   2139480   2140294  
  9680.000000   2142366   2144863   2146675   2146668   2144187  
  9670.000000   2139193   2132391   2124944   2118176   2113184  
  9660.000000   2110588   2110507   2112631   2116480   2121501  
  9650.000000   2127218   2133136   2138762   2143515   2146841  
  9640.000000   2148333   2147857   2145700   2142416   2138754  
  9630.000000   2135291   2132329   2129758   2127211   2124279  
  9620.000000   2120724   2116661   2112486   2108800   2106146  
  9610.000000   2104899   2105130   2106667   2109141   2112102  
  9600.000000   2115127   2117852   2120079   2121725   2122869  
  9590.000000   2123653   2124228   2124684   2124973   2124969  
  9580.000000   2124491   2123468   2122017   2120499   2119401  
  9570.000000   2119160   2119870   2121164   2122170   2121820  
  9560.000000   2119206   2114019   2106752   2098645   2091300  
  9550.000000   2086168   2084015   2084692   2087201   2090106  
  9540.000000   2092062   2092239   2090523   2087399   2083672  
  9530.000000   2080094   2077157   2074981   2073479   2072454  
  9520.000000   2071810   2071512   2071556   2071867   2072242  
  9510.000000   2072466   2072360   2071956   2071460   2071192  
  9500.000000   2071431   2072231   2073385   2074416   2074770  
  9490.000000   2073980   2071845   2068486   2064278   2059751  
  9480.000000   2055425   2051753   2049046   2047498   2047142  
  9470.000000   2047856   2049304   2050981   2052272   2052636  
  9460.000000   2051751   2049654   2046729   2043576   2040815  
  9450.000000   2038846   2037756   2037289   2037011   2036471  
  9440.000000   2035390   2033732   2031661   2029442   2027305  
  9430.000000   2025388   2023726   2022308   2021137   2020227  
  9420.000000   2019633   2019352   2019347   2019491   2019639  
  9410.000000   2019657   2019465   2019072   2018522   2017913  
  9400.000000   2017345   2016962   2016939   2017488   2018759  
  9390.000000   2020746   2023174   2025489   2026963   2026891  
  9380.000000   2024847   2020835   2015354   2009269   2003547  
  9370.000000   1998975   1995922   1994312   1993740   1993700  
  9360.000000   1993801   1993873   1993952   1994133   1994421  
  9350.000000   1994643   1994496   1993703   1992202   1990230  
  9340.000000   1988312   1987091   1987114   1988628   1991452  
  9330.000000   1995034   1998594   2001372   2002819   2002685  
  9320.000000   2001040   1998169   1994537   1990614   1986858  
  9310.000000   1983586   1980997   1979158   1977997   1977365  
  9300.000000   1977025   1976833   1976761   1977008   1977889  
  9290.000000   1979706   1982582   1986322   1990409   1994029  
  9280.000000   1996307   1996550   1994547   1990672   1985815  
  9270.000000   1981122   1977659   1976145   1976729   1978990  
  9260.000000   1982032   1984840   1986544   1986700   1985287  
  9250.000000   1982706   1979576   1976551   1974112   1972437  
  9240.000000   1971452   1970861   1970343   1969573   1968340  
  9230.000000   1966544   1964231   1961601   1958948   1956637  
  9220.000000   1954995   1954297   1954664   1956046   1958194  
  9210.000000   1960737   1963281   1965505   1967203   1968265  
  9200.000000   1968632   1968249   1967048   1964970   1962045  
  9190.000000   1958456   1954584   1950937   1948001   1946081  
  9180.000000   1945151   1944889   1944738   1944140   1942711  
  9170.000000   1940419   1937601   1934810   1932604   1931322  
  9160.000000   1930977   1931272   1931731   1931913   1931607  
  9150.000000   1930895   1930120   1929703   1929970   1930970  
  9140.000000   1932446   1933880   1934700   1934410   1932807  
  9130.000000   1930015   1926495   1922889   1919827   1917812  
  9120.000000   1917097   1917678   1919290   1921527   1923941  
  9110.000000   1926147   1927841   1928846   1929087   1928590  
  9100.000000   1927458   1925844   1923986   1922121   1920503  
  9090.000000   1919274   1918478   1917991   1917580   1916970  
  9080.000000   1915941   1914441   1912605   1910764   1909310  
  9070.000000   1908639   1908990   1910416   1912746   1915670  
  9060.000000   1918818   1921810   1924297   1925977   1926633  
  9050.000000   1926119   1924396   1921577   1917976   1914060  
  9040.000000   1910363   1907372   1905410   1904559   1904614  
  9030.000000   1905209   1905894   1906314   1906220   1905574  
  9020.000000   1904482   1903170   1901884   1900814   1900096  
  9010.000000   1899741   1899682   1899723   1899620   1899093  
  9000.000000   1897944   1896111   1893727   1891120   1888733  
  8990.000000   1887011   1886254   1886536   1887684   1889340  
  8980.000000   1891074   1892520   1893471   1893882   1893824  
  8970.000000   1893403   1892708   1891780   1890652   1889378  
  8960.000000   1888093   1886977   1886207   1885882   1885952  
  8950.000000   1886234   1886448   1886351   1885832   1884968  
  8940.000000   1883987   1883178   1882763   1882802   1883172  
  8930.000000   1883612   1883852   1883712   1883187   1882425  
  8920.000000   1881647   1881050   1880705   1880554   1880446  
  8910.000000   1880233   1879863   1879407   1879027   1878889  
  8900.000000   1879056   1879444   1879807   1879859   1879365  
  8890.000000   1878280   1876790   1875246   1874055   1873493  
  8880.000000   1873622   1874211   1874828   1874954   1874193  
  8870.000000   1872399   1869753   1866724   1863941   1862028  
  8860.000000   1861425   1862301   1864509   1867644   1871125  
  8850.000000   1874354   1876840   1878302   1878708   1878239  
  8840.000000   1877258   1876152   1875274   1874770   1874619  
  8830.000000   1874590   1874404   1873800   1872674   1871137  
  8820.000000   1869485   1868153   1867531   1867918   1869378  
  8810.000000   1871796   1874882   1878293   1881703   1884850  
  8800.000000   1887554   1889660   1891051   1891592   1891201  
  8790.000000   1889842   1887617   1884757   1881626   1878654  
  8780.000000   1876240   1874715   1874237   1874836   1876347  
  8770.000000   1878520   1881003   1883449   1885512   1886909  
  8760.000000   1887458   1887093   1885903   1884085   1881948  
  8750.000000   1879805   1877954   1876582   1875760   1875420  
  8740.000000   1875405   1875516   1875573   1875468   1875185  
  8730.000000   1874794   1874421   1874205   1874261   1874648  
  8720.000000   1875376   1876406   1877685   1879154   1880773  
  8710.000000   1882498   1884262   1885963   1887459   1888588  
  8700.000000   1889213   1889265   1888779   1887898   1886842  
  8690.000000   1885853   1885120   1884748   1884723   1884952  
  8680.000000   1885286   1885588   1885751   1885735   1885538  
  8670.000000   1885184   1884696   1884090   1883391   1882636  
  8660.000000   1881906   1881289   1880905   1880827   1881096  
  8650.000000   1881657   1882406   1883178   1883822   1884226  
  8640.000000   1884384   1884383   1884413   1884717   1885535  
  8630.000000   1887032   1889231   1892012   1895124   1898268  
  8620.000000   1901151   1903574   1905475   1906906   1907982  
  8610.000000   1908799   1909374   1909621   1909395   1908572  
  8600.000000   1907150   1905303   1903362   1901742   1900805  
  8590.000000   1900756   1901543   1902890   1904358   1905509  
  8580.000000   1906049   1905918   1905317   1904613   1904240  
  8570.000000   1904530   1905629   1907434   1909657   1911903  
  8560.000000   1913816   1915173   1915954   1916330   1916593  
  8550.000000   1917053   1917918   1919240   1920884   1922596  
  8540.000000   1924075   1925095   1925573   1925605   1925408  
  8530.000000   1925250   1925323   1925691   1926245   1926761  
  8520.000000   1926972   1926678   1925824   1924526   1923045  
  8510.000000   1921699   1920776   1920436   1920684   1921364  
  8500.000000   1922218   1922963   1923385   1923406   1923121  
  8490.000000   1922773   1922685   1923175   1924452   1926538  
  8480.000000   1929235   1932162   1934858   1936899   1938013  
  8470.000000   1938148   1937489   1936379   1935210   1934298  
  8460.000000   1933810   1933724   1933872   1934025   1933978  
  8450.000000   1933641   1933038   1932330   1931724   1931443  
  8440.000000   1931622   1932315   1933461   1934923   1936506  
  8430.000000   1938006   1939252   1940121   1940547   1940522  
  8420.000000   1940088   1939326   1938338   1937240   1936146  
  8410.000000   1935169   1934393   1933867   1933581   1933475  
  8400.000000   1933444   1933360   1933104   1932598   1931840  
  8390.000000   1930887   1929847   1928843   1927995   1927395  
  8380.000000   1927106   1927161   1927563   1928300   1929322  
  8370.000000   1930544   1931839   1933064   1934084   1934805  
  8360.000000   1935190   1935265   1935096   1934759   1934308  
  8350.000000   1933768   1933147   1932459   1931740   1931042  
  8340.000000   1930393   1929786   1929134   1928313   1927176  
  8330.000000   1925657   1923811   1921855   1920103   1918875  
  8320.000000   1918379   1918631   1919440   1920448   1921249  
  8310.000000   1921508   1921075   1919998   1918488   1916830  
  8300.000000   1915298   1914098   1913331   1913018   1913106  
  8290.000000   1913509   1914099   1914733   1915222   1915388  
  8280.000000   1915081   1914237   1912905   1911221   1909385  
  8270.000000   1907568   1905885   1904338   1902845   1901294  
  8260.000000   1899610   1897825   1896061   1894531   1893439  
  8250.000000   1892947   1893090   1893778   1894803   1895886  
  8240.000000   1896754   1897181   1897042   1896308   1895061  
  8230.000000   1893445   1891645   1889847   1888200   1886806  
  8220.000000   1885699   1884872   1884270   1883840   1883497  
  8210.000000   1883179   1882797   1882284   1881566   1880606  
  8200.000000   1879398   1877984   1876437   1874840   1873251  
  8190.000000   1871673   1870054   1868301   1866320   1864057  
  8180.000000   1861527   1858821   1856074   1853439   1851047  
  8170.000000   1848988   1847303   1845997   1845043   1844388  
  8160.000000   1843960   1843659   1843377   1843007   1842488  
  8150.000000   1841801   1841008   1840199   1839477   1838885  
  8140.000000   1838404   1837946   1837400   1836693   1835824  
  8130.000000   1834885   1834016   1833355   1832965   1832802  
  8120.000000   1832714   1832497   1831958   1831001   1829648  
  8110.000000   1828043   1826398   1824924   1823774   1823004  
  8100.000000   1822569   1822344   1822158   1821834   1821232  
  8090.000000   1820273   1818966   1817414   1815797   1814342  
  8080.000000   1813257   1812678   1812623   1812970   1813503  
  8070.000000   1813961   1814128   1813887   1813239   1812291  
  8060.000000   1811194   1810090   1809071   1808168   1807375  
  8050.000000   1806682   1806097   1805645   1805339   1805149  
  8040.000000   1804977   1804674   1804077   1803078   1801668  
  8030.000000   1799963   1798171   1796529   1795235   1794382  
  8020.000000   1793944   1793791   1793743   1793612   1793258  
  8010.000000   1792592   1791591   1790283   1788744   1787092  
  8000.000000   1785484   1784096   1783094   1782598   1782640  
  7990.000000   1783158   1783991   1784935   1785782   1786382  
  7980.000000   1786656   1786600   1786258   1785670   1784879  
  7970.000000   1783891   1782733   1781433   1780065   1778712  
  7960.000000   1777461   1776371   1775451   1774698   1774088  
  7950.000000   1773644   1773412   1773479   1773903   1774685  
  7940.000000   1775735   1776866   1777855   1778481   1778611  
  7930.000000   1778206   1777342   1776149   1774783   1773380  
  7920.000000   1772045   1770866   1769924   1769302   1769056  
  7910.000000   1769199   1769649   1770247   1770773   1771026  
  7900.000000   1770884   1770354   1769567   1768720   1768006  
  7890.000000   1767524   1767268   1767117   1766926   1766572  
  7880.000000   1766029   1765358   1764680   1764117   1763734  
  7870.000000   1763533   1763461   1763470   1763552   1763756  
  7860.000000   1764167   1764853   1765811   1766939   1768047  
  7850.000000   1768916   1769367   1769317   1768815   1768005  
  7840.000000   1767085   1766230   1765549   1765067   1764735  
  7830.000000   1764480   1764228   1763957   1763678   1763447  
  7820.000000   1763315   1763325   1763472   1763715   1763975  
  7810.000000   1764158   1764183   1763996   1763595   1763026  
  7800.000000   1762374   1761737   1761195   1760792   1760519  
  7790.000000   1760333   1760169   1759978   1759732   1759439  
  7780.000000   1759120   1758797   1758472   1758120   1757702  
  7770.000000   1757179   1756537   1755786   1754966   1754123  
  7760.000000   1753298   1752518   1751793   1751139   1750569  
  7750.000000   1750120   1749819   1749687   1749705   1749816  
  7740.000000   1749928   1749933   1749744   1749306   1748621  
  7730.000000   1747729   1746706   1745630   1744577   1743601  
  7720.000000   1742736   1741992   1741361   1740819   1740329  
  7710.000000   1739854   1739359   1738836   1738292   1737766  
  7700.000000   1737307   1736966   1736783   1736770   1736916  
  7690.000000   1737174   1737476   1737724   1737813   1737635  
  7680.000000   1737119   1736240   1735063   1733722   1732415  
  7670.000000   1731343   1730659   1730421   1730567   1730952  
  7660.000000   1731389   1731725   1731888   1731906   1731874  
  7650.000000   1731898   1732037   1732271   1732510   1732629  
  7640.000000   1732540   1732219   1731727   1731175   1730676  
  7630.000000   1730294   1730015   1729769   1729462   1729035  
  7620.000000   1728490   1727894   1727347   1726934   1726692  
  7610.000000   1726591   1726550   1726477   1726308   1726032  
  7600.000000   1725691   1725354   1725091   1724940   1724905  
  7590.000000   1724957   1725056   1725168   1725276   1725384  
  7580.000000   1725504   1725645   1725815   1726005   1726206  
  7570.000000   1726399   1726566   1726676   1726702   1726611  
  7560.000000   1726389   1726038   1725601   1725150   1724779  
  7550.000000   1724580   1724619   1724919   1725454   1726160  
  7540.000000   1726965   1727803   1728642   1729471   1730307  
  7530.000000   1731157   1732020   1732864   1733650   1734328  
  7520.000000   1734883   1735328   1735719   1736127   1736626  
  7510.000000   1737262   1738039   1738926   1739865   1740801  
  7500.000000   1741694   1742529   1743319   1744083   1744836  
  7490.000000   1745584   1746321   1747041   1747747   1748456  
  7480.000000   1749188   1749960   1750769   1751592   1752395  
  7470.000000   1753143   1753831   1754474   1755120   1755808  
  7460.000000   1756567   1757375   1758187   1758938   1759597  
  7450.000000   1760176   1760751   1761441   1762370   1763628  
  7440.000000   1765231   1767117   1769170   1771249   1773235  
  7430.000000   1775041   1776635   1778015   1779214   1780264  
  7420.000000   1781211   1782103   1783004   1783982   1785101  
  7410.000000   1786403   1787896   1789551   1791305   1793089  
  7400.000000   1794836   1796500   1798053   1799479   1800774  
  7390.000000   1801934   1802977   1803934   1804866   1805844  
  7380.000000   1806939   1808188   1809584   1811072   1812573  
  7370.000000   1814017   1815364   1816621   1817825   1819027  
  7360.000000   1820253   1821492   1822703   1823838   1824874  
  7350.000000   1825836   1826796   1827842   1829045   1830418  
  7340.000000   1831905   1833400   1834785   1835981   1836979  
  7330.000000   1837839   1838672   1839592   1840685   1841977  
  7320.000000   1843432   1844971   1846506   1847963   1849304  
  7310.000000   1850530   1851672   1852779   1853898   1855060  
  7300.000000   1856273   1857523   1858776   1859989   1861126  
  7290.000000   1862169   1863125   1864028   1864931   1865886  
  7280.000000   1866930   1868072   1869288   1870533   1871756  
  7270.000000   1872913   1873991   1874996   1875959   1876911  
  7260.000000   1877879   1878866   1879867   1880864   1881852  
  7250.000000   1882828   1883820   1884858   1885983   1887216  
  7240.000000   1888575   1890042   1891601   1893222   1894898  
  7230.000000   1896627   1898441   1900365   1902439   1904666  
  7220.000000   1907048   1909542   1912115   1914717   1917335  
  7210.000000   1919961   1922627   1925360   1928200   1931154  
  7200.000000   1934218   1937361   1940559   1943782   1947029  
  7190.000000   1950299   1953612   1956963   1960353   1963751  
  7180.000000   1967136   1970482   1973792   1977083   1980395  
  7170.000000   1983768   1987246   1990848   1994587   1998446  
  7160.000000   2002405   2006420   2010451   2014440   2018354  
  7150.000000   2022151   2025840   2029440   2033023   2036661  
  7140.000000   2040448   2044440   2048685   2053189   2057959  
  7130.000000   2062979   2068250   2073746   2079433   2085233  
  7120.000000   2091057   2096795   2102389   2107815   2113141  
  7110.000000   2118464   2123912   2129565   2135453   2141523  
  7100.000000   2147685   2153827   2159881   2165821   2171677  
  7090.000000   2177494   2183315   2189142   2194950   2200693  
  7080.000000   2206349   2211926   2217482   2223092   2228833  
  7070.000000   2234747   2240827   2247025   2253268   2259487  
  7060.000000   2265635   2271691   2277660   2283552   2289382  
  7050.000000   2295156   2300876   2306538   2312134   2317654  
  7040.000000   2323083   2328414   2333645   2338800   2343917  
  7030.000000   2349056   2354264   2359576   2364978   2370431  
  7020.000000   2375859   2381192   2386373   2391383   2396225  
  7010.000000   2400926   2405502   2409971   2414331   2418592  
  7000.000000   2422766   2426889   2430988   2435093   2439193  
  6990.000000   2443261   2447237   2451085   2454776   2458338  
  6980.000000   2461810   2465257   2468707   2472173   2475611  
  6970.000000   2478979   2482221   2485322   2488282   2491132  
  6960.000000   2493891   2496573   2499157   2501621   2503930  
  6950.000000   2506085   2508100   2510027   2511912   2513817  
  6940.000000   2515771   2517803   2519909   2522087   2524307  
  6930.000000   2526538   2528722   2530801   2532707   2534396  
  6920.000000   2535840   2537046   2538044   2538881   2539603  
  6910.000000   2540258   2540885   2541528   2542228   2543033  
  6900.000000   2543967   2545043   2546232   2547490   2548756  
  6890.000000   2549985   2551154   2552268   2553346   2554403  
  6880.000000   2555432   2556408   2557297   2558082   2558776  
  6870.000000   2559436   2560130   2560925   2561845   2562866  
  6860.000000   2563914   2564903   2565754   2566430   2566937  
  6850.000000   2567318   2567627   2567915   2568210   2568527  
  6840.000000   2568869   2569242   2569646   2570081   2570530  
  6830.000000   2570970   2571368   2571706   2571983   2572227  
  6820.000000   2572477   2572770   2573115   2573491   2573852  
  6810.000000   2574154   2574371   2574517   2574633   2574772  
  6800.000000   2574962   2575195   2575412   2575529   2575462  
  6790.000000   2575166   2574643   2573946   2573158   2572368  
  6780.000000   2571642   2571025   2570526   2570146   2569867  
  6770.000000   2569678   2569560   2569492   2569446   2569390  
  6760.000000   2569291   2569119   2568858   2568497   2568045  
  6750.000000   2567516   2566945   2566370   2565845   2565419  
  6740.000000   2565129   2564991   2564992   2565102   2565273  
  6730.000000   2565469   2565670   2565875   2566092   2566324  
  6720.000000   2566554   2566740   2566827   2566764   2566524  
  6710.000000   2566119   2565599   2565037   2564509   2564079  
  6700.000000   2563775   2563605   2563540   2563541   2563548  
  6690.000000   2563506   2563355   2563049   2562560   2561889  
  6680.000000   2561062   2560130   2559144   2558153   2557176  
  6670.000000   2556219   2555266   2554307   2553334   2552355  
  6660.000000   2551376   2550402   2549414   2548385   2547279  
  6650.000000   2546080   2544794   2543458   2542125   2540848  
  6640.000000   2539659   2538563   2537534   2536539   2535538  
  6630.000000   2534509   2533434   2532310   2531128   2529883  
  6620.000000   2528568   2527192   2525771   2524337   2522917  
  6610.000000   2521527   2520159   2518786   2517369   2515887  
  6600.000000   2514341   2512764   2511201   2509697   2508268  
  6590.000000   2506899   2505547   2504160   2502699   2501151  
  6580.000000   2499529   2497867   2496199   2494556   2492954  
  6570.000000   2491400   2489898   2488451   2487055   2485701  
  6560.000000   2484365   2483016   2481624   2480178   2478689  
  6550.000000   2477187   2475713   2474292   2472929   2471597  
  6540.000000   2470261   2468889   2467475   2466038   2464618  
  6530.000000   2463248   2461941   2460679   2459426   2458143  
  6520.000000   2456814   2455451   2454091   2452770   2451509  
  6510.000000   2450295   2449088   2447842   2446525   2445139  
  6500.000000   2443718   2442318   2440988   2439757   2438618  
  6490.000000   2437539   2436479   2435397   2434269   2433082  
  6480.000000   2431825   2430489   2429065   2427552   2425972  
  6470.000000   2424372   2422822   2421389   2420123   2419039  
  6460.000000   2418107   2417267   2416451   2415601   2414687  
  6450.000000   2413705   2412672   2411610   2410536   2409456  
  6440.000000   2408373   2407285   2406196   2405111   2404038  
  6430.000000   2402982   2401950   2400945   2399978   2399059  
  6420.000000   2398204   2397421   2396709   2396049   2395419  
  6410.000000   2394792   2394159   2393524   2392913   2392358  
  6400.000000   2391889   2391515   2391230   2391004   2390799  
  6390.000000   2390574   2390299   2389952   2389531   2389042  
  6380.000000   2388510   2387967   2387456   2387019   2386686  
  6370.000000   2386468   2386346   2386281   2386219   2386110  
  6360.000000   2385917   2385627   2385242   2384774   2384230  
  6350.000000   2383618   2382935   2382190   2381400   2380599  
  6340.000000   2379824   2379106   2378449   2377837   2377228  
  6330.000000   2376579   2375857   2375057   2374198   2373323  
  6320.000000   2372471   2371671   2370925   2370220   2369527  
  6310.000000   2368821   2368081   2367296   2366458   2365562  
  6300.000000   2364597   2363556   2362433   2361241   2359996  
  6290.000000   2358734   2357482   2356270   2355106   2353996  
  6280.000000   2352926   2351885   2350852   2349812   2348746  
  6270.000000   2347644   2346491   2345287   2344032   2342739  
  6260.000000   2341420   2340092   2338762   2337433   2336099  
  6250.000000   2334753   2333385   2331989   2330558   2329091  
  6240.000000   2327589   2326061   2324519   2322989   2321494  
  6230.000000   2320061   2318702   2317412   2316171   2314947  
  6220.000000   2313710   2312436   2311120   2309769   2308398  
  6210.000000   2307019   2305638   2304253   2302868   2301489  
  6200.000000   2300142   2298853   2297651   2296544   2295525  
  6190.000000   2294562   2293616   2292656   2291669   2290667  
  6180.000000   2289678   2288735   2287863   2287069   2286346  
  6170.000000   2285671   2285024   2284382   2283725   2283032  
  6160.000000   2282284   2281457   2280543   2279547   2278494  
  6150.000000   2277429   2276405   2275465   2274632   2273904  
  6140.000000   2273257   2272657   2272074   2271483   2270876  
  6130.000000   2270244   2269587   2268897   2268175   2267426  
  6120.000000   2266672   2265944   2265283   2264718   2264265  
  6110.000000   2263916   2263655   2263450   2263282   2263133  
  6100.000000   2263002   2262877   2262755   2262614   2262447  
  6090.000000   2262244   2262026   2261822   2261683   2261645  
  6080.000000   2261730   2261927   2262209   2262530   2262864  
  6070.000000   2263198   2263552   2263954   2264440   2265024  
  6060.000000   2265710   2266475   2267303   2268170   2269080  
  6050.000000   2270034   2271054   2272145   2273317   2274561  
  6040.000000   2275883   2277282   2278784   2280402   2282162  
  6030.000000   2284060   2286084   2288189   2290335   2292477  
  6020.000000   2294599   2296701   2298812   2300959   2303173  
  6010.000000   2305459   2307808   2310185   2312556   2314881  
  6000.000000   2317144   2319333   2321464   2323553   2325631  
  5990.000000   2327716   2329836   2332001   2334232   2336537  
  5980.000000   2338937   2341445   2344081   2346849   2349752  
  5970.000000   2352773   2355896   2359088   2362327   2365586  
  5960.000000   2368857   2372126   2375396   2378656   2381910  
  5950.000000   2385146   2388374   2391604   2394869   2398205  
  5940.000000   2401656   2405257   2409023   2412952   2417013  
  5930.000000   2421162   2425340   2429493   2433565   2437516  
  5920.000000   2441310   2444927   2448355   2451594   2454652  
  5910.000000   2457549   2460305   2462947   2465497   2467986  
  5900.000000   2470440   2472897   2475387   2477946   2480587  
  5890.000000   2483321   2486123   2488971   2491824   2494657  
  5880.000000   2497439   2500161   2502803   2505348   2507768  
  5870.000000   2510030   2512109   2513996   2515708   2517289  
  5860.000000   2518797   2520295   2521830   2523435   2525119  
  5850.000000   2526888   2528737   2530672   2532694   2534801  
  5840.000000   2536983   2539216   2541476   2543736   2545988  
  5830.000000   2548230   2550472   2552722   2554981   2557234  
  5820.000000   2559467   2561663   2563827   2565973   2568129  
  5810.000000   2570319   2572548   2574807   2577057   2579274  
  5800.000000   2581430   2583544   2585632   2587750   2589911  
  5790.000000   2592132   2594359   2596533   2598538   2600276  
  5780.000000   2601627   2602510   2602843   2602595   2601749  
  5770.000000   2600350   2598469   2596236   2593782   2591262  
  5760.000000   2588788   2586460   2584312   2582367   2580603  
  5750.000000   2579014   2577571   2576263   2575062   2573944  
  5740.000000   2572875   2571822   2570767   2569696   2568624  
  5730.000000   2567562   2566537   2565558   2564638   2563768  
  5720.000000   2562948   2562167   2561420   2560696   2559989  
  5710.000000   2559280   2558563   2557828   2557083   2556342  
  5700.000000   2555628   2554962   2554354   2553805   2553304  
  5690.000000   2552841   2552400   2551980   2551570   2551170  
  5680.000000   2550755   2550306   2549779   2549142   2548358  
  5670.000000   2547404   2546252   2544889   2543291   2541450  
  5660.000000   2539364   2537065   2534608   2532079   2529566  
  5650.000000   2527155   2524895   2522802   2520854   2519014  
  5640.000000   2517237   2515495   2513771   2512063   2510376  
  5630.000000   2508709   2507068   2505454   2503882   2502366  
  5620.000000   2500936   2499604   2498380   2497248   2496187  
  5610.000000   2495166   2494164   2493171   2492195   2491244  
  5600.000000   2490333   2489460   2488623   2487808   2487008  
  5590.000000   2486215   2485432   2484659   2483899   2483144  
  5580.000000   2482389   2481628   2480861   2480096   2479340  
  5570.000000   2478599   2477865   2477124   2476352   2475533  
  5560.000000   2474658   2473737   2472790   2471838   2470895  
  5550.000000   2469965   2469038   2468104   2467153   2466189  
  5540.000000   2465219   2464257   2463308   2462375   2461449  
  5530.000000   2460525   2459601   2458685   2457788   2456919  
  5520.000000   2456079   2455259   2454439   2453599   2452721  
  5510.000000   2451796   2450822   2449804   2448745   2447652  
  5500.000000   2446529   2445393   2444263   2443161   2442100  
  5490.000000   2441079   2440071   2439038   2437936   2436740  
  5480.000000   2435439   2434056   2432621   2431170   2429723  
  5470.000000   2428282   2426833   2425361   2423851   2422309  
  5460.000000   2420740   2419158   2417563   2415951   2414314  
  5450.000000   2412654   2410983   2409329   2407727   2406199  
  5440.000000   2404753   2403372   2402037   2400725   2399436  
  5430.000000   2398180   2396980   2395842   2394765   2393722  
  5420.000000   2392692   2391656   2390635   2389661   2388795  
  5410.000000   2388073   2387520   2387108   2386809   2386574  
  5400.000000   2386397   2386276   2386255   2386355   2386611  
  5390.000000   2387010   2387545   2388183   2388935   2389804  
  5380.000000   2390845   2392081   2393547   2395216   2397075  
  5370.000000   2399059   2401161   2403346   2405656   2408091  
  5360.000000   2410707   2413494   2416496   2419693   2423145  
  5350.000000   2426856   2430919   2435344   2440208   2445481  
  5340.000000   2451205   2457324   2463889   2470867   2478333  
  5330.000000   2486252   2494680   2503542   2512869   2522584  
  5320.000000   2532762   2543388   2554603   2566422   2578987  
  5310.000000   2592265   2606334   2621100   2636616   2652801  
  5300.000000   2669747   2687428   2705977   2725391   2745791  
  5290.000000   2767130   2789452   2812626   2836603   2861202  
  5280.000000   2886367   2911982   2938093   2964708   2991948  
  5270.000000   3019838   3048401   3077514   3107007   3136653  
  5260.000000   3166262   3195733   3225050   3254285   3283487  
  5250.000000   3312686   3341759   3370557   3398804   3426340  
  5240.000000   3452980   3478767   3503708   3527994   3551672  
  5230.000000   3574884   3597554   3619678   3641059   3661650  
  5220.000000   3681293   3700050   3717895   3735011   3751435  
  5210.000000   3767339   3782680   3797498   3811620   3825015  
  5200.000000   3837517   3849182   3859968   3870039   3879409  
  5190.000000   3888216   3896404   3904025   3910968   3917272  
  5180.000000   3922867   3927850   3932195   3936003   3939223  
  5170.000000   3941910   3943989   3945521   3946470   3946939  
  5160.000000   3946924   3946513   3945664   3944409   3942672  
  5150.000000   3940482   3937804   3934720   3931249   3927487  
  5140.000000   3923447   3919193   3914709   3910038   3905167  
  5130.000000   3900146   3894968   3889666   3884215   3878624  
  5120.000000   3872864   3866956   3860909   3854777   3848590  
  5110.000000   3842395   3836199   3830013   3823818   3817618  
  5100.000000   3811410   3805216   3799047   3792921   3786832  
  5090.000000   3780775   3774731   3768699   3762676   3756682  
  5080.000000   3750727   3744820   3738949   3733092   3727213  
  5070.000000   3721288   3715292   3709225   3703080   3696867  
  5060.000000   3690575   3684204   3677736   3671176   3664519  
  5050.000000   3657786   3650985   3644135   3637234   3630287  
  5040.000000   3623284   3616236   3609151   3602057   3594974  
  5030.000000   3587926   3580917   3573943   3566994   3560056  
  5020.000000   3553129   3546215   3539334   3532499   3525732  
  5010.000000   3519039   3512440   3505938   3499557   3493304  
  5000.000000   3487208   3481268   3475500   3469886   3464435  
  4990.000000   3459130   3453994   3449027   3444269   3439721  
  4980.000000   3435415   3431329   3427480   3423834   3420412  
  4970.000000   3417195   3414225   3411495   3409055   3406888  
  4960.000000   3405033   3403464   3402219   3401273   3400675  
  4950.000000   3400404   3400505   3400944   3401749   3402874  
  4940.000000   3404343   3406111   3408215   3410622   3413375  
  4930.000000   3416440   3419854   3423584   3427665   3432072  
  4920.000000   3436847   3441968   3447471   3453324   3459542  
  4910.000000   3466078   3472932   3480054   3487435   3495031  
  4900.000000   3502823   3510768   3518841   3527009   3535253  
  4890.000000   3543557   3551894   3560240   3568531   3576710  
  4880.000000   3584675   3592357   3599657   3606544   3612951  
  4870.000000   3618888   3624309   3629232   3633606   3637450  
  4860.000000   3640723   3643470   3645681   3647427   3648712  
  4850.000000   3649610   3650114   3650281   3650106   3649648  
  4840.000000   3648923   3648007   3646935   3645781   3644575  
  4830.000000   3643363   3642156   3640979   3639834   3638738  
  4820.000000   3637700   3636733   3635852   3635063   3634381  
  4810.000000   3633805   3633349   3633010   3632801   3632720  
  4800.000000   3632783   3632988   3633351   3633863   3634530  
  4790.000000   3635329   3636248   3637250   3638319   3639427  
  4780.000000   3640577   3641766   3643017   3644340   3645751  
  4770.000000   3647240   3648795   3650388   3651995   3653591  
  4760.000000   3655166   3656711   3658229   3659719   3661180  
  4750.000000   3662609   3664002   3665357   3666673   3667951  
  4740.000000   3669191   3670395   3671562   3672690   3673784  
  4730.000000   3674850   3675897   3676930   3677954   3678962  
  4720.000000   3679951   3680909   3681849   3682779   3683739  
  4710.000000   3684760   3685891   3687154   3688578   3690163  
  4700.000000   3691922   3693852   3695972   3698293   3700839  
  4690.000000   3703614   3706622   3709836   3713226   3716737  
  4680.000000   3720327   3723935   3727525   3731047   3734484  
  4670.000000   3737799   3740996   3744066   3747041   3749947  
  4660.000000   3752842   3755773   3758806   3761987   3765364  
  4650.000000   3768962   3772794   3776850   3781101   3785504  
  4640.000000   3790004   3794550   3799094   3803610   3808077  
  4630.000000   3812494   3816845   3821120   3825279   3829283  
  4620.000000   3833065   3836580   3839771   3842628   3845130  
  4610.000000   3847310   3849182   3850804   3852197   3853425  
  4600.000000   3854502   3855480   3856359   3857175   3857909  
  4590.000000   3858573   3859127   3859564   3859830   3859910  
  4580.000000   3859757   3859370   3858728   3857861   3856783  
  4570.000000   3855544   3854172   3852713   3851176   3849578  
  4560.000000   3847898   3846135   3844265   3842291   3840211  
  4550.000000   3838051   3835825   3833566   3831287   3829010  
  4540.000000   3826738   3824479   3822232   3819994   3817758  
  4530.000000   3815511   3813243   3810936   3808589   3806196  
  4520.000000   3803782   3801356   3798962   3796610   3794349  
  4510.000000   3792179   3790161   3788307   3786706   3785390  
  4500.000000   3784470   3783973   3783993   3784519   3785613  
  4490.000000   3787235   3789447   3792214   3795619   3799645  
  4480.000000   3804381   3809798   3815964   3822826   3830430  
  4470.000000   3838701   3847670   3857247   3867440   3878143  
  4460.000000   3889348   3900948   3912940   3925246   3937883  
  4450.000000   3950804   3964032   3977528   3991296   4005291  
  4440.000000   4019494   4033855   4048333   4062879   4077430  
  4430.000000   4091937   4106321   4120542   4134522   4148241  
  4420.000000   4161631   4174690   4187346   4199592   4211336  
  4410.000000   4222552   4233132   4243046   4252202   4260607  
  4400.000000   4268221   4275115   4281318   4286958   4292111  
  4390.000000   4296931   4301508   4305980   4310414   4314904  
  4380.000000   4319468   4324148   4328924   4333808   4338778  
  4370.000000   4343853   4349033   4354347   4359799   4365399  
  4360.000000   4371127   4376964   4382855   4388777   4394654  
  4350.000000   4400478   4406160   4411718   4417068   4422259  
  4340.000000   4427231   4432035   4436574   4440773   4444352  
  4330.000000   4446989   4448195   4447531   4444600   4439261  
  4320.000000   4431623   4422137   4411457   4400393   4389687  
  4310.000000   4379959   4371560   4364628   4359077   4354727  
  4300.000000   4351351   4348759   4346825   4345457   4344635  
  4290.000000   4344300   4344455   4345032   4346033   4347400  
  4280.000000   4349138   4351195   4353548   4356135   4358893  
  4270.000000   4361758   4364657   4367522   4370239   4372664  
  4260.000000   4374576   4375726   4375835   4374695   4372184  
  4250.000000   4368358   4363403   4357664   4351517   4345371  
  4240.000000   4339526   4334212   4329495   4325378   4321758  
  4230.000000   4318530   4315562   4312752   4310018   4307294  
  4220.000000   4304562   4301802   4299065   4296381   4293862  
  4210.000000   4291571   4289631   4288090   4287021   4286419  
  4200.000000   4286287   4286563   4287206   4288122   4289262  
  4190.000000   4290542   4291935   4293387   4294911   4296480  
  4180.000000   4298134   4299853   4301680   4303595   4305645  
  4170.000000   4307820   4310182   4312742   4315574   4318690  
  4160.000000   4322155   4325970   4330188   4334798   4339850  
  4150.000000   4345328   4351272   4357642   4364457   4371651  
  4140.000000   4379232   4387137   4395399   4403978   4412927  
  4130.000000   4422213   4431883   4441891   4452273   4462994  
  4120.000000   4474112   4485629   4497633   4510147   4523245  
  4110.000000   4536919   4551193   4566012   4581351   4597124  
  4100.000000   4613279   4629719   4646374   4663149   4679977  
  4090.000000   4696794   4713559   4730256   4746880   4763461  
  4080.000000   4780005   4796549   4813071   4829573   4845968  
  4070.000000   4862207   4878143   4893703   4908741   4923225  
  4060.000000   4937063   4950284   4962839   4974788   4986090  
  4050.000000   4996817   5006941   5016563   5025675   5034391  
  4040.000000   5042676   5050596   5058054   5065063   5071502  
  4030.000000   5077399   5082676   5087399   5091536   5095160  
  4020.000000   5098218   5100775   5102819   5104401   5105451  
  4010.000000   5106039   5106189   5105871   5104866   5103227  
  4000.000000   5101276  
##END= 
