##TITLE= Sample 011 By ssteindl date Dienstag, November 20 2018
##JCAMP-DX= 4.24
##DATA TYPE= INFRARED SPECTRUM
##ORIGIN= Exported PE Spectrum Data File
##OWNER= Sandra Steindl
##DATE= 18/11/20
##TIME= 16:17:03.00
##SPECTROMETER/DATA SYSTEM= PERKIN-ELMER Frontier FT-IR/NIR IR
##INSTRUMENT PARAMETERS=
  APODIZATION=stark
  DETECTOR=INGAAS
##RESOLUTION= 16.000000
##DELTAX= -2.000000
##XUNITS= 1/CM
##YUNITS= A
##XFACTOR= 1.00
##YFACTOR= 0.00000011920928955078
##FIRSTX= 10000.00
##LASTX= 4000.00
##NPOINTS= 3001
##FIRSTY= 0.234083
##MAXY= 0.610489
##MINY= 0.198873
##XYDATA= (X++(Y..Y))
 10000.000000   1963633   1966411   1969941   1974996   1981139  
  9990.000000   1987337   1992930   1997640   2000947   2002193  
  9980.000000   2001008   1997540   1992247   1985948   1979715  
  9970.000000   1974674   1971636   1970910   1972200   1974670  
  9960.000000   1977133   1978401   1977586   1974400   1969248  
  9950.000000   1963178   1957583   1953839   1952884   1955003  
  9940.000000   1959724   1966023   1972579   1978199   1982062  
  9930.000000   1983940   1984072   1983021   1981333   1979350  
  9920.000000   1977112   1974400   1970947   1966570   1961313  
  9910.000000   1955414   1949204   1943004   1937026   1931386  
  9900.000000   1926167   1921462   1917459   1914344   1912254  
  9890.000000   1911132   1910731   1910669   1910657   1910660  
  9880.000000   1911039   1912422   1915468   1920506   1927294  
  9870.000000   1934958   1942242   1947887   1951132   1951904  
  9860.000000   1950859   1948978   1947178   1945884   1944931  
  9850.000000   1943719   1941592   1938232   1933863   1929227  
  9840.000000   1925275   1922818   1922192   1923217   1925273  
  9830.000000   1927643   1929693   1931113   1931846   1932110  
  9820.000000   1932210   1932548   1933479   1935324   1938211  
  9810.000000   1941992   1946129   1949677   1951510   1950554  
  9800.000000   1946271   1938809   1929117   1918597   1908683  
  9790.000000   1900384   1894026   1889372   1885910   1883317  
  9780.000000   1881684   1881529   1883466   1887787   1894125  
  9770.000000   1901385   1908057   1912670   1914388   1913243  
  9760.000000   1910192   1906665   1904112   1903492   1905052  
  9750.000000   1908376   1912600   1916743   1919942   1921596  
  9740.000000   1921422   1919412   1915809   1911075   1905779  
  9730.000000   1900568   1895953   1892300   1889717   1888196  
  9720.000000   1887669   1888170   1889797   1892614   1896453  
  9710.000000   1900696   1904341   1906095   1904909   1900274  
  9700.000000   1892640   1883298   1874117   1866962   1863178  
  9690.000000   1863288   1866935   1873206   1880895   1888924  
  9680.000000   1896364   1902578   1907049   1909460   1909699  
  9670.000000   1907981   1904914   1901317   1898060   1895623  
  9660.000000   1893978   1892511   1890296   1886529   1880853  
  9650.000000   1873669   1865930   1858917   1853711   1850879  
  9640.000000   1850372   1851605   1853815   1856235   1858326  
  9630.000000   1859700   1860103   1859361   1857469   1854755  
  9620.000000   1851939   1850105   1850362   1853475   1859446  
  9610.000000   1867406   1875779   1882739   1886790   1887170  
  9600.000000   1884044   1878270   1871026   1863323   1855761  
  9590.000000   1848519   1841622   1835228   1829797   1826021  
  9580.000000   1824491   1825411   1828332   1832299   1836090  
  9570.000000   1838673   1839552   1838848   1837277   1835730  
  9560.000000   1835042   1835622   1837446   1840100   1843019  
  9550.000000   1845698   1847852   1849445   1850626   1851621  
  9540.000000   1852581   1853567   1854454   1855027   1854972  
  9530.000000   1854029   1852057   1849177   1845775   1842465  
  9520.000000   1839870   1838418   1838112   1838501   1838787  
  9510.000000   1838117   1835898   1832030   1826966   1821574  
  9500.000000   1816853   1813638   1812322   1812809   1814556  
  9490.000000   1816838   1818975   1820536   1821397   1821653  
  9480.000000   1821533   1821206   1820782   1820195   1819306  
  9470.000000   1817859   1815650   1812569   1808764   1804671  
  9460.000000   1800960   1798414   1797647   1798965   1802159  
  9450.000000   1806595   1811317   1815351   1817954   1818825  
  9440.000000   1818133   1816381   1814192   1812058   1810228  
  9430.000000   1808677   1807229   1805656   1803801   1801613  
  9420.000000   1799137   1796496   1793803   1791191   1788743  
  9410.000000   1786568   1784743   1783318   1782298   1781600  
  9400.000000   1781140   1780813   1780593   1780448   1780348  
  9390.000000   1780167   1779729   1778847   1777468   1775733  
  9380.000000   1774047   1772962   1773039   1774591   1777520  
  9370.000000   1781264   1784958   1787733   1789021   1788753  
  9360.000000   1787335   1785494   1783987   1783371   1783827  
  9350.000000   1785175   1786988   1788781   1790146   1790837  
  9340.000000   1790715   1789756   1787955   1785428   1782377  
  9330.000000   1779173   1776249   1774006   1772654   1772126  
  9320.000000   1772072   1771961   1771230   1769497   1766667  
  9310.000000   1762958   1758813   1754733   1751176   1748435  
  9300.000000   1746636   1745711   1745448   1745546   1745697  
  9290.000000   1745649   1745295   1744704   1744151   1744012  
  9280.000000   1744616   1746035   1747992   1749907   1751120  
  9270.000000   1751126   1749835   1747635   1745330   1743817  
  9260.000000   1743726   1745129   1747481   1749824   1751153  
  9250.000000   1750797   1748680   1745356   1741792   1739006  
  9240.000000   1737677   1737979   1739553   1741707   1743653  
  9230.000000   1744784   1744855   1743987   1742565   1741050  
  9220.000000   1739830   1739117   1738909   1739006   1739096  
  9210.000000   1738854   1738084   1736780   1735156   1733592  
  9200.000000   1732503   1732211   1732784   1734027   1735514  
  9190.000000   1736743   1737315   1737094   1736259   1735218  
  9180.000000   1734419   1734170   1734521   1735241   1735926  
  9170.000000   1736149   1735654   1734416   1732655   1730712  
  9160.000000   1728923   1727519   1726569   1726029   1725775  
  9150.000000   1725706   1725763   1725969   1726390   1727101  
  9140.000000   1728120   1729395   1730782   1732065   1732988  
  9130.000000   1733301   1732868   1731676   1729917   1727897  
  9120.000000   1726000   1724529   1723610   1723163   1722924  
  9110.000000   1722609   1722023   1721232   1720528   1720370  
  9100.000000   1721141   1723017   1725810   1728980   1731771  
  9090.000000   1733435   1733521   1731943   1729032   1725345  
  9080.000000   1721542   1718140   1715406   1713343   1711793  
  9070.000000   1710566   1709552   1708783   1708392   1708573  
  9060.000000   1709430   1710950   1712925   1715051   1716998  
  9050.000000   1718517   1719532   1720115   1720492   1720888  
  9040.000000   1721446   1722118   1722668   1722755   1722046  
  9030.000000   1720390   1717884   1714928   1712108   1710027  
  9020.000000   1709083   1709350   1710528   1712021   1713112  
  9010.000000   1713198   1711996   1709611   1706481   1703246  
  9000.000000   1700572   1698966   1698674   1699641   1701609  
  8990.000000   1704151   1706805   1709125   1710756   1711482  
  8980.000000   1711232   1710129   1708482   1706755   1705496  
  8970.000000   1705163   1706034   1708055   1710843   1713729  
  8960.000000   1715924   1716774   1715947   1713579   1710218  
  8950.000000   1706727   1704003   1702753   1703246   1705288  
  8940.000000   1708302   1711512   1714168   1715717   1715930  
  8930.000000   1714874   1712830   1710145   1707165   1704168  
  8920.000000   1701419   1699150   1697606   1696991   1697412  
  8910.000000   1698836   1701004   1703552   1706044   1708170  
  8900.000000   1709785   1710962   1711923   1712883   1713948  
  8890.000000   1715001   1715776   1715920   1715194   1713547  
  8880.000000   1711201   1708557   1706066   1704093   1702793  
  8870.000000   1702121   1701854   1701768   1701715   1701715  
  8860.000000   1701895   1702432   1703442   1704904   1706646  
  8850.000000   1708366   1709765   1710587   1710749   1710289  
  8840.000000   1709396   1708309   1707280   1706521   1706168  
  8830.000000   1706303   1706924   1707987   1709389   1710992  
  8820.000000   1712642   1714176   1715458   1716366   1716832  
  8810.000000   1716809   1716308   1715366   1714090   1712645  
  8800.000000   1711278   1710290   1709979   1710585   1712179  
  8790.000000   1714663   1717723   1720931   1723818   1726016  
  8780.000000   1727358   1727887   1727834   1727485   1727102  
  8770.000000   1726790   1726518   1726127   1725463   1724464  
  8760.000000   1723223   1721981   1721037   1720672   1721024  
  8750.000000   1722087   1723690   1725599   1727576   1729446  
  8740.000000   1731116   1732538   1733687   1734524   1735029  
  8730.000000   1735198   1735108   1734890   1734729   1734772  
  8720.000000   1735090   1735633   1736250   1736772   1737083  
  8710.000000   1737206   1737274   1737522   1738146   1739259  
  8700.000000   1740812   1742634   1744492   1746165   1747514  
  8690.000000   1748483   1749084   1749330   1749216   1748708  
  8680.000000   1747807   1746577   1745194   1743907   1742983  
  8670.000000   1742614   1742852   1743590   1744609   1745675  
  8660.000000   1746631   1747443   1748200   1749041   1750089  
  8650.000000   1751369   1752818   1754294   1755682   1756922  
  8640.000000   1758070   1759243   1760585   1762176   1764004  
  8630.000000   1765953   1767856   1769556   1770968   1772099  
  8620.000000   1773041   1773932   1774893   1776010   1777290  
  8610.000000   1778710   1780198   1781695   1783135   1784477  
  8600.000000   1785678   1786698   1787488   1787991   1788167  
  8590.000000   1787975   1787414   1786503   1785320   1783980  
  8580.000000   1782632   1781460   1780658   1780416   1780870  
  8570.000000   1782086   1784030   1786569   1789480   1792478  
  8560.000000   1795284   1797652   1799443   1800622   1801293  
  8550.000000   1801636   1801876   1802223   1802835   1803805  
  8540.000000   1805129   1806759   1808592   1810534   1812454  
  8530.000000   1814236   1815745   1816850   1817436   1817434  
  8520.000000   1816867   1815829   1814491   1813036   1811649  
  8510.000000   1810459   1809532   1808896   1808572   1808608  
  8500.000000   1809073   1810051   1811583   1813631   1816047  
  8490.000000   1818598   1821029   1823122   1824774   1825998  
  8480.000000   1826927   1827734   1828570   1829511   1830550  
  8470.000000   1831615   1832615   1833477   1834184   1834743  
  8460.000000   1835168   1835441   1835510   1835316   1834827  
  8450.000000   1834103   1833303   1832697   1832577   1833200  
  8440.000000   1834677   1836954   1839788   1842822   1845647  
  8430.000000   1847924   1849443   1850165   1850203   1849772  
  8420.000000   1849127   1848485   1847987   1847668   1847487  
  8410.000000   1847345   1847121   1846730   1846129   1845353  
  8400.000000   1844474   1843627   1842944   1842564   1842565  
  8390.000000   1842963   1843698   1844649   1845651   1846542  
  8380.000000   1847185   1847506   1847486   1847157   1846578  
  8370.000000   1845815   1844925   1843953   1842944   1841945  
  8360.000000   1841021   1840234   1839625   1839192   1838883  
  8350.000000   1838613   1838280   1837808   1837173   1836423  
  8340.000000   1835661   1835015   1834589   1834438   1834553  
  8330.000000   1834875   1835307   1835747   1836093   1836264  
  8320.000000   1836193   1835826   1835131   1834100   1832776  
  8310.000000   1831233   1829583   1827931   1826362   1824917  
  8300.000000   1823584   1822330   1821124   1819988   1818991  
  8290.000000   1818255   1817898   1817995   1818538   1819410  
  8280.000000   1820404   1821261   1821749   1821713   1821134  
  8270.000000   1820112   1818867   1817660   1816737   1816257  
  8260.000000   1816245   1816605   1817133   1817611   1817834  
  8250.000000   1817708   1817239   1816555   1815823   1815207  
  8240.000000   1814782   1814522   1814306   1813960   1813321  
  8230.000000   1812286   1810842   1809072   1807114   1805128  
  8220.000000   1803239   1801533   1800033   1798733   1797594  
  8210.000000   1796574   1795620   1794686   1793722   1792697  
  8200.000000   1791592   1790418   1789211   1788022   1786901  
  8190.000000   1785876   1784939   1784044   1783131   1782130  
  8180.000000   1781001   1779722   1778308   1776780   1775163  
  8170.000000   1773474   1771719   1769916   1768104   1766367  
  8160.000000   1764811   1763561   1762708   1762286   1762234  
  8150.000000   1762407   1762593   1762557   1762114   1761151  
  8140.000000   1759685   1757818   1755733   1753610   1751602  
  8130.000000   1749791   1748199   1746809   1745598   1744573  
  8120.000000   1743764   1743232   1743009   1743093   1743409  
  8110.000000   1743835   1744221   1744440   1744415   1744126  
  8100.000000   1743617   1742940   1742159   1741297   1740357  
  8090.000000   1739315   1738151   1736857   1735445   1733961  
  8080.000000   1732465   1731051   1729814   1728864   1728283  
  8070.000000   1728108   1728298   1728726   1729195   1729471  
  8060.000000   1729365   1728766   1727705   1726322   1724835  
  8050.000000   1723459   1722341   1721535   1721006   1720686  
  8040.000000   1720514   1720486   1720627   1720965   1721460  
  8030.000000   1721983   1722314   1722208   1721481   1720081  
  8020.000000   1718134   1715894   1713682   1711761   1710272  
  8010.000000   1709191   1708365   1707599   1706727   1705700  
  8000.000000   1704579   1703526   1702721   1702306   1702336  
  7990.000000   1702754   1703429   1704157   1704745   1704996  
  7980.000000   1704790   1704058   1702835   1701237   1699469  
  7970.000000   1697795   1696478   1695736   1695677   1696283  
  7960.000000   1697398   1698783   1700159   1701273   1701946  
  7950.000000   1702087   1701699   1700840   1699626   1698177  
  7940.000000   1696642   1695165   1693899   1692978   1692500  
  7930.000000   1692510   1692965   1693769   1694758   1695777  
  7920.000000   1696689   1697426   1697984   1698413   1698783  
  7910.000000   1699141   1699495   1699792   1699954   1699889  
  7900.000000   1699548   1698931   1698105   1697181   1696282  
  7890.000000   1695512   1694928   1694539   1694311   1694194  
  7880.000000   1694143   1694134   1694162   1694242   1694381  
  7870.000000   1694577   1694809   1695043   1695248   1695399  
  7860.000000   1695493   1695533   1695531   1695487   1695392  
  7850.000000   1695226   1694969   1694616   1694187   1693733  
  7840.000000   1693322   1693030   1692910   1692985   1693224  
  7830.000000   1693562   1693903   1694165   1694289   1694273  
  7820.000000   1694165   1694048   1694007   1694098   1694312  
  7810.000000   1694581   1694788   1694805   1694539   1693961  
  7800.000000   1693122   1692125   1691094   1690125   1689252  
  7790.000000   1688451   1687658   1686815   1685907   1684985  
  7780.000000   1684153   1683537   1683232   1683265   1683578  
  7770.000000   1684042   1684501   1684818   1684922   1684820  
  7760.000000   1684591   1684354   1684223   1684275   1684534  
  7750.000000   1684966   1685501   1686046   1686509   1686805  
  7740.000000   1686864   1686636   1686089   1685229   1684100  
  7730.000000   1682795   1681442   1680178   1679121   1678332  
  7720.000000   1677801   1677445   1677135   1676744   1676183  
  7710.000000   1675438   1674569   1673690   1672939   1672423  
  7700.000000   1672205   1672277   1672585   1673037   1673538  
  7690.000000   1674002   1674363   1674579   1674634   1674535  
  7680.000000   1674320   1674045   1673782   1673594   1673515  
  7670.000000   1673536   1673599   1673625   1673538   1673303  
  7660.000000   1672941   1672521   1672130   1671827   1671615  
  7650.000000   1671435   1671192   1670802   1670242   1669570  
  7640.000000   1668915   1668438   1668267   1668455   1668954  
  7630.000000   1669635   1670332   1670894   1671230   1671313  
  7620.000000   1671176   1670879   1670486   1670056   1669639  
  7610.000000   1669287   1669054   1668990   1669121   1669437  
  7600.000000   1669883   1670374   1670818   1671140   1671303  
  7590.000000   1671308   1671187   1670988   1670764   1670564  
  7580.000000   1670444   1670466   1670695   1671176   1671920  
  7570.000000   1672872   1673916   1674893   1675645   1676065  
  7560.000000   1676128   1675890   1675475   1675026   1674679  
  7550.000000   1674521   1674597   1674899   1675397   1676041  
  7540.000000   1676768   1677508   1678184   1678729   1679105  
  7530.000000   1679320   1679441   1679569   1679821   1680272  
  7520.000000   1680950   1681805   1682746   1683663   1684475  
  7510.000000   1685151   1685716   1686229   1686762   1687372  
  7500.000000   1688094   1688931   1689874   1690896   1691969  
  7490.000000   1693054   1694113   1695104   1696003   1696805  
  7480.000000   1697542   1698263   1699027   1699874   1700817  
  7470.000000   1701830   1702875   1703910   1704919   1705912  
  7460.000000   1706921   1707979   1709105   1710289   1711509  
  7450.000000   1712734   1713953   1715174   1716429   1717748  
  7440.000000   1719153   1720637   1722176   1723734   1725283  
  7430.000000   1726800   1728281   1729715   1731096   1732398  
  7420.000000   1733606   1734714   1735749   1736765   1737840  
  7410.000000   1739050   1740449   1742060   1743871   1745854  
  7400.000000   1747969   1750184   1752470   1754797   1757118  
  7390.000000   1759371   1761484   1763388   1765040   1766421  
  7380.000000   1767554   1768485   1769286   1770030   1770789  
  7370.000000   1771635   1772625   1773805   1775183   1776744  
  7360.000000   1778427   1780172   1781914   1783623   1785307  
  7350.000000   1786997   1788722   1790467   1792167   1793704  
  7340.000000   1794962   1795863   1796422   1796740   1796994  
  7330.000000   1797376   1798033   1799030   1800338   1801867  
  7320.000000   1803502   1805162   1806811   1808460   1810139  
  7310.000000   1811864   1813624   1815375   1817069   1818665  
  7300.000000   1820161   1821572   1822931   1824255   1825538  
  7290.000000   1826756   1827874   1828877   1829775   1830613  
  7280.000000   1831448   1832334   1833300   1834348   1835452  
  7270.000000   1836575   1837685   1838760   1839805   1840830  
  7260.000000   1841860   1842907   1843988   1845108   1846278  
  7250.000000   1847499   1848794   1850179   1851688   1853349  
  7240.000000   1855191   1857214   1859402   1861692   1864012  
  7230.000000   1866270   1868412   1870412   1872318   1874200  
  7220.000000   1876168   1878292   1880620   1883122   1885744  
  7210.000000   1888402   1891046   1893662   1896299   1899028  
  7200.000000   1901932   1905056   1908403   1911921   1915536  
  7190.000000   1919160   1922735   1926218   1929613   1932928  
  7180.000000   1936195   1939430   1942654   1945867   1949080  
  7170.000000   1952284   1955492   1958704   1961942   1965222  
  7160.000000   1968577   1972027   1975602   1979310   1983167  
  7150.000000   1987173   1991347   1995702   2000270   2005062  
  7140.000000   2010079   2015275   2020587   2025921   2031209  
  7130.000000   2036398   2041505   2046566   2051658   2056825  
  7120.000000   2062091   2067410   2072722   2077945   2083044  
  7110.000000   2088020   2092933   2097865   2102901   2108089  
  7100.000000   2113446   2118949   2124567   2130262   2136015  
  7090.000000   2141804   2147607   2153386   2159098   2164701  
  7080.000000   2170181   2175556   2180885   2186239   2191691  
  7070.000000   2197270   2202973   2208748   2214527   2220243  
  7060.000000   2225854   2231350   2236752   2242105   2247464  
  7050.000000   2252887   2258419   2264087   2269883   2275768  
  7040.000000   2281666   2287489   2293153   2298609   2303852  
  7030.000000   2308928   2313908   2318866   2323842   2328837  
  7020.000000   2333804   2338684   2343420   2347992   2352408  
  7010.000000   2356714   2360951   2365163   2369362   2373559  
  7000.000000   2377743   2381923   2386094   2390266   2394422  
  6990.000000   2398543   2402583   2406508   2410284   2413907  
  6980.000000   2417380   2420725   2423953   2427076   2430094  
  6970.000000   2433021   2435876   2438708   2441553   2444452  
  6960.000000   2447399   2450369   2453297   2456126   2458806  
  6950.000000   2461327   2463699   2465951   2468097   2470140  
  6940.000000   2472055   2473830   2475459   2476984   2478460  
  6930.000000   2479973   2481583   2483333   2485207   2487170  
  6920.000000   2489152   2491092   2492928   2494620   2496134  
  6910.000000   2497459   2498593   2499564   2500418   2501225  
  6900.000000   2502049   2502943   2503922   2504971   2506042  
  6890.000000   2507096   2508102   2509069   2510022   2510998  
  6880.000000   2512013   2513059   2514102   2515099   2516019  
  6870.000000   2516857   2517630   2518373   2519118   2519882  
  6860.000000   2520671   2521486   2522335   2523235   2524206  
  6850.000000   2525255   2526359   2527467   2528504   2529404  
  6840.000000   2530133   2530705   2531173   2531617   2532101  
  6830.000000   2532663   2533295   2533969   2534639   2535279  
  6820.000000   2535871   2536416   2536906   2537327   2537649  
  6810.000000   2537846   2537904   2537842   2537703   2537547  
  6800.000000   2537421   2537357   2537354   2537402   2537484  
  6790.000000   2537604   2537770   2537998   2538286   2538603  
  6780.000000   2538888   2539065   2539068   2538862   2538457  
  6770.000000   2537904   2537282   2536673   2536148   2535756  
  6760.000000   2535521   2535449   2535522   2535704   2535946  
  6750.000000   2536188   2536376   2536480   2536501   2536477  
  6740.000000   2536465   2536522   2536684   2536946   2537272  
  6730.000000   2537607   2537899   2538120   2538268   2538358  
  6720.000000   2538409   2538427   2538405   2538334   2538211  
  6710.000000   2538057   2537910   2537820   2537821   2537927  
  6700.000000   2538118   2538360   2538603   2538817   2538979  
  6690.000000   2539084   2539124   2539091   2538963   2538727  
  6680.000000   2538375   2537926   2537412   2536876   2536341  
  6670.000000   2535819   2535286   2534713   2534067   2533340  
  6660.000000   2532539   2531691   2530817   2529929   2529015  
  6650.000000   2528056   2527031   2525941   2524803   2523656  
  6640.000000   2522534   2521468   2520460   2519505   2518582  
  6630.000000   2517677   2516780   2515886   2514987   2514064  
  6620.000000   2513088   2512029   2510866   2509599   2508249  
  6610.000000   2506852   2505445   2504053   2502681   2501321  
  6600.000000   2499957   2498584   2497203   2495832   2494478  
  6590.000000   2493148   2491829   2490507   2489163   2487793  
  6580.000000   2486402   2485004   2483611   2482220   2480814  
  6570.000000   2479369   2477865   2476303   2474707   2473122  
  6560.000000   2471597   2470165   2468831   2467575   2466352  
  6550.000000   2465120   2463850   2462535   2461195   2459855  
  6540.000000   2458542   2457264   2456012   2454760   2453481  
  6530.000000   2452150   2450762   2449326   2447869   2446421  
  6520.000000   2445015   2443674   2442411   2441228   2440117  
  6510.000000   2439062   2438041   2437029   2435997   2434919  
  6500.000000   2433772   2432546   2431244   2429888   2428515  
  6490.000000   2427167   2425876   2424659   2423499   2422360  
  6480.000000   2421184   2419926   2418561   2417100   2415587  
  6470.000000   2414082   2412642   2411292   2410026   2408801  
  6460.000000   2407563   2406262   2404876   2403410   2401901  
  6450.000000   2400393   2398934   2397554   2396274   2395100  
  6440.000000   2394036   2393077   2392219   2391439   2390711  
  6430.000000   2389991   2389241   2388429   2387549   2386615  
  6420.000000   2385673   2384773   2383975   2383317   2382827  
  6410.000000   2382502   2382318   2382228   2382171   2382076  
  6400.000000   2381885   2381558   2381097   2380536   2379946  
  6390.000000   2379409   2378994   2378740   2378642   2378660  
  6380.000000   2378735   2378816   2378871   2378900   2378919  
  6370.000000   2378951   2378999   2379047   2379054   2378974  
  6360.000000   2378774   2378447   2378013   2377518   2377006  
  6350.000000   2376521   2376077   2375675   2375289   2374888  
  6340.000000   2374427   2373871   2373188   2372371   2371426  
  6330.000000   2370392   2369315   2368259   2367271   2366383  
  6320.000000   2365591   2364871   2364173   2363454   2362676  
  6310.000000   2361831   2360926   2359988   2359042   2358110  
  6300.000000   2357198   2356304   2355411   2354496   2353528  
  6290.000000   2352484   2351342   2350104   2348788   2347439  
  6280.000000   2346110   2344854   2343699   2342648   2341664  
  6270.000000   2340699   2339698   2338633   2337501   2336330  
  6260.000000   2335153   2333995   2332853   2331700   2330495  
  6250.000000   2329202   2327810   2326340   2324836   2323347  
  6240.000000   2321912   2320545   2319235   2317963   2316710  
  6230.000000   2315470   2314252   2313072   2311939   2310854  
  6220.000000   2309804   2308768   2307729   2306676   2305613  
  6210.000000   2304544   2303476   2302404   2301319   2300208  
  6200.000000   2299066   2297903   2296740   2295612   2294552  
  6190.000000   2293585   2292720   2291949   2291251   2290594  
  6180.000000   2289944   2289269   2288543   2287754   2286902  
  6170.000000   2286005   2285093   2284203   2283364   2282597  
  6160.000000   2281899   2281254   2280630   2279994   2279317  
  6150.000000   2278583   2277784   2276924   2276015   2275070  
  6140.000000   2274110   2273154   2272226   2271340   2270508  
  6130.000000   2269725   2268978   2268249   2267526   2266803  
  6120.000000   2266093   2265416   2264796   2264253   2263796  
  6110.000000   2263421   2263120   2262874   2262672   2262494  
  6100.000000   2262331   2262162   2261976   2261755   2261504  
  6090.000000   2261224   2260943   2260679   2260457   2260282  
  6080.000000   2260159   2260074   2260031   2260029   2260091  
  6070.000000   2260238   2260496   2260871   2261366   2261957  
  6060.000000   2262637   2263383   2264204   2265097   2266079  
  6050.000000   2267140   2268280   2269474   2270721   2272013  
  6040.000000   2273378   2274837   2276433   2278176   2280074  
  6030.000000   2282097   2284221   2286405   2288634   2290889  
  6020.000000   2293175   2295482   2297810   2300134   2302449  
  6010.000000   2304743   2307033   2309338   2311697   2314130  
  6000.000000   2316653   2319253   2321917   2324620   2327362  
  5990.000000   2330144   2332998   2335944   2339008   2342189  
  5980.000000   2345482   2348858   2352300   2355782   2359300  
  5970.000000   2362843   2366418   2370018   2373652   2377316  
  5960.000000   2381023   2384774   2388581   2392437   2396339  
  5950.000000   2400267   2404213   2408173   2412163   2416211  
  5940.000000   2420353   2424623   2429034   2433581   2438235  
  5930.000000   2442952   2447673   2452344   2456904   2461301  
  5920.000000   2465486   2469423   2473094   2476510   2479700  
  5910.000000   2482723   2485629   2488470   2491267   2494032  
  5900.000000   2496749   2499422   2502051   2504670   2507306  
  5890.000000   2510004   2512773   2515618   2518501   2521385  
  5880.000000   2524216   2526952   2529547   2531968   2534183  
  5870.000000   2536169   2537918   2539451   2540816   2542090  
  5860.000000   2543362   2544713   2546196   2547832   2549608  
  5850.000000   2551495   2553457   2555474   2557533   2559630  
  5840.000000   2561760   2563912   2566071   2568221   2570360  
  5830.000000   2572492   2574641   2576820   2579041   2581293  
  5820.000000   2583563   2585823   2588064   2590284   2592496  
  5810.000000   2594720   2596963   2599232   2601510   2603799  
  5800.000000   2606087   2608407   2610769   2613219   2615747  
  5790.000000   2618346   2620936   2623437   2625709   2627638  
  5780.000000   2629085   2629959   2630174   2629714   2628594  
  5770.000000   2626908   2624779   2622385   2619880   2617417  
  5760.000000   2615068   2612878   2610817   2608864   2606978  
  5750.000000   2605169   2603444   2601844   2600379   2599048  
  5740.000000   2597813   2596619   2595414   2594154   2592831  
  5730.000000   2591447   2590033   2588612   2587212   2585846  
  5720.000000   2584529   2583268   2582067   2580920   2579817  
  5710.000000   2578736   2577664   2576588   2575521   2574483  
  5700.000000   2573505   2572613   2571810   2571085   2570404  
  5690.000000   2569743   2569077   2568413   2567759   2567140  
  5680.000000   2566548   2565968   2565341   2564609   2563701  
  5670.000000   2562568   2561175   2559515   2557589   2555418  
  5660.000000   2553023   2550448   2547741   2544978   2542226  
  5650.000000   2539557   2537012   2534614   2532350   2530201  
  5640.000000   2528136   2526131   2524171   2522246   2520349  
  5630.000000   2518472   2516615   2514777   2512979   2511244  
  5620.000000   2509607   2508087   2506698   2505421   2504233  
  5610.000000   2503097   2501990   2500896   2499821   2498767  
  5600.000000   2497745   2496754   2495792   2494853   2493942  
  5590.000000   2493070   2492256   2491514   2490849   2490247  
  5580.000000   2489684   2489129   2488552   2487937   2487275  
  5570.000000   2486566   2485813   2485016   2484177   2483300  
  5560.000000   2482396   2481481   2480569   2479667   2478768  
  5550.000000   2477855   2476906   2475907   2474861   2473789  
  5540.000000   2472720   2471685   2470699   2469761   2468856  
  5530.000000   2467969   2467087   2466213   2465353   2464518  
  5520.000000   2463706   2462907   2462101   2461273   2460415  
  5510.000000   2459533   2458638   2457742   2456840   2455919  
  5500.000000   2454955   2453930   2452837   2451690   2450509  
  5490.000000   2449315   2448109   2446881   2445601   2444250  
  5480.000000   2442817   2441320   2439792   2438274   2436792  
  5470.000000   2435357   2433955   2432566   2431166   2429746  
  5460.000000   2428301   2426834   2425339   2423799   2422196  
  5450.000000   2420515   2418759   2416954   2415144   2413378  
  5440.000000   2411695   2410116   2408643   2407264   2405968  
  5430.000000   2404738   2403568   2402437   2401329   2400210  
  5420.000000   2399070   2397900   2396735   2395620   2394625  
  5410.000000   2393793   2393159   2392702   2392403   2392220  
  5400.000000   2392144   2392166   2392310   2392572   2392961  
  5390.000000   2393439   2393993   2394592   2395264   2396037  
  5380.000000   2396989   2398158   2399591   2401253   2403117  
  5370.000000   2405102   2407185   2409322   2411552   2413879  
  5360.000000   2416370   2419027   2421907   2425001   2428381  
  5350.000000   2432060   2436139   2440630   2445608   2451030  
  5340.000000   2456914   2463177   2469845   2476860   2484294  
  5330.000000   2492116   2500407   2509123   2518330   2527978  
  5320.000000   2538159   2548859   2560213   2572218   2584999  
  5310.000000   2598507   2612810   2627809   2643554   2659966  
  5300.000000   2677135   2695035   2713795   2733408   2753986  
  5290.000000   2775473   2797895   2821107   2845042   2869511  
  5280.000000   2894457   2919779   2945543   2971787   2998659  
  5270.000000   3026205   3054455   3083281   3112497   3141856  
  5260.000000   3171155   3200280   3229217   3258046   3286822  
  5250.000000   3315585   3344222   3372593   3400432   3427592  
  5240.000000   3453905   3479421   3504158   3528300   3551888  
  5230.000000   3575041   3597667   3619746   3641079   3661621  
  5220.000000   3681227   3699971   3717840   3735024   3751570  
  5210.000000   3767651   3783230   3798349   3812837   3826653  
  5200.000000   3839618   3851767   3863040   3873582   3883405  
  5190.000000   3892652   3901284   3909367   3916805   3923640  
  5180.000000   3929797   3935359   3940290   3944684   3948494  
  5170.000000   3951785   3954499   3956704   3958370   3959591  
  5160.000000   3960346   3960704   3960603   3960068   3959024  
  5150.000000   3957514   3955524   3953150   3950418   3947419  
  5140.000000   3944140   3940614   3936788   3932683   3928277  
  5130.000000   3923634   3918774   3913772   3908637   3903406  
  5120.000000   3898058   3892611   3887054   3881421   3875723  
  5110.000000   3869993   3864226   3858426   3852572   3846666  
  5100.000000   3840713   3834751   3828817   3822962   3817211  
  5090.000000   3811581   3806058   3800629   3795268   3789964  
  5080.000000   3784698   3779462   3774232   3768989   3763699  
  5070.000000   3758343   3752898   3747368   3741750   3736062  
  5060.000000   3730299   3724467   3718547   3712533   3706402  
  5050.000000   3700157   3693786   3687304   3680713   3674033  
  5040.000000   3667273   3660461   3653610   3646742   3639863  
  5030.000000   3632980   3626082   3619166   3612228   3605282  
  5020.000000   3598351   3591471   3584677   3577991   3571422  
  5010.000000   3564957   3558581   3552270   3546026   3539851  
  5000.000000   3533780   3527831   3522045   3516424   3510985  
  4990.000000   3505711   3500613   3495677   3490935   3486379  
  4980.000000   3482044   3477910   3473993   3470254   3466709  
  4970.000000   3463328   3460155   3457189   3454496   3452080  
  4960.000000   3450000   3448241   3446840   3445765   3445051  
  4950.000000   3444666   3444652   3444975   3445676   3446712  
  4940.000000   3448118   3449852   3451954   3454389   3457207  
  4930.000000   3460376   3463947   3467884   3472230   3476951  
  4920.000000   3482085   3487597   3493521   3499816   3506501  
  4910.000000   3513530   3520911   3528604   3536613   3544901  
  4900.000000   3553459   3562242   3571211   3580311   3589482  
  4890.000000   3598672   3607822   3616893   3625819   3634566  
  4880.000000   3643049   3651229   3659009   3666358   3673190  
  4870.000000   3679497   3685209   3690339   3694825   3698691  
  4860.000000   3701885   3704448   3706351   3707664   3708390  
  4850.000000   3708623   3708389   3707789   3706852   3705666  
  4840.000000   3704249   3702669   3700939   3699116   3697218  
  4830.000000   3695304   3693404   3691576   3689854   3688274  
  4820.000000   3686855   3685600   3684503   3683539   3682692  
  4810.000000   3681934   3681263   3680665   3680162   3679757  
  4800.000000   3679480   3679334   3679341   3679493   3679799  
  4790.000000   3680241   3680823   3681530   3682372   3683339  
  4780.000000   3684440   3685664   3687007   3688442   3689951  
  4770.000000   3691498   3693063   3694618   3696156   3697670  
  4760.000000   3699167   3700648   3702120   3703582   3705036  
  4750.000000   3706481   3707920   3709355   3710791   3712229  
  4740.000000   3713666   3715096   3716508   3717892   3719244  
  4730.000000   3720564   3721863   3723146   3724430   3725713  
  4720.000000   3727007   3728301   3729610   3730935   3732307  
  4710.000000   3733748   3735305   3737006   3738896   3740990  
  4700.000000   3743316   3745870   3748666   3751691   3754948  
  4690.000000   3758419   3762102   3765970   3770014   3774195  
  4680.000000   3778491   3782847   3787229   3791573   3795845  
  4670.000000   3799994   3804017   3807904   3811698   3815439  
  4660.000000   3819203   3823053   3827067   3831297   3835791  
  4650.000000   3840564   3845615   3850917   3856426   3862087  
  4640.000000   3867838   3873630   3879413   3885165   3890856  
  4630.000000   3896476   3901989   3907369   3912556   3917505  
  4620.000000   3922145   3926439   3930334   3933829   3936903  
  4610.000000   3939592   3941906   3943911   3945636   3947164  
  4600.000000   3948524   3949788   3950958   3952069   3953082  
  4590.000000   3953997   3954751   3955329   3955671   3955770  
  4580.000000   3955582   3955112   3954340   3953287   3951955  
  4570.000000   3950391   3948623   3946713   3944693   3942615  
  4560.000000   3940491   3938345   3936164   3933955   3931701  
  4550.000000   3929410   3927075   3924704   3922290   3919836  
  4540.000000   3917331   3914774   3912166   3909520   3906855  
  4530.000000   3904194   3901560   3898961   3896409   3893887  
  4520.000000   3891399   3888923   3886477   3884055   3881703  
  4510.000000   3879430   3877306   3875350   3873653   3872238  
  4500.000000   3871206   3870575   3870441   3870797   3871723  
  4490.000000   3873193   3875282   3877960   3881311   3885313  
  4480.000000   3890050   3895488   3901694   3908608   3916272  
  4470.000000   3924605   3933632   3943264   3953513   3964285  
  4460.000000   3975583   3987315   3999482   4012001   4024873  
  4450.000000   4038028   4051463   4065117   4078980   4093006  
  4440.000000   4107186   4121490   4135903   4150398   4164934  
  4430.000000   4179469   4193927   4208259   4222377   4236255  
  4420.000000   4249823   4263088   4275995   4288554   4300691  
  4410.000000   4312381   4323514   4334044   4343865   4352968  
  4400.000000   4361312   4368969   4375978   4382477   4388550  
  4390.000000   4394351   4399962   4405512   4411052   4416662  
  4380.000000   4422340   4428107   4433912   4439737   4445526  
  4370.000000   4451270   4456949   4462586   4468192   4473797  
  4360.000000   4479399   4485013   4490608   4496193   4501710  
  4350.000000   4507177   4512514   4517752   4522806   4527734  
  4340.000000   4532477   4537096   4541495   4545601   4549110  
  4330.000000   4551663   4552713   4551754   4548333   4542277  
  4320.000000   4533705   4523111   4511228   4498945   4487080  
  4310.000000   4476301   4466979   4459248   4453007   4448057  
  4300.000000   4444162   4441126   4438824   4437158   4436094  
  4290.000000   4435555   4435524   4435913   4436725   4437911  
  4280.000000   4439499   4441469   4443822   4446518   4449498  
  4270.000000   4452695   4456007   4459336   4462517   4465356  
  4260.000000   4467577   4468882   4468957   4467576   4464622  
  4250.000000   4460175   4454462   4447876   4440841   4433812  
  4240.000000   4427123   4421032   4415622   4410907   4406786  
  4230.000000   4403147   4399849   4396772   4393813   4390886  
  4220.000000   4387957   4384994   4382047   4379154   4376440  
  4210.000000   4373984   4371920   4370297   4369181   4368545  
  4200.000000   4368368   4368564   4369074   4369801   4370697  
  4190.000000   4371689   4372763   4373870   4375022   4376189  
  4180.000000   4377403   4378645   4379963   4381350   4382865  
  4170.000000   4384514   4386363   4388424   4390767   4393403  
  4160.000000   4396392   4399732   4403468   4407574   4412080  
  4150.000000   4416948   4422206   4427817   4433824   4440202  
  4140.000000   4447009   4454219   4461886   4469962   4478472  
  4130.000000   4487343   4496584   4506123   4515990   4526159  
  4120.000000   4536705   4547650   4559095   4571077   4583680  
  4110.000000   4596907   4610787   4625263   4640290   4655750  
  4100.000000   4671549   4687549   4703659   4719787   4735898  
  4090.000000   4751975   4768027   4784076   4800126   4816193  
  4080.000000   4832248   4848294   4864277   4880191   4895947  
  4070.000000   4911504   4926722   4941529   4955771   4969406  
  4060.000000   4982330   4994575   5006094   5016959   5027134  
  4050.000000   5036699   5045625   5054013   5061852   5069255  
  4040.000000   5076190   5082727   5088776   5094356   5099362  
  4030.000000   5103828   5107692   5111030   5113825   5116153  
  4020.000000   5117976   5119367   5120332   5120939   5121152  
  4010.000000   5121055   5120685   5119999   5118760   5116970  
  4000.000000   5114899  
##END= 
