##TITLE= Sample 018 By ssteindl date Dienstag, November 20 2018
##JCAMP-DX= 4.24
##DATA TYPE= INFRARED SPECTRUM
##ORIGIN= Exported PE Spectrum Data File
##OWNER= Sandra Steindl
##DATE= 18/11/20
##TIME= 16:25:35.00
##SPECTROMETER/DATA SYSTEM= PERKIN-ELMER Frontier FT-IR/NIR IR
##INSTRUMENT PARAMETERS=
  APODIZATION=stark
  DETECTOR=INGAAS
##RESOLUTION= 16.000000
##DELTAX= -2.000000
##XUNITS= 1/CM
##YUNITS= A
##XFACTOR= 1.00
##YFACTOR= 0.00000011920928955078
##FIRSTX= 10000.00
##LASTX= 4000.00
##NPOINTS= 3001
##FIRSTY= 0.251343
##MAXY= 0.646022
##MINY= 0.199311
##XYDATA= (X++(Y..Y))
 10000.000000   2108419   2103848   2099128   2094156   2089131  
  9990.000000   2084230   2079428   2074743   2070643   2067912  
  9980.000000   2067204   2068667   2071881   2075887   2079501  
  9970.000000   2081634   2081746   2079860   2076569   2072660  
  9960.000000   2068913   2065802   2063480   2061825   2060616  
  9950.000000   2059705   2059087   2058935   2059428   2060702  
  9940.000000   2062614   2064832   2066785   2067904   2067763  
  9930.000000   2066230   2063558   2060238   2056867   2053857  
  9920.000000   2051293   2048855   2046003   2042208   2037303  
  9910.000000   2031603   2025879   2021089   2017972   2016812  
  9900.000000   2017292   2018715   2020311   2021583   2022525  
  9890.000000   2023513   2025093   2027555   2030739   2033981  
  9880.000000   2036366   2037101   2035848   2032901   2029078  
  9870.000000   2025468   2023032   2022343   2023397   2025692  
  9860.000000   2028350   2030355   2030779   2028938   2024608  
  9850.000000   2018033   2009995   2001622   1994194   1988790  
  9840.000000   1986021   1985849   1987660   1990543   1993669  
  9830.000000   1996643   1999536   2002790   2006781   2011575  
  9820.000000   2016749   2021537   2025187   2027248   2027801  
  9810.000000   2027311   2026364   2025305   2024032   2022080  
  9800.000000   2018885   2014202   2008307   2002012   1996296  
  9790.000000   1991919   1989024   1987149   1985459   1983249  
  9780.000000   1980292   1976960   1973998   1972089   1971524  
  9770.000000   1972020   1972941   1973592   1973614   1973095  
  9760.000000   1972489   1972312   1972840   1973966   1975312  
  9750.000000   1976475   1977334   1978085   1979137   1980717  
  9740.000000   1982627   1984135   1984243   1982158   1977718  
  9730.000000   1971651   1965346   1960438   1958146   1958892  
  9720.000000   1962142   1966714   1971187   1974412   1975743  
  9710.000000   1975085   1972710   1969034   1964498   1959534  
  9700.000000   1954637   1950359   1947214   1945485   1945047  
  9690.000000   1945365   1945650   1945220   1943757   1941490  
  9680.000000   1939021   1937041   1935945   1935605   1935450  
  9670.000000   1934707   1932856   1929844   1926184   1922664  
  9660.000000   1920024   1918597   1918202   1918273   1918157  
  9650.000000   1917442   1916118   1914558   1913279   1912714  
  9640.000000   1912993   1913974   1915339   1916753   1918019  
  9630.000000   1918992   1919628   1919760   1919198   1917676  
  9620.000000   1915024   1911262   1906659   1901740   1897186  
  9610.000000   1893734   1892045   1892622   1895677   1901079  
  9600.000000   1908201   1915962   1922929   1927673   1929222  
  9590.000000   1927410   1923046   1917642   1912945   1910268  
  9580.000000   1910071   1911811   1914251   1916021   1916143  
  9570.000000   1914461   1911495   1908242   1905553   1903906  
  9560.000000   1903200   1902996   1902840   1902478   1901968  
  9550.000000   1901412   1900740   1899527   1897128   1893024  
  9540.000000   1887202   1880380   1873872   1869180   1867427  
  9530.000000   1868905   1872909   1878013   1882571   1885366  
  9520.000000   1885950   1884710   1882519   1880289   1878599  
  9510.000000   1877542   1876880   1876235   1875357   1874125  
  9500.000000   1872551   1870591   1868126   1864977   1861054  
  9490.000000   1856516   1851828   1847658   1844665   1843210  
  9480.000000   1843245   1844338   1845899   1847463   1848853  
  9470.000000   1850233   1851899   1854098   1856807   1859741  
  9460.000000   1862490   1864688   1866202   1867069   1867461  
  9450.000000   1867417   1866825   1865364   1862709   1858708  
  9440.000000   1853563   1847882   1842519   1838361   1835992  
  9430.000000   1835629   1837024   1839734   1843174   1846882  
  9420.000000   1850463   1853660   1856252   1858057   1858944  
  9410.000000   1858815   1857709   1855678   1852885   1849407  
  9400.000000   1845305   1840553   1835140   1829202   1823054  
  9390.000000   1817302   1812638   1809763   1809112   1810781  
  9380.000000   1814445   1819421   1824766   1829414   1832419  
  9370.000000   1833118   1831380   1827579   1822599   1817561  
  9360.000000   1813595   1811516   1811590   1813479   1816329  
  9350.000000   1819129   1821022   1821601   1820940   1819463  
  9340.000000   1817722   1816098   1814699   1813261   1811378  
  9330.000000   1808662   1805071   1800932   1796916   1793822  
  9320.000000   1792322   1792838   1795358   1799553   1804764  
  9310.000000   1810255   1815330   1819478   1822464   1824297  
  9300.000000   1825205   1825456   1825236   1824541   1823187  
  9290.000000   1820940   1817665   1813510   1808915   1804610  
  9280.000000   1801326   1799583   1799362   1800126   1800928  
  9270.000000   1800770   1798940   1795244   1790075   1784244  
  9260.000000   1778702   1774209   1771132   1769441   1768843  
  9250.000000   1768995   1769633   1770621   1771890   1773319  
  9240.000000   1774681   1775625   1775833   1775061   1773317  
  9230.000000   1770763   1767749   1764602   1761611   1758952  
  9220.000000   1756768   1755235   1754580   1755038   1756716  
  9210.000000   1759503   1763032   1766736   1769999   1772319  
  9200.000000   1773449   1773465   1772688   1771567   1770504  
  9190.000000   1769826   1769742   1770378   1771740   1773708  
  9180.000000   1775992   1778140   1779550   1779582   1777728  
  9170.000000   1773843   1768246   1761682   1755103   1749471  
  9160.000000   1745509   1743549   1743449   1744719   1746717  
  9150.000000   1748836   1750611   1751720   1751987   1751328  
  9140.000000   1749792   1747507   1744749   1741911   1739516  
  9130.000000   1738051   1737844   1738963   1741190   1744103  
  9120.000000   1747149   1749811   1751719   1752705   1752786  
  9110.000000   1752057   1750639   1748621   1746121   1743277  
  9100.000000   1740323   1737561   1735358   1734038   1733748  
  9090.000000   1734430   1735766   1737312   1738573   1739218  
  9080.000000   1739171   1738645   1738057   1737844   1738326  
  9070.000000   1739519   1741161   1742750   1743778   1743853  
  9060.000000   1742847   1740939   1738525   1736115   1734124  
  9050.000000   1732848   1732406   1732781   1733838   1735370  
  9040.000000   1737121   1738753   1739849   1739978   1738827  
  9030.000000   1736301   1732626   1728323   1724156   1720879  
  9020.000000   1719037   1718799   1719922   1721883   1724006  
  9010.000000   1725759   1726840   1727314   1727480   1727758  
  9000.000000   1728488   1729796   1731553   1733365   1734726  
  8990.000000   1735114   1734192   1731847   1728269   1723899  
  8980.000000   1719343   1715231   1712052   1710075   1709289  
  8970.000000   1709462   1710209   1711157   1712030   1712744  
  8960.000000   1713354   1713996   1714777   1715706   1716693  
  8950.000000   1717547   1718096   1718209   1717895   1717226  
  8940.000000   1716347   1715372   1714389   1713429   1712491  
  8930.000000   1711588   1710754   1710061   1709571   1709354  
  8920.000000   1709450   1709898   1710713   1711912   1713477  
  8910.000000   1715325   1717273   1719045   1720339   1720893  
  8900.000000   1720592   1719502   1717905   1716178   1714706  
  8890.000000   1713717   1713255   1713161   1713174   1713046  
  8880.000000   1712639   1711991   1711282   1710787   1710764  
  8870.000000   1711380   1712658   1714488   1716669   1718962  
  8860.000000   1721142   1723020   1724469   1725438   1725943  
  8850.000000   1726078   1725980   1725809   1725704   1725736  
  8840.000000   1725897   1726085   1726152   1725940   1725343  
  8830.000000   1724340   1722995   1721447   1719862   1718421  
  8820.000000   1717275   1716561   1716379   1716808   1717879  
  8810.000000   1719546   1721661   1723962   1726123   1727797  
  8800.000000   1728735   1728810   1728108   1726870   1725484  
  8790.000000   1724330   1723715   1723775   1724475   1725651  
  8780.000000   1727088   1728609   1730129   1731666   1733278  
  8770.000000   1735009   1736815   1738562   1740052   1741105  
  8760.000000   1741638   1741718   1741564   1741471   1741705  
  8750.000000   1742402   1743506   1744788   1745913   1746560  
  8740.000000   1746532   1745809   1744556   1743050   1741612  
  8730.000000   1740504   1739898   1739835   1740271   1741100  
  8720.000000   1742207   1743485   1744848   1746253   1747688  
  8710.000000   1749198   1750847   1752708   1754830   1757194  
  8700.000000   1759705   1762173   1764375   1766064   1767065  
  8690.000000   1767291   1766781   1765683   1764219   1762650  
  8680.000000   1761231   1760191   1759693   1759829   1760599  
  8670.000000   1761912   1763591   1765387   1767031   1768278  
  8660.000000   1768987   1769142   1768885   1768457   1768164  
  8650.000000   1768274   1768966   1770290   1772179   1774479  
  8640.000000   1777010   1779608   1782167   1784608   1786866  
  8630.000000   1788851   1790468   1791605   1792209   1792298  
  8620.000000   1792028   1791657   1791503   1791864   1792925  
  8610.000000   1794720   1797103   1799822   1802574   1805110  
  8600.000000   1807275   1809029   1810420   1811528   1812426  
  8590.000000   1813155   1813739   1814216   1814674   1815245  
  8580.000000   1816075   1817271   1818839   1820679   1822576  
  8570.000000   1824290   1825611   1826447   1826839   1826947  
  8560.000000   1826992   1827165   1827571   1828198   1828949  
  8550.000000   1829691   1830327   1830838   1831295   1831827  
  8540.000000   1832558   1833567   1834828   1836231   1837607  
  8530.000000   1838807   1839759   1840506   1841201   1842040  
  8520.000000   1843185   1844678   1846408   1848118   1849497  
  8510.000000   1850277   1850354   1849820   1848950   1848115  
  8500.000000   1847654   1847784   1848524   1849740   1851206  
  8490.000000   1852708   1854110   1855377   1856545   1857657  
  8480.000000   1858716   1859665   1860432   1860958   1861264  
  8470.000000   1861434   1861614   1861935   1862467   1863209  
  8460.000000   1864106   1865119   1866234   1867500   1868974  
  8450.000000   1870672   1872517   1874321   1875842   1876862  
  8440.000000   1877281   1877142   1876628   1875981   1875425  
  8430.000000   1875101   1875044   1875238   1875659   1876333  
  8420.000000   1877300   1878597   1880168   1881861   1883425  
  8410.000000   1884611   1885262   1885388   1885171   1884882  
  8400.000000   1884775   1884965   1885396   1885865   1886134  
  8390.000000   1886044   1885587   1884930   1884306   1883951  
  8380.000000   1883970   1884345   1884930   1885566   1886132  
  8370.000000   1886594   1886978   1887313   1887579   1887670  
  8360.000000   1887424   1886691   1885412   1883660   1881648  
  8350.000000   1879657   1877959   1876752   1876096   1875946  
  8340.000000   1876148   1876535   1876944   1877278   1877484  
  8330.000000   1877567   1877559   1877496   1877399   1877242  
  8320.000000   1876970   1876481   1875687   1874525   1873015  
  8310.000000   1871267   1869468   1867847   1866585   1865800  
  8300.000000   1865482   1865551   1865862   1866289   1866737  
  8290.000000   1867156   1867515   1867758   1867804   1867522  
  8280.000000   1866803   1865589   1863938   1862018   1860074  
  8270.000000   1858375   1857132   1856476   1856409   1856839  
  8260.000000   1857582   1858432   1859158   1859567   1859496  
  8250.000000   1858870   1857704   1856133   1854372   1852667  
  8240.000000   1851221   1850123   1849317   1848620   1847777  
  8230.000000   1846557   1844821   1842594   1840028   1837378  
  8220.000000   1834892   1832770   1831105   1829890   1829034  
  8210.000000   1828401   1827833   1827191   1826359   1825269  
  8200.000000   1823898   1822278   1820490   1818644   1816851  
  8190.000000   1815185   1813666   1812247   1810848   1809379  
  8180.000000   1807786   1806065   1804259   1802445   1800698  
  8170.000000   1799074   1797598   1796266   1795048   1793919  
  8160.000000   1792845   1791818   1790830   1789899   1789045  
  8150.000000   1788298   1787674   1787156   1786683   1786128  
  8140.000000   1785342   1784165   1782502   1780340   1777779  
  8130.000000   1774996   1772207   1769611   1767343   1765465  
  8120.000000   1763972   1762828   1761980   1761376   1760952  
  8110.000000   1760626   1760296   1759850   1759205   1758322  
  8100.000000   1757242   1756049   1754859   1753757   1752775  
  8090.000000   1751887   1751034   1750175   1749315   1748517  
  8080.000000   1747871   1747440   1747228   1747139   1747016  
  8070.000000   1746669   1745955   1744808   1743267   1741462  
  8060.000000   1739578   1737831   1736415   1735497   1735174  
  8050.000000   1735465   1736270   1737375   1738465   1739183  
  8040.000000   1739220   1738396   1736731   1734435   1731865  
  8030.000000   1729404   1727362   1725886   1724950   1724397  
  8020.000000   1724022   1723660   1723232   1722754   1722288  
  8010.000000   1721898   1721605   1721372   1721131   1720805  
  8000.000000   1720354   1719771   1719094   1718371   1717658  
  7990.000000   1717000   1716432   1715976   1715636   1715392  
  7980.000000   1715187   1714929   1714520   1713882   1712998  
  7970.000000   1711928   1710794   1709740   1708881   1708254  
  7960.000000   1707822   1707486   1707146   1706742   1706285  
  7950.000000   1705842   1705496   1705300   1705248   1705276  
  7940.000000   1705303   1705267   1705167   1705052   1705002  
  7930.000000   1705065   1705232   1705421   1705519   1705423  
  7920.000000   1705108   1704633   1704135   1703763   1703628  
  7910.000000   1703752   1704063   1704432   1704730   1704880  
  7900.000000   1704884   1704817   1704785   1704885   1705157  
  7890.000000   1705584   1706099   1706614   1707055   1707366  
  7880.000000   1707525   1707524   1707369   1707079   1706686  
  7870.000000   1706246   1705833   1705538   1705429   1705560  
  7860.000000   1705929   1706503   1707215   1707994   1708769  
  7850.000000   1709474   1710046   1710402   1710459   1710128  
  7840.000000   1709362   1708172   1706658   1704997   1703411  
  7830.000000   1702118   1701268   1700929   1701053   1701527  
  7820.000000   1702197   1702928   1703617   1704213   1704689  
  7810.000000   1705024   1705187   1705135   1704835   1704280  
  7800.000000   1703521   1702651   1701795   1701068   1700537  
  7790.000000   1700209   1700016   1699862   1699642   1699289  
  7780.000000   1698780   1698142   1697420   1696660   1695884  
  7770.000000   1695097   1694292   1693482   1692704   1692020  
  7760.000000   1691495   1691169   1691022   1690984   1690936  
  7750.000000   1690751   1690340   1689676   1688812   1687846  
  7740.000000   1686898   1686054   1685345   1684737   1684158  
  7730.000000   1683532   1682819   1682039   1681269   1680616  
  7720.000000   1680177   1680006   1680089   1680349   1680667  
  7710.000000   1680917   1681000   1680860   1680499   1679954  
  7700.000000   1679296   1678591   1677907   1677285   1676756  
  7690.000000   1676333   1676017   1675805   1675686   1675655  
  7680.000000   1675702   1675827   1676030   1676308   1676651  
  7670.000000   1677030   1677404   1677709   1677882   1677856  
  7660.000000   1677589   1677064   1676307   1675381   1674384  
  7650.000000   1673434   1672652   1672134   1671937   1672059  
  7640.000000   1672435   1672948   1673453   1673805   1673907  
  7630.000000   1673727   1673322   1672816   1672370   1672130  
  7620.000000   1672195   1672587   1673252   1674077   1674930  
  7610.000000   1675692   1676284   1676675   1676882   1676942  
  7600.000000   1676901   1676791   1676632   1676431   1676194  
  7590.000000   1675935   1675682   1675475   1675361   1675385  
  7580.000000   1675573   1675932   1676436   1677034   1677656  
  7570.000000   1678221   1678665   1678935   1679024   1678946  
  7560.000000   1678754   1678506   1678268   1678095   1678036  
  7550.000000   1678123   1678382   1678825   1679455   1680256  
  7540.000000   1681198   1682228   1683289   1684318   1685266  
  7530.000000   1686102   1686827   1687461   1688050   1688643  
  7520.000000   1689302   1690074   1690997   1692078   1693292  
  7510.000000   1694574   1695837   1696986   1697950   1698702  
  7500.000000   1699279   1699776   1700324   1701048   1702032  
  7490.000000   1703291   1704784   1706416   1708082   1709682  
  7480.000000   1711157   1712478   1713645   1714667   1715562  
  7470.000000   1716360   1717117   1717911   1718851   1720038  
  7460.000000   1721547   1723383   1725481   1727699   1729872  
  7450.000000   1731846   1733536   1734933   1736115   1737204  
  7440.000000   1738342   1739637   1741151   1742886   1744809  
  7430.000000   1746860   1748980   1751108   1753198   1755212  
  7420.000000   1757122   1758910   1760579   1762145   1763652  
  7410.000000   1765146   1766685   1768303   1770023   1771837  
  7400.000000   1773721   1775634   1777539   1779407   1781233  
  7390.000000   1783037   1784860   1786761   1788795   1791002  
  7380.000000   1793389   1795922   1798528   1801109   1803565  
  7370.000000   1805816   1807815   1809560   1811089   1812473  
  7360.000000   1813792   1815131   1816556   1818113   1819818  
  7350.000000   1821658   1823586   1825539   1827437   1829208  
  7340.000000   1830805   1832214   1833465   1834618   1835753  
  7330.000000   1836949   1838270   1839751   1841390   1843162  
  7320.000000   1845020   1846918   1848812   1850680   1852509  
  7310.000000   1854304   1856075   1857829   1859565   1861261  
  7300.000000   1862887   1864397   1865751   1866921   1867905  
  7290.000000   1868732   1869452   1870134   1870848   1871655  
  7280.000000   1872600   1873708   1874983   1876414   1877973  
  7270.000000   1879619   1881309   1883008   1884701   1886390  
  7260.000000   1888107   1889883   1891754   1893714   1895740  
  7250.000000   1897764   1899725   1901566   1903284   1904918  
  7240.000000   1906560   1908306   1910243   1912401   1914768  
  7230.000000   1917283   1919880   1922494   1925105   1927705  
  7220.000000   1930320   1932964   1935656   1938390   1941173  
  7210.000000   1944007   1946916   1949924   1953063   1956341  
  7200.000000   1959757   1963285   1966903   1970581   1974310  
  7190.000000   1978071   1981853   1985616   1989321   1992913  
  7180.000000   1996363   1999662   2002856   2006011   2009226  
  7170.000000   2012581   2016145   2019942   2023977   2028212  
  7160.000000   2032609   2037100   2041625   2046109   2050506  
  7150.000000   2054772   2058928   2063020   2067156   2071438  
  7140.000000   2075967   2080773   2085841   2091089   2096439  
  7130.000000   2101814   2107205   2112628   2118150   2123813  
  7120.000000   2129653   2135648   2141766   2147949   2154175  
  7110.000000   2160430   2166737   2173104   2179538   2186009  
  7100.000000   2192483   2198922   2205320   2211697   2218107  
  7090.000000   2224600   2231213   2237938   2244739   2251551  
  7080.000000   2258311   2264962   2271478   2277848   2284088  
  7070.000000   2290225   2296307   2302391   2308546   2314837  
  7060.000000   2321306   2327963   2334769   2341653   2348524  
  7050.000000   2355302   2361933   2368398   2374707   2380882  
  7040.000000   2386942   2392903   2398779   2404594   2410385  
  7030.000000   2416203   2422079   2428021   2433988   2439919  
  7020.000000   2445729   2451376   2456847   2462189   2467463  
  7010.000000   2472732   2478014   2483293   2488512   2493618  
  7000.000000   2498570   2503374   2508048   2512633   2517134  
  6990.000000   2521557   2525881   2530117   2534287   2538462  
  6980.000000   2542699   2547046   2551474   2555905   2560203  
  6970.000000   2564249   2567956   2571320   2574397   2577293  
  6960.000000   2580102   2582901   2585708   2588532   2591354  
  6950.000000   2594188   2597041   2599938   2602862   2605779  
  6940.000000   2608612   2611293   2613763   2616013   2618066  
  6930.000000   2619970   2621757   2623443   2625017   2626470  
  6920.000000   2627811   2629099   2630415   2631858   2633483  
  6910.000000   2635301   2637244   2639222   2641126   2642894  
  6900.000000   2644507   2645999   2647422   2648819   2650201  
  6890.000000   2651547   2652813   2653958   2654956   2655809  
  6880.000000   2656542   2657196   2657814   2658449   2659148  
  6870.000000   2659964   2660932   2662064   2663328   2664661  
  6860.000000   2665962   2667135   2668109   2668863   2669429  
  6850.000000   2669877   2670292   2670736   2671243   2671809  
  6840.000000   2672407   2673007   2673585   2674141   2674679  
  6830.000000   2675221   2675777   2676363   2676983   2677643  
  6820.000000   2678338   2679058   2679778   2680468   2681094  
  6810.000000   2681638   2682094   2682478   2682813   2683123  
  6800.000000   2683407   2683656   2683840   2683944   2683962  
  6790.000000   2683919   2683848   2683787   2683748   2683721  
  6780.000000   2683669   2683557   2683361   2683087   2682762  
  6770.000000   2682421   2682086   2681752   2681395   2680981  
  6760.000000   2680498   2679967   2679446   2679015   2678752  
  6750.000000   2678700   2678861   2679191   2679621   2680074  
  6740.000000   2680490   2680828   2681078   2681241   2681336  
  6730.000000   2681386   2681423   2681477   2681580   2681755  
  6720.000000   2682014   2682352   2682752   2683194   2683653  
  6710.000000   2684113   2684551   2684948   2685274   2685497  
  6700.000000   2685591   2685554   2685405   2685196   2684986  
  6690.000000   2684835   2684766   2684780   2684833   2684878  
  6680.000000   2684857   2684742   2684514   2684177   2683731  
  6670.000000   2683175   2682496   2681688   2680750   2679704  
  6660.000000   2678584   2677438   2676305   2675213   2674166  
  6650.000000   2673166   2672195   2671252   2670328   2669422  
  6640.000000   2668522   2667615   2666678   2665692   2664644  
  6630.000000   2663536   2662374   2661170   2659932   2658661  
  6620.000000   2657351   2656005   2654630   2653252   2651893  
  6610.000000   2650579   2649316   2648098   2646898   2645693  
  6600.000000   2644458   2643188   2641881   2640546   2639186  
  6590.000000   2637796   2636367   2634891   2633363   2631784  
  6580.000000   2630161   2628499   2626801   2625073   2623324  
  6570.000000   2621578   2619869   2618239   2616717   2615314  
  6560.000000   2614004   2612744   2611477   2610165   2608797  
  6550.000000   2607396   2606006   2604667   2603398   2602182  
  6540.000000   2600976   2599721   2598370   2596903   2595333  
  6530.000000   2593696   2592041   2590414   2588847   2587362  
  6520.000000   2585967   2584666   2583453   2582315   2581226  
  6510.000000   2580149   2579045   2577881   2576638   2575318  
  6500.000000   2573938   2572523   2571094   2569663   2568236  
  6490.000000   2566808   2565377   2563943   2562510   2561083  
  6480.000000   2559664   2558254   2556854   2555475   2554128  
  6470.000000   2552826   2551574   2550363   2549169   2547955  
  6460.000000   2546689   2545351   2543947   2542501   2541051  
  6450.000000   2539626   2538245   2536904   2535595   2534306  
  6440.000000   2533042   2531817   2530660   2529591   2528625  
  6430.000000   2527750   2526949   2526191   2525457   2524723  
  6420.000000   2523987   2523240   2522483   2521716   2520951  
  6410.000000   2520205   2519514   2518909   2518419   2518048  
  6400.000000   2517780   2517577   2517399   2517209   2516996  
  6390.000000   2516763   2516526   2516296   2516075   2515853  
  6380.000000   2515617   2515360   2515089   2514824   2514584  
  6370.000000   2514380   2514197   2514006   2513767   2513457  
  6360.000000   2513066   2512614   2512130   2511644   2511164  
  6350.000000   2510684   2510178   2509630   2509031   2508394  
  6340.000000   2507734   2507069   2506395   2505695   2504939  
  6330.000000   2504111   2503211   2502268   2501323   2500421  
  6320.000000   2499582   2498806   2498058   2497300   2496493  
  6310.000000   2495620   2494677   2493679   2492637   2491564  
  6300.000000   2490459   2489330   2488181   2487031   2485896  
  6290.000000   2484788   2483699   2482610   2481483   2480288  
  6280.000000   2479001   2477626   2476175   2474677   2473153  
  6270.000000   2471619   2470081   2468542   2466999   2465458  
  6260.000000   2463919   2462382   2460838   2459278   2457693  
  6250.000000   2456092   2454494   2452936   2451449   2450048  
  6240.000000   2448724   2447440   2446148   2444801   2443376  
  6230.000000   2441872   2440312   2438725   2437134   2435549  
  6220.000000   2433971   2432395   2430825   2429272   2427757  
  6210.000000   2426294   2424887   2423522   2422176   2420829  
  6200.000000   2419473   2418114   2416777   2415485   2414252  
  6190.000000   2413074   2411937   2410814   2409690   2408554  
  6180.000000   2407411   2406268   2405134   2404011   2402899  
  6170.000000   2401804   2400738   2399726   2398794   2397962  
  6160.000000   2397232   2396581   2395967   2395339   2394650  
  6150.000000   2393867   2392972   2391968   2390869   2389696  
  6140.000000   2388478   2387247   2386039   2384886   2383811  
  6130.000000   2382816   2381886   2380985   2380078   2379134  
  6120.000000   2378148   2377135   2376132   2375178   2374309  
  6110.000000   2373541   2372881   2372313   2371827   2371401  
  6100.000000   2371026   2370683   2370362   2370046   2369733  
  6090.000000   2369418   2369120   2368854   2368649   2368513  
  6080.000000   2368455   2368463   2368533   2368652   2368831  
  6070.000000   2369073   2369398   2369803   2370290   2370830  
  6060.000000   2371414   2372014   2372643   2373302   2374027  
  6050.000000   2374830   2375740   2376760   2377906   2379184  
  6040.000000   2380621   2382234   2384049   2386059   2388246  
  6030.000000   2390556   2392938   2395330   2397700   2400025  
  6020.000000   2402317   2404578   2406830   2409069   2411305  
  6010.000000   2413534   2415780   2418058   2420408   2422847  
  6000.000000   2425393   2428031   2430749   2433517   2436332  
  5990.000000   2439191   2442119   2445136   2448271   2451532  
  5980.000000   2454931   2458455   2462112   2465890   2469794  
  5970.000000   2473805   2477916   2482089   2486308   2490540  
  5960.000000   2494791   2499055   2503358   2507699   2512092  
  5950.000000   2516524   2520995   2525504   2530078   2534753  
  5940.000000   2539579   2544588   2549790   2555162   2560649  
  5930.000000   2566188   2571713   2577175   2582535   2587765  
  5920.000000   2592833   2597698   2602321   2606669   2610738  
  5910.000000   2614553   2618164   2621640   2625040   2628419  
  5900.000000   2631803   2635224   2638697   2642261   2645937  
  5890.000000   2649761   2653723   2657803   2661935   2666051  
  5880.000000   2670069   2673929   2677579   2680985   2684117  
  5870.000000   2686950   2689468   2691675   2693602   2695322  
  5860.000000   2696924   2698510   2700152   2701901   2703756  
  5850.000000   2705706   2707716   2709776   2711873   2714014  
  5840.000000   2716190   2718380   2720545   2722639   2724631  
  5830.000000   2726509   2728298   2730038   2731779   2733556  
  5820.000000   2735388   2737272   2739201   2741172   2743193  
  5810.000000   2745280   2747446   2749699   2752019   2754396  
  5800.000000   2756796   2759228   2761685   2764201   2766766  
  5790.000000   2769382   2771975   2774470   2776727   2778625  
  5780.000000   2780015   2780800   2780888   2780256   2778911  
  5770.000000   2776937   2774448   2771623   2768626   2765639  
  5760.000000   2762776   2760127   2757702   2755504   2753488  
  5750.000000   2751637   2749914   2748311   2746799   2745352  
  5740.000000   2743937   2742523   2741097   2739659   2738238  
  5730.000000   2736856   2735539   2734286   2733086   2731915  
  5720.000000   2730759   2729611   2728489   2727408   2726384  
  5710.000000   2725409   2724461   2723508   2722522   2721496  
  5700.000000   2720447   2719411   2718426   2717527   2716722  
  5690.000000   2716012   2715373   2714791   2714237   2713700  
  5680.000000   2713145   2712544   2711842   2710990   2709929  
  5670.000000   2708617   2707019   2705123   2702924   2700441  
  5660.000000   2697698   2694751   2691663   2688523   2685409  
  5650.000000   2682396   2679522   2676797   2674196   2671686  
  5640.000000   2669229   2666808   2664420   2662078   2659805  
  5630.000000   2657615   2655525   2653536   2651661   2649896  
  5620.000000   2648247   2646699   2645239   2643830   2642449  
  5610.000000   2641067   2639690   2638330   2637029   2635816  
  5600.000000   2634717   2633726   2632825   2631975   2631144  
  5590.000000   2630306   2629455   2628590   2627716   2626832  
  5580.000000   2625933   2625011   2624063   2623094   2622111  
  5570.000000   2621124   2620131   2619119   2618069   2616964  
  5560.000000   2615793   2614565   2613298   2612015   2610735  
  5550.000000   2609466   2608203   2606944   2605689   2604453  
  5540.000000   2603255   2602116   2601046   2600038   2599074  
  5530.000000   2598129   2597180   2596218   2595241   2594250  
  5520.000000   2593241   2592206   2591127   2589993   2588802  
  5510.000000   2587568   2586309   2585050   2583799   2582556  
  5500.000000   2581303   2580030   2578728   2577406   2576078  
  5490.000000   2574757   2573438   2572101   2570713   2569247  
  5480.000000   2567691   2566063   2564401   2562753   2561157  
  5470.000000   2559625   2558143   2556678   2555190   2553651  
  5460.000000   2552042   2550362   2548612   2546794   2544911  
  5450.000000   2542973   2541002   2539033   2537111   2535271  
  5440.000000   2533534   2531892   2530323   2528790   2527269  
  5430.000000   2525744   2524224   2522716   2521239   2519796  
  5420.000000   2518401   2517064   2515820   2514697   2513740  
  5410.000000   2512955   2512339   2511838   2511410   2511000  
  5400.000000   2510606   2510236   2509950   2509793   2509824  
  5390.000000   2510047   2510467   2511049   2511789   2512674  
  5380.000000   2513736   2514984   2516449   2518106   2519946  
  5370.000000   2521909   2523982   2526121   2528358   2530684  
  5360.000000   2533162   2535794   2538649   2541733   2545128  
  5350.000000   2548847   2552976   2557508   2562499   2567896  
  5340.000000   2573726   2579922   2586537   2593534   2600995  
  5330.000000   2608882   2617265   2626077   2635372   2645090  
  5320.000000   2655329   2666086   2677518   2689640   2702599  
  5310.000000   2716358   2730995   2746411   2762651   2779618  
  5300.000000   2797383   2815893   2835259   2855458   2876610  
  5290.000000   2898674   2921713   2945611   2970335   2995703  
  5280.000000   3021654   3048058   3074951   3102335   3130338  
  5270.000000   3158996   3188344   3218266   3248590   3279077  
  5260.000000   3309524   3339817   3369936   3399957   3429938  
  5250.000000   3459919   3489784   3519388   3548447   3576802  
  5240.000000   3604265   3630884   3656673   3681834   3706419  
  5230.000000   3730571   3754205   3777310   3799678   3821257  
  5220.000000   3841885   3861629   3880469   3898589   3916028  
  5210.000000   3932953   3949309   3965126   3980220   3994549  
  5200.000000   4007941   4020450   4032034   4042864   4052963  
  5190.000000   4062487   4071396   4079758   4087470   4094581  
  5180.000000   4101012   4106855   4112069   4116745   4120814  
  5170.000000   4124327   4127191   4129456   4131070   4132123  
  5160.000000   4132595   4132574   4132016   4130968   4129368  
  5150.000000   4127267   4124641   4121582   4118104   4114298  
  5140.000000   4110159   4105743   4101021   4096041   4090798  
  5130.000000   4085358   4079732   4073981   4068096   4062105  
  5120.000000   4055986   4049761   4043429   4037029   4030572  
  5110.000000   4024089   4017576   4011042   4004480   3997909  
  5100.000000   3991348   3984834   3978390   3972031   3965740  
  5090.000000   3959496   3953258   3947009   3940736   3934453  
  5080.000000   3928171   3921905   3915648   3909385   3903087  
  5070.000000   3896740   3890330   3883870   3877371   3870852  
  5060.000000   3864313   3857751   3851147   3844494   3837781  
  5050.000000   3831020   3824217   3817391   3810544   3803678  
  5040.000000   3796785   3789861   3782905   3775927   3768937  
  5030.000000   3761946   3754960   3747978   3740999   3734024  
  5020.000000   3727068   3720152   3713311   3706572   3699964  
  5010.000000   3693494   3687172   3680983   3674934   3669012  
  5000.000000   3663236   3657599   3652129   3646817   3641689  
  4990.000000   3636733   3631979   3627415   3623078   3618954  
  4980.000000   3615079   3611432   3608044   3604891   3602008  
  4970.000000   3599375   3597036   3594968   3593212   3591740  
  4960.000000   3590591   3589735   3589223   3589038   3589246  
  4950.000000   3589830   3590849   3592270   3594129   3596377  
  4940.000000   3599047   3602093   3605563   3609419   3613711  
  4930.000000   3618396   3623510   3628999   3634894   3641148  
  4920.000000   3647801   3654820   3662247   3670053   3678267  
  4910.000000   3686853   3695824   3705142   3714805   3724770  
  4900.000000   3735016   3745491   3756150   3766939   3777801  
  4890.000000   3788688   3799534   3810292   3820872   3831221  
  4880.000000   3841228   3850849   3859983   3868618   3876673  
  4870.000000   3884157   3890992   3897183   3902641   3907377  
  4860.000000   3911318   3914508   3916918   3918631   3919653  
  4850.000000   3920085   3919946   3919339   3918291   3916908  
  4840.000000   3915228   3913356   3911333   3909249   3907134  
  4830.000000   3905052   3903016   3901065   3899202   3897442  
  4820.000000   3895784   3894227   3892774   3891424   3890195  
  4810.000000   3889094   3888149   3887368   3886772   3886353  
  4800.000000   3886118   3886043   3886126   3886343   3886692  
  4790.000000   3887151   3887717   3888363   3889086   3889864  
  4780.000000   3890702   3891597   3892568   3893623   3894778  
  4770.000000   3896027   3897367   3898771   3900220   3901686  
  4760.000000   3903155   3904612   3906055   3907480   3908887  
  4750.000000   3910274   3911642   3912992   3914328   3915656  
  4740.000000   3916986   3918323   3919671   3921029   3922393  
  4730.000000   3923754   3925106   3926432   3927727   3928977  
  4720.000000   3930185   3931346   3932486   3933619   3934793  
  4710.000000   3936036   3937406   3938929   3940649   3942580  
  4700.000000   3944752   3947168   3949850   3952798   3956029  
  4690.000000   3959536   3963328   3967384   3971696   3976224  
  4680.000000   3980934   3985759   3990641   3995493   4000254  
  4670.000000   4004846   4009241   4013414   4017397   4021226  
  4660.000000   4024978   4028725   4032554   4036533   4040726  
  4650.000000   4045175   4049905   4054922   4060207   4065728  
  4640.000000   4071425   4077241   4083098   4088941   4094701  
  4630.000000   4100342   4105817   4111106   4116172   4121001  
  4620.000000   4125550   4129798   4133693   4137219   4140329  
  4610.000000   4143035   4145323   4147250   4148837   4150172  
  4600.000000   4151283   4152247   4153061   4153760   4154301  
  4590.000000   4154682   4154839   4154761   4154386   4153716  
  4580.000000   4152712   4151394   4149757   4147847   4145686  
  4570.000000   4143337   4140830   4138222   4135527   4132777  
  4560.000000   4129967   4127114   4124207   4121266   4118289  
  4550.000000   4115300   4112300   4109304   4106305   4103301  
  4540.000000   4100280   4097238   4094170   4091081   4087982  
  4530.000000   4084885   4081809   4078757   4075743   4072758  
  4520.000000   4069808   4066872   4063962   4061058   4058197  
  4510.000000   4055378   4052675   4050119   4047822   4045827  
  4500.000000   4044257   4043138   4042572   4042544   4043129  
  4490.000000   4044290   4046099   4048524   4051661   4055487  
  4480.000000   4060112   4065509   4071771   4078847   4086801  
  4470.000000   4095549   4105125   4115424   4126461   4138126  
  4460.000000   4150436   4163296   4176728   4190654   4205090  
  4450.000000   4219951   4235231   4250841   4266755   4282897  
  4440.000000   4299244   4315745   4332374   4349093   4365856  
  4430.000000   4382622   4399317   4415902   4432291   4448453  
  4420.000000   4464295   4479788   4494828   4509383   4523335  
  4410.000000   4536649   4549208   4560990   4571904   4581969  
  4400.000000   4591150   4599537   4607167   4614195   4620713  
  4390.000000   4626903   4632855   4638717   4644530   4650369  
  4380.000000   4656209   4662064   4667879   4673654   4679361  
  4370.000000   4685031   4690681   4696368   4702122   4707987  
  4360.000000   4713962   4720063   4726248   4732525   4738817  
  4350.000000   4745140   4751392   4757595   4763640   4769564  
  4340.000000   4775270   4780777   4785931   4790598   4794419  
  4330.000000   4796996   4797768   4796255   4792055   4785074  
  4320.000000   4775513   4763949   4751170   4738103   4725574  
  4310.000000   4714245   4704467   4696356   4689792   4684564  
  4300.000000   4680432   4677199   4674751   4673005   4671958  
  4290.000000   4671556   4671810   4672646   4674067   4675995  
  4280.000000   4678417   4681254   4684453   4687921   4691567  
  4270.000000   4695304   4699024   4702624   4705935   4708752  
  4260.000000   4710784   4711730   4711283   4709255   4705580  
  4250.000000   4700410   4694034   4686903   4679461   4672166  
  4240.000000   4665317   4659138   4653664   4648876   4644646  
  4230.000000   4640854   4637352   4634023   4630767   4627501  
  4220.000000   4624196   4620823   4617439   4614082   4610877  
  4210.000000   4607900   4605282   4603076   4601360   4600130  
  4200.000000   4599402   4599124   4599272   4599772   4600585  
  4190.000000   4601628   4602868   4604225   4605681   4607169  
  4180.000000   4608692   4610201   4611720   4613222   4614762  
  4170.000000   4616348   4618070   4619970   4622158   4624682  
  4160.000000   4627636   4631039   4634946   4639334   4644228  
  4150.000000   4649577   4655393   4661617   4668266   4675285  
  4140.000000   4682705   4690477   4698646   4707162   4716067  
  4130.000000   4725305   4734915   4744845   4755150   4765812  
  4120.000000   4776915   4788476   4800596   4813299   4826667  
  4110.000000   4840698   4855429   4870810   4886818   4903353  
  4100.000000   4920339   4937647   4955189   4972856   4990592  
  4090.000000   5008344   5026087   5043801   5061457   5079044  
  4080.000000   5096523   5113903   5131154   5148302   5165299  
  4070.000000   5182136   5198686   5214870   5230503   5245507  
  4060.000000   5259742   5273224   5285907   5297891   5309175  
  4050.000000   5319881   5329997   5339639   5348780   5357519  
  4040.000000   5365795   5373659   5380990   5387792   5393922  
  4030.000000   5399394   5404110   5408134   5411434   5414101  
  4020.000000   5416115   5417584   5418543   5419096   5419227  
  4010.000000   5419043   5418587   5417836   5416564   5414779  
  4000.000000   5412726  
##END= 
