##TITLE= Sample 004 By ssteindl date Dienstag, November 20 2018
##JCAMP-DX= 4.24
##DATA TYPE= INFRARED SPECTRUM
##ORIGIN= Exported PE Spectrum Data File
##OWNER= Sandra Steindl
##DATE= 18/11/20
##TIME= 16:09:32.00
##SPECTROMETER/DATA SYSTEM= PERKIN-ELMER Frontier FT-IR/NIR IR
##INSTRUMENT PARAMETERS=
  APODIZATION=stark
  DETECTOR=INGAAS
##RESOLUTION= 16.000000
##DELTAX= -2.000000
##XUNITS= 1/CM
##YUNITS= A
##XFACTOR= 1.00
##YFACTOR= 0.00000011920928955078
##FIRSTX= 10000.00
##LASTX= 4000.00
##NPOINTS= 3001
##FIRSTY= 0.354311
##MAXY= 0.618214
##MINY= 0.241091
##XYDATA= (X++(Y..Y))
 10000.000000   2972179   2966012   2958813   2949221   2937419  
  9990.000000   2924676   2912331   2901495   2893387   2889136  
  9980.000000   2889251   2893517   2901151   2910925   2921303  
  9970.000000   2930675   2937770   2941722   2942356   2939992  
  9960.000000   2935517   2929925   2924253   2919202   2915154  
  9950.000000   2912132   2909929   2908316   2907118   2906405  
  9940.000000   2906326   2907150   2908912   2911437   2914170  
  9930.000000   2916383   2917381   2916753   2914604   2911450  
  9920.000000   2908111   2905301   2903386   2902208   2901159  
  9910.000000   2899469   2896540   2892259   2887091   2881952  
  9900.000000   2877890   2875700   2875623   2877252   2879650  
  9890.000000   2881683   2882403   2881367   2878771   2875343  
  9880.000000   2872093   2869949   2869531   2870938   2873812  
  9870.000000   2877369   2880673   2882819   2883182   2881563  
  9860.000000   2878205   2873797   2869279   2865708   2863964  
  9850.000000   2864574   2867492   2872103   2877293   2881745  
  9840.000000   2884259   2884112   2881262   2876335   2870418  
  9830.000000   2864670   2859978   2856681   2854558   2852995  
  9820.000000   2851305   2849078   2846334   2843551   2841375  
  9810.000000   2840358   2840682   2842061   2843935   2845596  
  9800.000000   2846572   2846595   2845704   2844031   2841749  
  9790.000000   2839029   2836097   2833402   2831599   2831530  
  9780.000000   2833882   2838934   2846226   2854562   2862258  
  9770.000000   2867613   2869485   2867571   2862487   2855418  
  9760.000000   2847685   2840334   2833916   2828619   2824433  
  9750.000000   2821494   2820037   2820407   2822627   2826303  
  9740.000000   2830443   2833775   2835103   2833716   2829666  
  9730.000000   2823606   2816588   2809550   2803112   2797448  
  9720.000000   2792460   2788078   2784413   2781854   2780807  
  9710.000000   2781484   2783642   2786579   2789341   2790980  
  9700.000000   2790937   2789028   2785560   2780974   2775832  
  9690.000000   2770573   2765635   2761466   2758572   2757484  
  9680.000000   2758555   2761848   2766989   2773272   2779818  
  9670.000000   2785834   2790762   2794313   2796385   2796913  
  9660.000000   2795860   2793225   2789252   2784485   2779806  
  9650.000000   2776191   2774391   2774607   2776311   2778427  
  9640.000000   2779653   2779057   2776336   2772055   2767277  
  9630.000000   2763271   2760945   2760665   2762188   2764881  
  9620.000000   2768014   2770899   2773031   2773916   2773135  
  9610.000000   2770261   2765126   2757916   2749363   2740606  
  9600.000000   2732998   2727714   2725427   2726190   2729423  
  9590.000000   2734315   2739965   2745792   2751396   2756610  
  9580.000000   2761265   2765120   2767927   2769404   2769464  
  9570.000000   2768045   2765226   2760963   2755187   2747821  
  9560.000000   2738981   2729244   2719590   2711446   2706107  
  9550.000000   2704525   2706753   2712060   2719007   2725972  
  9540.000000   2731527   2734756   2735328   2733323   2729119  
  9530.000000   2723106   2715795   2707701   2699577   2692213  
  9520.000000   2686394   2682547   2680602   2679980   2679793  
  9510.000000   2679270   2678030   2676290   2674705   2674060  
  9500.000000   2674923   2677353   2680953   2684978   2688740  
  9490.000000   2691761   2693954   2695457   2696515   2697283  
  9480.000000   2697806   2698099   2698204   2698306   2698599  
  9470.000000   2699247   2700206   2701245   2702009   2702201  
  9460.000000   2701701   2700584   2699012   2697044   2694542  
  9450.000000   2691182   2686669   2680998   2674638   2668560  
  9440.000000   2663933   2661784   2662535   2665893   2670892  
  9430.000000   2676318   2681075   2684522   2686505   2687218  
  9420.000000   2686950   2685871   2684026   2681406   2678177  
  9410.000000   2674704   2671521   2669073   2667486   2666468  
  9400.000000   2665384   2663600   2660759   2657066   2653152  
  9390.000000   2649847   2647725   2646878   2646899   2647111  
  9380.000000   2646962   2646245   2645209   2644309   2643924  
  9370.000000   2644036   2644186   2643699   2642057   2639243  
  9360.000000   2635822   2632775   2631097   2631376   2633521  
  9350.000000   2636773   2640011   2642157   2642562   2641110  
  9340.000000   2638148   2634218   2629854   2625453   2621308  
  9330.000000   2617705   2615000   2613556   2613607   2615079  
  9320.000000   2617515   2620161   2622167   2622916   2622217  
  9310.000000   2620375   2618035   2615908   2614536   2614111  
  9300.000000   2614516   2615408   2616413   2617227   2617685  
  9290.000000   2617712   2617261   2616296   2614793   2612823  
  9280.000000   2610553   2608256   2606223   2604678   2603711  
  9270.000000   2603291   2603284   2603554   2603950   2604372  
  9260.000000   2604693   2604780   2604463   2603597   2602125  
  9250.000000   2600139   2597877   2595634   2593633   2591923  
  9240.000000   2590360   2588678   2586638   2584135   2581285  
  9230.000000   2578344   2575627   2573338   2571499   2569942  
  9220.000000   2568404   2566689   2564798   2562987   2561696  
  9210.000000   2561380   2562331   2564567   2567806   2571499  
  9200.000000   2574938   2577429   2578468   2577832   2575663  
  9190.000000   2572419   2568838   2565688   2563574   2562715  
  9180.000000   2562882   2563485   2563751   2563045   2561073  
  9170.000000   2558104   2554824   2552139   2550780   2551062  
  9160.000000   2552786   2555267   2557612   2558980   2558889  
  9150.000000   2557255   2554327   2550592   2546607   2542943  
  9140.000000   2540051   2538295   2537889   2538878   2541037  
  9130.000000   2543844   2546544   2548314   2548497   2546756  
  9120.000000   2543200   2538326   2532907   2527701   2523255  
  9110.000000   2519838   2517490   2516170   2515774   2516247  
  9100.000000   2517480   2519349   2521584   2523800   2525557  
  9090.000000   2526448   2526286   2525014   2522780   2519728  
  9080.000000   2516057   2511907   2507446   2502934   2498781  
  9070.000000   2495559   2493831   2494014   2496174   2499997  
  9060.000000   2504804   2509710   2513831   2516496   2517420  
  9050.000000   2516659   2514573   2511681   2508611   2505932  
  9040.000000   2504088   2503350   2503784   2505244   2507303  
  9030.000000   2509424   2511005   2511626   2511068   2509445  
  9020.000000   2507153   2504712   2502604   2501017   2499853  
  9010.000000   2498690   2497024   2494407   2490689   2486139  
  9000.000000   2481410   2477387   2474877   2474462   2476277  
  8990.000000   2480028   2484995   2490297   2495112   2498841  
  8980.000000   2501198   2502173   2502006   2500988   2499381  
  8970.000000   2497312   2494856   2492029   2488887   2485567  
  8960.000000   2482292   2479353   2476965   2475289   2474306  
  8950.000000   2473920   2473890   2473981   2473960   2473682  
  8940.000000   2473073   2472146   2470977   2469675   2468362  
  8930.000000   2467111   2465949   2464803   2463549   2462001  
  8920.000000   2460012   2457498   2454530   2451302   2448122  
  8910.000000   2445314   2443154   2441793   2441228   2441337  
  8900.000000   2441924   2442804   2443839   2444986   2446251  
  8890.000000   2447677   2449253   2450912   2452500   2453807  
  8880.000000   2454616   2454728   2454067   2452634   2450563  
  8870.000000   2448014   2445172   2442158   2439013   2435730  
  8860.000000   2432300   2428822   2425525   2422803   2421090  
  8850.000000   2420778   2422027   2424687   2428248   2431969  
  8840.000000   2435079   2436961   2437351   2436353   2434432  
  8830.000000   2432168   2430108   2428548   2427538   2426899  
  8820.000000   2426366   2425717   2424858   2423867   2422904  
  8810.000000   2422175   2421794   2421792   2422089   2422556  
  8800.000000   2423068   2423504   2423784   2423823   2423555  
  8790.000000   2422928   2421940   2420670   2419285   2418033  
  8780.000000   2417180   2416954   2417451   2418605   2420159  
  8770.000000   2421745   2422953   2423462   2423101   2421910  
  8760.000000   2420113   2418053   2416101   2414530   2413461  
  8750.000000   2412817   2412381   2411857   2410977   2409593  
  8740.000000   2407705   2405502   2403261   2401333   2399994  
  8730.000000   2399436   2399683   2400616   2401972   2403400  
  8720.000000   2404532   2405027   2404663   2403336   2401107  
  8710.000000   2398162   2394790   2391302   2387994   2385095  
  8700.000000   2382770   2381117   2380174   2379928   2380296  
  8690.000000   2381118   2382155   2383104   2383682   2383672  
  8680.000000   2383039   2381899   2380536   2379267   2378376  
  8670.000000   2378019   2378215   2378876   2379877   2381134  
  8660.000000   2382616   2384329   2386232   2388170   2389881  
  8650.000000   2391021   2391317   2390619   2389022   2386810  
  8640.000000   2384413   2382245   2380606   2379637   2379334  
  8630.000000   2379634   2380442   2381728   2383458   2385611  
  8620.000000   2388047   2390558   2392863   2394705   2395918  
  8610.000000   2396464   2396445   2395986   2395206   2394111  
  8600.000000   2392662   2390782   2388461   2385803   2383036  
  8590.000000   2380473   2378389   2376988   2376329   2376388  
  8580.000000   2377063   2378270   2379937   2382002   2384342  
  8570.000000   2386743   2388908   2390506   2391280   2391136  
  8560.000000   2390218   2388837   2387403   2386251   2385556  
  8550.000000   2385260   2385112   2384782   2383992   2382637  
  8540.000000   2380816   2378809   2376957   2375575   2374820  
  8530.000000   2374704   2375087   2375784   2376618   2377488  
  8520.000000   2378364   2379258   2380166   2381015   2381665  
  8510.000000   2381926   2381654   2380775   2379364   2377600  
  8500.000000   2375736   2374007   2372547   2371381   2370435  
  8490.000000   2369617   2368872   2368239   2367828   2367764  
  8480.000000   2368098   2368751   2369519   2370121   2370331  
  8470.000000   2370045   2369379   2368594   2368026   2367934  
  8460.000000   2368397   2369298   2370357   2371281   2371862  
  8450.000000   2372098   2372150   2372287   2372717   2373501  
  8440.000000   2374482   2375334   2375678   2375190   2373757  
  8430.000000   2371470   2368629   2365605   2362746   2360298  
  8420.000000   2358348   2356899   2355878   2355269   2355103  
  8410.000000   2355491   2356524   2358223   2360449   2362904  
  8400.000000   2365156   2366721   2367212   2366420   2364433  
  8390.000000   2361573   2358340   2355253   2352716   2350935  
  8380.000000   2349859   2349293   2348964   2348691   2348396  
  8370.000000   2348145   2348026   2348088   2348241   2348249  
  8360.000000   2347812   2346652   2344682   2342006   2338958  
  8350.000000   2335936   2333322   2331335   2329995   2329174  
  8340.000000   2328666   2328328   2328116   2328119   2328472  
  8330.000000   2329283   2330544   2332094   2333658   2334899  
  8320.000000   2335550   2335437   2334551   2332998   2330999  
  8310.000000   2328815   2326709   2324913   2323584   2322811  
  8300.000000   2322573   2322755   2323143   2323494   2323575  
  8290.000000   2323246   2322475   2321349   2320025   2318677  
  8280.000000   2317433   2316347   2315397   2314525   2313679  
  8270.000000   2312843   2312030   2311262   2310511   2309706  
  8260.000000   2308715   2307411   2305713   2303638   2301318  
  8250.000000   2298963   2296798   2294982   2293560   2292457  
  8240.000000   2291519   2290583   2289546   2288393   2287202  
  8230.000000   2286087   2285144   2284401   2283800   2283235  
  8220.000000   2282591   2281809   2280908   2279986   2279170  
  8210.000000   2278566   2278186   2277944   2277660   2277127  
  8200.000000   2276168   2274690   2272722   2270377   2267833  
  8190.000000   2265256   2262753   2260353   2258021   2255716  
  8180.000000   2253419   2251197   2249175   2247533   2246432  
  8170.000000   2245970   2246114   2246692   2247417   2247942  
  8160.000000   2247962   2247280   2245877   2243894   2241614  
  8150.000000   2239365   2237446   2236038   2235172   2234730  
  8140.000000   2234496   2234231   2233729   2232890   2231710  
  8130.000000   2230288   2228770   2227310   2226023   2224947  
  8120.000000   2224051   2223225   2222329   2221216   2219789  
  8110.000000   2218033   2216026   2213939   2211989   2210396  
  8100.000000   2209313   2208783   2208722   2208937   2209181  
  8090.000000   2209220   2208901   2208186   2207143   2205922  
  8080.000000   2204685   2203574   2202670   2201994   2201514  
  8070.000000   2201170   2200881   2200559   2200099   2199393  
  8060.000000   2198332   2196841   2194905   2192597   2190081  
  8050.000000   2187579   2185326   2183501   2182178   2181319  
  8040.000000   2180776   2180357   2179875   2179206   2178316  
  8030.000000   2177255   2176136   2175079   2174183   2173478  
  8020.000000   2172942   2172489   2172020   2171446   2170724  
  8010.000000   2169876   2168987   2168180   2167576   2167249  
  8000.000000   2167187   2167286   2167365   2167225   2166706  
  7990.000000   2165746   2164409   2162870   2161354   2160075  
  7980.000000   2159149   2158570   2158208   2157866   2157345  
  7970.000000   2156516   2155351   2153918   2152344   2150765  
  7960.000000   2149279   2147934   2146731   2145653   2144696  
  7950.000000   2143871   2143204   2142712   2142377   2142138  
  7940.000000   2141899   2141558   2141041   2140328   2139460  
  7930.000000   2138524   2137625   2136853   2136272   2135902  
  7920.000000   2135730   2135713   2135785   2135860   2135833  
  7910.000000   2135599   2135068   2134203   2133034   2131671  
  7900.000000   2130275   2129021   2128041   2127380   2126992  
  7890.000000   2126749   2126493   2126087   2125459   2124612  
  7880.000000   2123610   2122550   2121521   2120594   2119817  
  7870.000000   2119222   2118839   2118686   2118760   2119010  
  7860.000000   2119329   2119576   2119598   2119297   2118655  
  7850.000000   2117761   2116780   2115906   2115294   2115014  
  7840.000000   2115029   2115213   2115389   2115384   2115060  
  7830.000000   2114349   2113246   2111814   2110169   2108470  
  7820.000000   2106897   2105618   2104752   2104325   2104247  
  7810.000000   2104331   2104331   2104029   2103301   2102166  
  7800.000000   2100781   2099386   2098219   2097430   2097041  
  7790.000000   2096937   2096931   2096822   2096477   2095851  
  7780.000000   2094991   2093995   2092973   2092012   2091162  
  7770.000000   2090452   2089892   2089494   2089259   2089170  
  7760.000000   2089177   2089208   2089171   2088992   2088619  
  7750.000000   2088048   2087304   2086431   2085473   2084462  
  7740.000000   2083416   2082349   2081274   2080206   2079152  
  7730.000000   2078110   2077056   2075968   2074832   2073675  
  7720.000000   2072559   2071578   2070818   2070322   2070063  
  7710.000000   2069936   2069788   2069459   2068837   2067886  
  7700.000000   2066664   2065296   2063947   2062762   2061846  
  7690.000000   2061233   2060891   2060738   2060665   2060574  
  7680.000000   2060392   2060101   2059726   2059333   2058991  
  7670.000000   2058757   2058635   2058579   2058501   2058292  
  7660.000000   2057862   2057154   2056167   2054927   2053487  
  7650.000000   2051893   2050184   2048403   2046611   2044905  
  7640.000000   2043406   2042243   2041508   2041229   2041343  
  7630.000000   2041717   2042180   2042570   2042780   2042765  
  7620.000000   2042536   2042126   2041576   2040907   2040141  
  7610.000000   2039304   2038448   2037639   2036948   2036412  
  7600.000000   2036024   2035726   2035432   2035062   2034571  
  7590.000000   2033970   2033315   2032684   2032145   2031729  
  7580.000000   2031423   2031182   2030953   2030689   2030370  
  7570.000000   2029985   2029542   2029043   2028492   2027891  
  7560.000000   2027249   2026584   2025923   2025301   2024762  
  7550.000000   2024352   2024118   2024090   2024274   2024626  
  7540.000000   2025055   2025424   2025592   2025450   2024977  
  7530.000000   2024252   2023450   2022780   2022416   2022430  
  7520.000000   2022769   2023284   2023786   2024131   2024279  
  7510.000000   2024289   2024285   2024375   2024596   2024878  
  7500.000000   2025085   2025067   2024757   2024190   2023517  
  7490.000000   2022938   2022636   2022709   2023151   2023864  
  7480.000000   2024710   2025569   2026368   2027088   2027739  
  7470.000000   2028334   2028871   2029333   2029713   2030016  
  7460.000000   2030274   2030523   2030789   2031060   2031297  
  7450.000000   2031450   2031493   2031453   2031401   2031437  
  7440.000000   2031638   2032024   2032545   2033096   2033567  
  7430.000000   2033880   2034038   2034103   2034187   2034389  
  7420.000000   2034765   2035312   2035976   2036693   2037419  
  7410.000000   2038149   2038914   2039760   2040709   2041743  
  7400.000000   2042797   2043776   2044587   2045159   2045471  
  7390.000000   2045546   2045452   2045276   2045107   2045026  
  7380.000000   2045095   2045359   2045827   2046494   2047328  
  7370.000000   2048289   2049319   2050356   2051338   2052208  
  7360.000000   2052920   2053442   2053772   2053927   2053957  
  7350.000000   2053923   2053898   2053943   2054107   2054409  
  7340.000000   2054844   2055395   2056032   2056736   2057479  
  7330.000000   2058250   2059037   2059844   2060684   2061579  
  7320.000000   2062551   2063596   2064683   2065723   2066605  
  7310.000000   2067200   2067428   2067281   2066854   2066321  
  7300.000000   2065895   2065770   2066062   2066792   2067873  
  7290.000000   2069160   2070485   2071716   2072769   2073614  
  7280.000000   2074259   2074731   2075072   2075320   2075530  
  7270.000000   2075753   2076047   2076445   2076952   2077535  
  7260.000000   2078140   2078711   2079219   2079674   2080128  
  7250.000000   2080652   2081315   2082156   2083182   2084363  
  7240.000000   2085665   2087041   2088467   2089899   2091303  
  7230.000000   2092613   2093780   2094760   2095574   2096286  
  7220.000000   2097029   2097941   2099151   2100710   2102606  
  7210.000000   2104745   2107016   2109298   2111531   2113699  
  7200.000000   2115848   2118032   2120315   2122719   2125261  
  7190.000000   2127921   2130698   2133577   2136566   2139654  
  7180.000000   2142835   2146081   2149367   2152663   2155961  
  7170.000000   2159260   2162581   2165933   2169333   2172766  
  7160.000000   2176219   2179654   2183052   2186388   2189669  
  7150.000000   2192906   2196146   2199433   2202845   2206432  
  7140.000000   2210247   2214290   2218539   2222924   2227380  
  7130.000000   2231838   2236287   2240747   2245300   2250032  
  7120.000000   2255035   2260339   2265931   2271717   2277583  
  7110.000000   2283389   2289048   2294498   2299755   2304856  
  7100.000000   2309884   2314908   2319990   2325160   2330428  
  7090.000000   2335781   2341208   2346701   2352270   2357931  
  7080.000000   2363703   2369586   2375555   2381551   2387502  
  7070.000000   2393325   2398970   2404419   2409706   2414893  
  7060.000000   2420057   2425262   2430545   2435915   2441362  
  7050.000000   2446872   2452429   2458029   2463653   2469276  
  7040.000000   2474851   2480324   2485650   2490811   2495818  
  7030.000000   2500712   2505536   2510325   2515080   2519788  
  7020.000000   2524422   2528984   2533492   2538002   2542555  
  7010.000000   2547175   2551828   2556446   2560930   2565208  
  7000.000000   2569244   2573070   2576746   2580359   2583959  
  6990.000000   2587573   2591184   2594777   2598330   2601856  
  6980.000000   2605359   2608851   2612294   2615634   2618791  
  6970.000000   2621720   2624413   2626936   2629384   2631866  
  6960.000000   2634433   2637079   2639714   2642230   2644513  
  6950.000000   2646523   2648279   2649874   2651414   2653008  
  6940.000000   2654710   2656528   2658417   2660314   2662137  
  6930.000000   2663825   2665321   2666612   2667705   2668663  
  6920.000000   2669566   2670530   2671647   2672974   2674492  
  6910.000000   2676114   2677701   2679106   2680215   2680982  
  6900.000000   2681433   2681660   2681775   2681896   2682106  
  6890.000000   2682462   2682987   2683689   2684549   2685535  
  6880.000000   2686585   2687629   2688585   2689395   2690033  
  6870.000000   2690521   2690917   2691295   2691719   2692226  
  6860.000000   2692819   2693485   2694199   2694954   2695742  
  6850.000000   2696567   2697411   2698241   2699002   2699640  
  6840.000000   2700110   2700401   2700528   2700531   2700454  
  6830.000000   2700342   2700224   2700135   2700102   2700165  
  6820.000000   2700348   2700666   2701089   2701566   2702015  
  6810.000000   2702360   2702543   2702547   2702388   2702104  
  6800.000000   2701731   2701292   2700793   2700237   2699632  
  6790.000000   2699007   2698400   2697862   2697418   2697078  
  6780.000000   2696817   2696600   2696382   2696130   2695820  
  6770.000000   2695437   2694966   2694396   2693716   2692931  
  6760.000000   2692067   2691166   2690282   2689456   2688708  
  6750.000000   2688030   2687392   2686763   2686123   2685474  
  6740.000000   2684831   2684219   2683645   2683106   2682584  
  6730.000000   2682067   2681551   2681047   2680569   2680121  
  6720.000000   2679677   2679191   2678601   2677867   2676978  
  6710.000000   2675973   2674917   2673883   2672916   2672027  
  6700.000000   2671187   2670356   2669496   2668603   2667689  
  6690.000000   2666789   2665922   2665088   2664259   2663397  
  6680.000000   2662466   2661457   2660380   2659268   2658148  
  6670.000000   2657045   2655958   2654885   2653812   2652736  
  6660.000000   2651647   2650535   2649373   2648128   2646766  
  6650.000000   2645270   2643653   2641964   2640265   2638622  
  6640.000000   2637064   2635597   2634183   2632784   2631360  
  6630.000000   2629905   2628425   2626939   2625450   2623943  
  6620.000000   2622379   2620715   2618919   2616991   2614954  
  6610.000000   2612856   2610736   2608630   2606549   2604501  
  6600.000000   2602489   2600526   2598622   2596780   2594978  
  6590.000000   2593171   2591303   2589327   2587230   2585045  
  6580.000000   2582841   2580706   2578713   2576899   2575254  
  6570.000000   2573726   2572246   2570749   2569187   2567539  
  6560.000000   2565807   2564004   2562159   2560303   2558476  
  6550.000000   2556716   2555054   2553499   2552035   2550618  
  6540.000000   2549194   2547715   2546160   2544544   2542910  
  6530.000000   2541310   2539786   2538353   2536999   2535693  
  6520.000000   2534404   2533109   2531805   2530495   2529185  
  6510.000000   2527874   2526555   2525223   2523877   2522534  
  6500.000000   2521214   2519936   2518706   2517512   2516327  
  6490.000000   2515123   2513884   2512608   2511308   2509999  
  6480.000000   2508684   2507350   2505977   2504548   2503066  
  6470.000000   2501559   2500070   2498642   2497296   2496026  
  6460.000000   2494795   2493559   2492283   2490960   2489611  
  6450.000000   2488274   2486981   2485746   2484557   2483384  
  6440.000000   2482199   2480984   2479751   2478522   2477333  
  6430.000000   2476205   2475151   2474163   2473231   2472343  
  6420.000000   2471498   2470695   2469935   2469207   2468494  
  6410.000000   2467771   2467021   2466232   2465413   2464575  
  6400.000000   2463736   2462908   2462097   2461305   2460538  
  6390.000000   2459808   2459134   2458530   2458001   2457536  
  6380.000000   2457105   2456668   2456185   2455629   2454988  
  6370.000000   2454273   2453506   2452719   2451942   2451201  
  6360.000000   2450512   2449877   2449280   2448692   2448068  
  6350.000000   2447366   2446549   2445607   2444552   2443427  
  6340.000000   2442281   2441166   2440113   2439139   2438236  
  6330.000000   2437389   2436578   2435787   2434991   2434171  
  6320.000000   2433293   2432329   2431253   2430069   2428799  
  6310.000000   2427495   2426210   2424989   2423842   2422755  
  6300.000000   2421681   2420576   2419402   2418154   2416840  
  6290.000000   2415485   2414102   2412697   2411254   2409760  
  6280.000000   2408204   2406597   2404965   2403344   2401768  
  6270.000000   2400257   2398811   2397419   2396059   2394711  
  6260.000000   2393349   2391954   2390503   2388975   2387359  
  6250.000000   2385658   2383897   2382121   2380382   2378723  
  6240.000000   2377165   2375702   2374300   2372920   2371523  
  6230.000000   2370089   2368607   2367080   2365507   2363878  
  6220.000000   2362181   2360400   2358537   2356611   2354661  
  6210.000000   2352737   2350884   2349130   2347484   2345934  
  6200.000000   2344457   2343029   2341626   2340231   2338833  
  6190.000000   2337422   2335996   2334559   2333125   2331711  
  6180.000000   2330343   2329034   2327792   2326606   2325460  
  6170.000000   2324329   2323201   2322067   2320935   2319813  
  6160.000000   2318713   2317639   2316589   2315560   2314543  
  6150.000000   2313532   2312521   2311499   2310458   2309384  
  6140.000000   2308272   2307124   2305954   2304784   2303639  
  6130.000000   2302534   2301474   2300451   2299456   2298478  
  6120.000000   2297519   2296589   2295700   2294858   2294059  
  6110.000000   2293283   2292511   2291727   2290937   2290160  
  6100.000000   2289434   2288794   2288268   2287854   2287538  
  6090.000000   2287282   2287055   2286823   2286577   2286311  
  6080.000000   2286043   2285787   2285570   2285408   2285326  
  6070.000000   2285329   2285428   2285610   2285865   2286166  
  6060.000000   2286503   2286863   2287258   2287701   2288218  
  6050.000000   2288820   2289517   2290296   2291147   2292048  
  6040.000000   2292994   2293975   2295000   2296066   2297177  
  6030.000000   2298324   2299507   2300719   2301968   2303256  
  6020.000000   2304594   2305974   2307393   2308831   2310281  
  6010.000000   2311737   2313215   2314733   2316319   2317982  
  6000.000000   2319725   2321521   2323347   2325167   2326968  
  5990.000000   2328737   2330488   2332227   2333970   2335719  
  5980.000000   2337488   2339287   2341148   2343100   2345183  
  5970.000000   2347414   2349802   2352316   2354923   2357569  
  5960.000000   2360222   2362850   2365455   2368033   2370607  
  5950.000000   2373184   2375785   2378424   2381127   2383918  
  5940.000000   2386821   2389849   2393001   2396263   2399605  
  5930.000000   2402996   2406399   2409785   2413119   2416363  
  5920.000000   2419475   2422413   2425150   2427678   2430023  
  5910.000000   2432234   2434372   2436494   2438628   2440781  
  5900.000000   2442933   2445062   2447146   2449195   2451227  
  5890.000000   2453280   2455381   2457555   2459799   2462103  
  5880.000000   2464445   2466800   2469141   2471440   2473667  
  5870.000000   2475790   2477791   2479665   2481435   2483141  
  5860.000000   2484840   2486581   2488399   2490301   2492282  
  5850.000000   2494323   2496417   2498565   2500784   2503093  
  5840.000000   2505503   2508009   2510595   2513234   2515905  
  5830.000000   2518590   2521284   2523978   2526667   2529333  
  5820.000000   2531962   2534542   2537076   2539583   2542085  
  5810.000000   2544605   2547144   2549693   2552215   2554695  
  5800.000000   2557112   2559497   2561868   2564282   2566738  
  5790.000000   2569238   2571705   2574069   2576200   2578005  
  5780.000000   2579371   2580235   2580529   2580237   2579351  
  5770.000000   2577921   2576014   2573753   2571260   2568679  
  5760.000000   2566108   2563639   2561303   2559133   2557125  
  5750.000000   2555293   2553635   2552157   2550844   2549670  
  5740.000000   2548594   2547575   2546586   2545613   2544667  
  5730.000000   2543757   2542900   2542089   2541319   2540568  
  5720.000000   2539831   2539106   2538416   2537778   2537214  
  5710.000000   2536724   2536298   2535914   2535551   2535199  
  5700.000000   2534859   2534546   2534272   2534051   2533883  
  5690.000000   2533767   2533691   2533651   2533627   2533609  
  5680.000000   2533562   2533464   2533273   2532967   2532521  
  5670.000000   2531929   2531177   2530254   2529129   2527775  
  5660.000000   2526163   2524293   2522193   2519938   2517617  
  5650.000000   2515335   2513168   2511168   2509347   2507690  
  5640.000000   2506168   2504748   2503402   2502104   2500830  
  5630.000000   2499559   2498279   2496987   2495708   2494471  
  5620.000000   2493324   2492290   2491378   2490564   2489805  
  5610.000000   2489053   2488275   2487460   2486624   2485791  
  5600.000000   2484986   2484212   2483460   2482703   2481921  
  5590.000000   2481100   2480243   2479363   2478475   2477588  
  5580.000000   2476706   2475829   2474962   2474117   2473308  
  5570.000000   2472550   2471841   2471166   2470492   2469788  
  5560.000000   2469025   2468194   2467300   2466359   2465389  
  5550.000000   2464399   2463389   2462356   2461299   2460227  
  5540.000000   2459154   2458099   2457074   2456082   2455116  
  5530.000000   2454166   2453224   2452288   2451358   2450436  
  5520.000000   2449513   2448575   2447601   2446577   2445501  
  5510.000000   2444386   2443254   2442132   2441031   2439957  
  5500.000000   2438897   2437839   2436771   2435692   2434598  
  5490.000000   2433489   2432350   2431163   2429903   2428560  
  5480.000000   2427137   2425662   2424165   2422681   2421222  
  5470.000000   2419785   2418342   2416871   2415352   2413787  
  5460.000000   2412188   2410572   2408943   2407295   2405613  
  5450.000000   2403887   2402117   2400323   2398538   2396795  
  5440.000000   2395115   2393500   2391946   2390443   2388998  
  5430.000000   2387624   2386342   2385153   2384048   2382984  
  5420.000000   2381928   2380848   2379757   2378690   2377721  
  5410.000000   2376904   2376287   2375854   2375585   2375421  
  5400.000000   2375345   2375336   2375426   2375629   2375984  
  5390.000000   2376480   2377127   2377898   2378815   2379886  
  5380.000000   2381171   2382688   2384475   2386492   2388721  
  5370.000000   2391083   2393566   2396129   2398819   2401641  
  5360.000000   2404664   2407884   2411353   2415048   2419031  
  5350.000000   2423301   2427956   2433009   2438552   2444558  
  5340.000000   2451071   2458025   2465457   2473310   2481651  
  5330.000000   2490433   2499727   2509469   2519720   2530415  
  5320.000000   2541647   2553394   2565799   2578860   2592721  
  5310.000000   2607340   2622811   2639046   2656114   2673942  
  5300.000000   2692630   2712150   2732643   2754099   2776644  
  5290.000000   2800222   2824871   2850438   2876854   2903913  
  5280.000000   2931552   2959652   2988280   3017470   3047375  
  5270.000000   3078040   3109490   3141579   3174095   3206764  
  5260.000000   3239348   3271721   3303856   3335841   3367738  
  5250.000000   3399603   3431316   3462738   3493566   3523628  
  5240.000000   3552701   3580808   3607922   3634231   3659768  
  5230.000000   3684700   3708960   3732586   3755395   3777364  
  5220.000000   3798315   3818300   3837252   3855335   3872559  
  5210.000000   3889105   3904926   3920095   3934447   3947976  
  5200.000000   3960516   3972140   3982812   3992722   4001897  
  5190.000000   4010507   4018501   4025935   4032677   4038752  
  5180.000000   4044064   4048706   4052653   4056028   4058797  
  5170.000000   4061037   4062675   4063767   4064262   4064246  
  5160.000000   4063706   4062737   4061309   4059482   4057201  
  5150.000000   4054513   4051387   4047895   4044032   4039870  
  5140.000000   4035389   4030635   4025579   4020271   4014713  
  5130.000000   4008981   4003096   3997121   3991048   3984894  
  5120.000000   3978624   3972241   3965731   3959123   3952429  
  5110.000000   3945685   3938894   3932072   3925209   3918320  
  5100.000000   3911413   3904520   3897662   3890863   3884117  
  5090.000000   3877417   3870737   3864065   3857387   3850714  
  5080.000000   3844050   3837409   3830781   3824154   3817498  
  5070.000000   3810795   3804025   3797195   3790307   3783383  
  5060.000000   3776426   3769445   3762425   3755358   3748221  
  5050.000000   3741003   3733688   3726274   3718756   3711148  
  5040.000000   3703463   3695733   3687985   3680251   3672548  
  5030.000000   3664884   3657246   3649622   3641997   3634372  
  5020.000000   3626762   3619193   3611697   3604293   3596992  
  5010.000000   3589780   3582649   3575575   3568564   3561618  
  5000.000000   3554774   3548051   3541490   3535097   3528896  
  4990.000000   3522871   3517043   3511395   3505956   3500719  
  4980.000000   3495716   3490935   3486404   3482103   3478065  
  4970.000000   3474277   3470780   3467562   3464663   3462054  
  4960.000000   3459764   3457753   3456051   3454632   3453544  
  4950.000000   3452777   3452382   3452339   3452679   3453355  
  4940.000000   3454379   3455699   3457334   3459240   3461449  
  4930.000000   3463923   3466688   3469704   3472996   3476529  
  4920.000000   3480340   3484412   3488787   3493449   3498426  
  4910.000000   3503686   3509233   3515026   3521059   3527297  
  4900.000000   3533731   3540330   3547074   3553925   3560848  
  4890.000000   3567801   3574738   3581622   3588404   3595055  
  4880.000000   3601526   3607796   3613817   3619577   3625031  
  4870.000000   3630175   3634962   3639392   3643421   3647062  
  4860.000000   3650289   3653137   3655600   3657729   3659524  
  4850.000000   3661036   3662261   3663244   3663989   3664546  
  4840.000000   3664931   3665202   3665376   3665497   3665569  
  4830.000000   3665613   3665625   3665617   3665591   3665563  
  4820.000000   3665544   3665548   3665584   3665656   3665771  
  4810.000000   3665929   3666142   3666422   3666789   3667254  
  4800.000000   3667832   3668521   3669322   3670221   3671208  
  4790.000000   3672268   3673395   3674576   3675806   3677074  
  4780.000000   3678373   3679692   3681024   3682362   3683698  
  4770.000000   3685026   3686334   3687610   3688842   3690022  
  4760.000000   3691145   3692214   3693236   3694221   3695172  
  4750.000000   3696092   3696971   3697804   3698579   3699297  
  4740.000000   3699959   3700583   3701179   3701763   3702342  
  4730.000000   3702912   3703461   3703971   3704425   3704807  
  4720.000000   3705117   3705359   3705557   3705738   3705945  
  4710.000000   3706212   3706583   3707082   3707733   3708535  
  4700.000000   3709487   3710566   3711761   3713052   3714440  
  4690.000000   3715928   3717539   3719288   3721197   3723262  
  4680.000000   3725472   3727781   3730143   3732486   3734763  
  4670.000000   3736925   3738965   3740887   3742735   3744552  
  4660.000000   3746401   3748326   3750373   3752565   3754922  
  4650.000000   3757445   3760137   3762988   3765984   3769105  
  4640.000000   3772320   3775597   3778897   3782190   3785446  
  4630.000000   3788651   3791788   3794853   3797829   3800706  
  4620.000000   3803456   3806054   3808460   3810649   3812585  
  4610.000000   3814261   3815664   3816821   3817751   3818512  
  4600.000000   3819143   3819713   3820251   3820803   3821363  
  4590.000000   3821939   3822484   3822974   3823343   3823559  
  4580.000000   3823564   3823341   3822860   3822134   3821169  
  4570.000000   3820007   3818675   3817227   3815683   3814077  
  4560.000000   3812404   3810671   3808852   3806946   3804935  
  4550.000000   3802832   3800638   3798378   3796061   3793707  
  4540.000000   3791321   3788915   3786496   3784078   3781675  
  4530.000000   3779296   3776947   3774620   3772311   3769998  
  4520.000000   3767688   3765369   3763077   3760821   3758659  
  4510.000000   3756603   3754718   3753011   3751554   3750360  
  4500.000000   3749517   3749043   3749030   3749480   3750471  
  4490.000000   3751984   3754087   3756756   3760065   3763993  
  4480.000000   3768613   3773884   3779855   3786454   3793702  
  4470.000000   3801516   3809917   3818834   3828301   3838256  
  4460.000000   3848731   3859656   3871039   3882796   3894912  
  4450.000000   3907299   3919938   3932759   3945749   3958867  
  4440.000000   3972112   3985460   3998904   4012425   4025990  
  4430.000000   4039574   4053123   4066611   4079974   4093192  
  4420.000000   4106191   4118950   4131377   4143435   4155007  
  4410.000000   4166044   4176428   4186123   4195045   4203205  
  4400.000000   4210577   4217232   4223202   4228603   4233508  
  4390.000000   4238055   4242329   4246466   4250539   4254649  
  4380.000000   4258832   4263140   4267574   4272157   4276889  
  4370.000000   4281798   4286903   4292235   4297816   4303655  
  4360.000000   4309743   4316061   4322558   4329202   4335907  
  4350.000000   4342639   4349286   4355830   4362174   4368354  
  4340.000000   4374324   4380150   4385760   4391090   4395857  
  4330.000000   4399711   4402129   4402630   4400792   4396466  
  4320.000000   4389783   4381225   4371489   4361412   4351751  
  4310.000000   4343123   4335861   4330085   4325687   4322479  
  4300.000000   4320224   4318725   4317839   4317461   4317544  
  4290.000000   4318018   4318878   4320069   4321616   4323489  
  4280.000000   4325719   4328274   4331135   4334246   4337542  
  4270.000000   4340971   4344468   4347984   4351413   4354610  
  4260.000000   4357329   4359287   4360159   4359697   4357753  
  4250.000000   4354377   4349773   4344315   4338419   4332525  
  4240.000000   4326958   4321957   4317591   4313858   4310649  
  4230.000000   4307855   4305345   4303021   4300806   4298637  
  4220.000000   4296500   4294372   4292299   4290311   4288509  
  4210.000000   4286958   4285770   4284988   4284674   4284806  
  4200.000000   4285369   4286275   4287467   4288837   4290338  
  4190.000000   4291895   4293512   4295161   4296896   4298715  
  4180.000000   4300680   4302779   4305056   4307487   4310116  
  4170.000000   4312942   4316041   4319446   4323248   4327476  
  4160.000000   4332192   4337373   4343034   4349111   4355602  
  4150.000000   4362439   4369633   4377126   4384945   4393041  
  4140.000000   4401456   4410158   4419215   4428615   4438438  
  4130.000000   4448669   4459364   4470482   4482043   4493997  
  4120.000000   4506364   4519116   4532303   4545925   4560039  
  4110.000000   4574633   4589723   4605246   4621156   4637342  
  4100.000000   4653721   4670182   4686665   4703115   4719533  
  4090.000000   4735938   4752372   4768884   4785505   4802264  
  4080.000000   4819144   4836143   4853205   4870307   4887359  
  4070.000000   4904314   4921048   4937502   4953550   4969161  
  4060.000000   4984250   4998840   5012878   5026409   5039374  
  4050.000000   5051813   5063663   5074987   5085745   5096028  
  4040.000000   5105798   5115134   5123962   5132331   5140148  
  4030.000000   5147461   5154187   5160375   5165941   5170902  
  4020.000000   5175138   5178668   5181444   5183529   5184893  
  4010.000000   5185673   5185951   5185770   5184967   5183610  
  4000.000000   5181976  
##END= 
