##TITLE= Sample 016 By ssteindl date Donnerstag, November 22 2018
##JCAMP-DX= 4.24
##DATA TYPE= INFRARED SPECTRUM
##ORIGIN= Exported PE Spectrum Data File
##OWNER= Sandra Steindl
##DATE= 18/11/22
##TIME= 13:25:37.00
##SPECTROMETER/DATA SYSTEM= PERKIN-ELMER Frontier FT-IR/NIR IR
##INSTRUMENT PARAMETERS=
  APODIZATION=stark
  DETECTOR=INGAAS
##RESOLUTION= 16.000000
##DELTAX= -2.000000
##XUNITS= 1/CM
##YUNITS= A
##XFACTOR= 1.00
##YFACTOR= 0.00000011920928955078
##FIRSTX= 10000.00
##LASTX= 4000.00
##NPOINTS= 3001
##FIRSTY= 0.236629
##MAXY= 0.644986
##MINY= 0.200449
##XYDATA= (X++(Y..Y))
 10000.000000   1984990   1987238   1988799   1988713   1986718  
  9990.000000   1983087   1978115   1972312   1966703   1962743  
  9980.000000   1961594   1963810   1969109   1976475   1984358  
  9970.000000   1991173   1995767   1997643   1996948   1994267  
  9960.000000   1990335   1985829   1981275   1977111   1973763  
  9950.000000   1971656   1971127   1972248   1974679   1977663  
  9940.000000   1980138   1981079   1979763   1976050   1970395  
  9930.000000   1963741   1957266   1952082   1949014   1948448  
  9920.000000   1950286   1954005   1958741   1963483   1967216  
  9910.000000   1969166   1968929   1966595   1962735   1958220  
  9900.000000   1954033   1950899   1949173   1948675   1948854  
  9890.000000   1948980   1948366   1946663   1943845   1940355  
  9880.000000   1936842   1934138   1932925   1933605   1936122  
  9870.000000   1939879   1943916   1947012   1948104   1946420  
  9860.000000   1941769   1934488   1925438   1915766   1906746  
  9850.000000   1899516   1894951   1893547   1895325   1899889  
  9840.000000   1906330   1913500   1920091   1925086   1927972  
  9830.000000   1928912   1928698   1928325   1928665   1929893  
  9820.000000   1931484   1932218   1930798   1926321   1918825  
  9810.000000   1909388   1899824   1892150   1887826   1887414  
  9800.000000   1890373   1895472   1901200   1906334   1910168  
  9790.000000   1912580   1913829   1914300   1914347   1914147  
  9780.000000   1913841   1913461   1913106   1912730   1912210  
  9770.000000   1911225   1909414   1906592   1902893   1898979  
  9760.000000   1895769   1894293   1895183   1898521   1903737  
  9750.000000   1909818   1915651   1920277   1923149   1924043  
  9740.000000   1923028   1920219   1915810   1910046   1903458  
  9730.000000   1896878   1891438   1888274   1888137   1891143  
  9720.000000   1896559   1903179   1909544   1914626   1917963  
  9710.000000   1919892   1921183   1922708   1924978   1927894  
  9700.000000   1930791   1932608   1932340   1929273   1923314  
  9690.000000   1914901   1904945   1894510   1884575   1875878  
  9680.000000   1868810   1863541   1860025   1858204   1857950  
  9670.000000   1859230   1861935   1865972   1871082   1876865  
  9660.000000   1882769   1888120   1892335   1894897   1895567  
  9650.000000   1894231   1891000   1886052   1879738   1872522  
  9640.000000   1865072   1858192   1852704   1849267   1848085  
  9630.000000   1848867   1850769   1852766   1853932   1853869  
  9620.000000   1852795   1851474   1850855   1851637   1853996  
  9610.000000   1857426   1861044   1863816   1865077   1864612  
  9600.000000   1862742   1860022   1856992   1853982   1851100  
  9590.000000   1848431   1846178   1844790   1844783   1846542  
  9580.000000   1850004   1854609   1859375   1863264   1865506  
  9570.000000   1865882   1864697   1862603   1860246   1858038  
  9560.000000   1856047   1854136   1852174   1850211   1848500  
  9550.000000   1847320   1846742   1846433   1845696   1843718  
  9540.000000   1839934   1834362   1827663   1820985   1815542  
  9530.000000   1812243   1811415   1812821   1815823   1819679  
  9520.000000   1823701   1827367   1830240   1831937   1832138  
  9510.000000   1830662   1827653   1823584   1819277   1815565  
  9500.000000   1813070   1811838   1811333   1810605   1808717  
  9490.000000   1805202   1800332   1795073   1790729   1788423  
  9480.000000   1788669   1791189   1795067   1799114   1802300  
  9470.000000   1804097   1804576   1804315   1804078   1804567  
  9460.000000   1806160   1808876   1812399   1816181   1819581  
  9450.000000   1821923   1822638   1821320   1817868   1812511  
  9440.000000   1805829   1798628   1791786   1786026   1781775  
  9430.000000   1779105   1777765   1777395   1777584   1778125  
  9420.000000   1778925   1780090   1781759   1784064   1787047  
  9410.000000   1790563   1794321   1797795   1800382   1801396  
  9400.000000   1800323   1796917   1791423   1784599   1777615  
  9390.000000   1771776   1768108   1767091   1768470   1771416  
  9380.000000   1774781   1777500   1778875   1778756   1777463  
  9370.000000   1775575   1773640   1771991   1770719   1769759  
  9360.000000   1769060   1768653   1768675   1769257   1770404  
  9350.000000   1771901   1773315   1774113   1773853   1772320  
  9340.000000   1769601   1766008   1761967   1757885   1754107  
  9330.000000   1750909   1748548   1747257   1747227   1748500  
  9320.000000   1750886   1753895   1756788   1758769   1759239  
  9310.000000   1758056   1755610   1752731   1750422   1749551  
  9300.000000   1750593   1753461   1757554   1761916   1765565  
  9290.000000   1767739   1768079   1766627   1763709   1759834  
  9280.000000   1755542   1751389   1747871   1745411   1744314  
  9270.000000   1744719   1746542   1749426   1752726   1755630  
  9260.000000   1757332   1757292   1755396   1751989   1747791  
  9250.000000   1743694   1740546   1738898   1738872   1740179  
  9240.000000   1742258   1744493   1746352   1747522   1747899  
  9230.000000   1747578   1746749   1745603   1744296   1742916  
  9220.000000   1741556   1740285   1739169   1738211   1737365  
  9210.000000   1736551   1735691   1734775   1733864   1733125  
  9200.000000   1732755   1732919   1733627   1734716   1735869  
  9190.000000   1736736   1737056   1736767   1736025   1735121  
  9180.000000   1734354   1733883   1733667   1733440   1732829  
  9170.000000   1731492   1729297   1726370   1723069   1719879  
  9160.000000   1717248   1715473   1714602   1714482   1714839  
  9150.000000   1715393   1715958   1716443   1716855   1717219  
  9140.000000   1717535   1717744   1717749   1717485   1716987  
  9130.000000   1716417   1716042   1716140   1716899   1718314  
  9120.000000   1720157   1721989   1723299   1723643   1722816  
  9110.000000   1720861   1718076   1714898   1711814   1709221  
  9100.000000   1707348   1706270   1705949   1706328   1707322  
  9090.000000   1708879   1710896   1713250   1715723   1718066  
  9080.000000   1720028   1721422   1722164   1722255   1721748  
  9070.000000   1720707   1719173   1717184   1714792   1712133  
  9060.000000   1709432   1706965   1704958   1703501   1702474  
  9050.000000   1701557   1700317   1698373   1695577   1692084  
  9040.000000   1688342   1684963   1682544   1681485   1681866  
  9030.000000   1683470   1685880   1688631   1691329   1693714  
  9020.000000   1695673   1697172   1698199   1698702   1698627  
  9010.000000   1697924   1696660   1694971   1693086   1691228  
  9000.000000   1689570   1688185   1687033   1686040   1685153  
  8990.000000   1684407   1683916   1683816   1684195   1684999  
  8980.000000   1686032   1686982   1687556   1687576   1687082  
  8970.000000   1686335   1685763   1685817   1686811   1688832  
  8960.000000   1691698   1695028   1698341   1701205   1703323  
  8950.000000   1704589   1705041   1704819   1704084   1702986  
  8940.000000   1701646   1700161   1698640   1697192   1695909  
  8930.000000   1694839   1693942   1693131   1692255   1691231  
  8920.000000   1690044   1688816   1687749   1687084   1687004  
  8910.000000   1687542   1688544   1689685   1690589   1690908  
  8900.000000   1690472   1689297   1687628   1685806   1684190  
  8890.000000   1683014   1682357   1682127   1682144   1682225  
  8880.000000   1682299   1682427   1682797   1683625   1685040  
  8870.000000   1687003   1689278   1691499   1693299   1694445  
  8860.000000   1694952   1695078   1695247   1695876   1697197  
  8850.000000   1699176   1701489   1703653   1705169   1705716  
  8840.000000   1705253   1704021   1702442   1700962   1699906  
  8830.000000   1699392   1699333   1699486   1699568   1699353  
  8820.000000   1698748   1697814   1696747   1695836   1695391  
  8810.000000   1695678   1696830   1698817   1701413   1704253  
  8800.000000   1706904   1708994   1710341   1710991   1711227  
  8790.000000   1711408   1711846   1712617   1713536   1714187  
  8780.000000   1714117   1713029   1710951   1708282   1705688  
  8770.000000   1703904   1703480   1704614   1707088   1710357  
  8760.000000   1713730   1716574   1718483   1719340   1719312  
  8750.000000   1718744   1718081   1717729   1718021   1719115  
  8740.000000   1721002   1723462   1726129   1728564   1730364  
  8730.000000   1731313   1731428   1731018   1730567   1730602  
  8720.000000   1731498   1733348   1735925   1738753   1741254  
  8710.000000   1742937   1743529   1743048   1741761   1740103  
  8700.000000   1738535   1737438   1737029   1737329   1738196  
  8690.000000   1739355   1740483   1741274   1741540   1741256  
  8680.000000   1740594   1739867   1739453   1739648   1740603  
  8670.000000   1742245   1744346   1746572   1748638   1750386  
  8660.000000   1751845   1753184   1754627   1756349   1758419  
  8650.000000   1760780   1763298   1765799   1768139   1770202  
  8640.000000   1771916   1773238   1774159   1774721   1775029  
  8630.000000   1775260   1775627   1776329   1777466   1779011  
  8620.000000   1780806   1782620   1784245   1785562   1786578  
  8610.000000   1787387   1788107   1788818   1789529   1790212  
  8600.000000   1790858   1791549   1792461   1793826   1795805  
  8590.000000   1798422   1801493   1804671   1807537   1809747  
  8580.000000   1811154   1811817   1811958   1811825   1811608  
  8570.000000   1811360   1811027   1810525   1809846   1809123  
  8560.000000   1808602   1808585   1809287   1810770   1812861  
  8550.000000   1815243   1817530   1819414   1820746   1821562  
  8540.000000   1822060   1822495   1823100   1823985   1825135  
  8530.000000   1826399   1827574   1828459   1828939   1829025  
  8520.000000   1828860   1828687   1828769   1829329   1830457  
  8510.000000   1832103   1834069   1836096   1837939   1839444  
  8500.000000   1840591   1841468   1842226   1842985   1843779  
  8490.000000   1844526   1845084   1845293   1845084   1844499  
  8480.000000   1843726   1843028   1842673   1842860   1843669  
  8470.000000   1845055   1846859   1848878   1850916   1852828  
  8460.000000   1854547   1856070   1857453   1858766   1860085  
  8450.000000   1861439   1862834   1864222   1865550   1866755  
  8440.000000   1867806   1868705   1869478   1870189   1870896  
  8430.000000   1871672   1872568   1873649   1874955   1876524  
  8420.000000   1878320   1880254   1882140   1883756   1884876  
  8410.000000   1885362   1885223   1884625   1883846   1883173  
  8400.000000   1882797   1882732   1882809   1882762   1882347  
  8390.000000   1881476   1880266   1879040   1878181   1878021  
  8380.000000   1878666   1879995   1881670   1883296   1884534  
  8370.000000   1885225   1885421   1885314   1885133   1885021  
  8360.000000   1884986   1884885   1884519   1883712   1882412  
  8350.000000   1880715   1878853   1877122   1875794   1875054  
  8340.000000   1874938   1875353   1876101   1876951   1877694  
  8330.000000   1878197   1878431   1878462   1878419   1878442  
  8320.000000   1878622   1878978   1879450   1879936   1880340  
  8310.000000   1880616   1880782   1880909   1881063   1881264  
  8300.000000   1881444   1881462   1881151   1880391   1879169  
  8290.000000   1877599   1875885   1874263   1872913   1871932  
  8280.000000   1871314   1870999   1870908   1870996   1871236  
  8270.000000   1871609   1872041   1872399   1872500   1872182  
  8260.000000   1871378   1870159   1868738   1867392   1866370  
  8250.000000   1865787   1865571   1865499   1865280   1864693  
  8240.000000   1863670   1862329   1860910   1859681   1858820  
  8230.000000   1858346   1858117   1857894   1857458   1856691  
  8220.000000   1855626   1854417   1853265   1852351   1851743  
  8210.000000   1851423   1851277   1851191   1851076   1850905  
  8200.000000   1850686   1850426   1850089   1849578   1848746  
  8190.000000   1847443   1845570   1843133   1840256   1837169  
  8180.000000   1834149   1831466   1829308   1827766   1826801  
  8170.000000   1826282   1825999   1825724   1825243   1824413  
  8160.000000   1823177   1821571   1819715   1817765   1815892  
  8150.000000   1814214   1812795   1811611   1810596   1809650  
  8140.000000   1808698   1807697   1806644   1805565   1804491  
  8130.000000   1803438   1802408   1801391   1800387   1799413  
  8120.000000   1798519   1797758   1797175   1796778   1796515  
  8110.000000   1796294   1795991   1795508   1794783   1793828  
  8100.000000   1792711   1791534   1790401   1789374   1788455  
  8090.000000   1787572   1786606   1785427   1783940   1782125  
  8080.000000   1780060   1777913   1775905   1774251   1773093  
  8070.000000   1772462   1772254   1772269   1772268   1772055  
  8060.000000   1771538   1770753   1769849   1769012   1768399  
  8050.000000   1768047   1767870   1767665   1767213   1766341  
  8040.000000   1765017   1763352   1761583   1759988   1758793  
  8030.000000   1758118   1757934   1758107   1758446   1758786  
  8020.000000   1759027   1759156   1759210   1759239   1759251  
  8010.000000   1759194   1758969   1758459   1757594   1756363  
  8000.000000   1754857   1753215   1751603   1750158   1748947  
  7990.000000   1747975   1747190   1746534   1745973   1745522  
  7980.000000   1745229   1745155   1745317   1745673   1746110  
  7970.000000   1746479   1746649   1746554   1746221   1745754  
  7960.000000   1745293   1744938   1744717   1744550   1744300  
  7950.000000   1743807   1742980   1741812   1740400   1738898  
  7940.000000   1737463   1736210   1735181   1734372   1733765  
  7930.000000   1733363   1733204   1733341   1733799   1734533  
  7920.000000   1735417   1736261   1736880   1737136   1737008  
  7910.000000   1736570   1735982   1735409   1734982   1734758  
  7900.000000   1734731   1734856   1735085   1735391   1735754  
  7890.000000   1736161   1736575   1736941   1737193   1737293  
  7880.000000   1737238   1737076   1736880   1736718   1736615  
  7870.000000   1736550   1736460   1736282   1735981   1735574  
  7860.000000   1735116   1734672   1734281   1733932   1733579  
  7850.000000   1733165   1732659   1732084   1731513   1731037  
  7840.000000   1730732   1730624   1730686   1730855   1731062  
  7830.000000   1731265   1731449   1731624   1731796   1731958  
  7820.000000   1732078   1732127   1732087   1731975   1731827  
  7810.000000   1731678   1731531   1731340   1731020   1730485  
  7800.000000   1729690   1728668   1727528   1726426   1725497  
  7790.000000   1724814   1724346   1723995   1723629   1723162  
  7780.000000   1722580   1721953   1721393   1720994   1720776  
  7770.000000   1720665   1720517   1720174   1719532   1718577  
  7760.000000   1717398   1716148   1714984   1714017   1713272  
  7750.000000   1712702   1712211   1711702   1711114   1710432  
  7740.000000   1709687   1708920   1708166   1707433   1706707  
  7730.000000   1705965   1705199   1704419   1703663   1702981  
  7720.000000   1702421   1702017   1701783   1701713   1701787  
  7710.000000   1701968   1702209   1702438   1702570   1702507  
  7700.000000   1702165   1701492   1700502   1699279   1697975  
  7690.000000   1696765   1695808   1695192   1694909   1694856  
  7680.000000   1694879   1694825   1694604   1694221   1693760  
  7670.000000   1693357   1693131   1693149   1693395   1693793  
  7660.000000   1694238   1694647   1694985   1695264   1695516  
  7650.000000   1695753   1695941   1695994   1695809   1695298  
  7640.000000   1694446   1693317   1692053   1690830   1689805  
  7630.000000   1689084   1688694   1688601   1688736   1689025  
  7620.000000   1689413   1689856   1690323   1690774   1691167  
  7610.000000   1691460   1691640   1691722   1691768   1691848  
  7600.000000   1692033   1692352   1692793   1693302   1693807  
  7590.000000   1694242   1694573   1694800   1694949   1695050  
  7580.000000   1695121   1695156   1695137   1695045   1694882  
  7570.000000   1694677   1694485   1694376   1694411   1694625  
  7560.000000   1695023   1695579   1696249   1696976   1697711  
  7550.000000   1698407   1699035   1699577   1700040   1700445  
  7540.000000   1700839   1701275   1701819   1702510   1703367  
  7530.000000   1704351   1705395   1706392   1707249   1707896  
  7520.000000   1708323   1708581   1708778   1709052   1709532  
  7510.000000   1710305   1711401   1712782   1714373   1716069  
  7500.000000   1717779   1719417   1720935   1722297   1723489  
  7490.000000   1724504   1725362   1726104   1726814   1727592  
  7480.000000   1728553   1729781   1731311   1733106   1735075  
  7470.000000   1737081   1738997   1740727   1742244   1743573  
  7460.000000   1744788   1745976   1747224   1748600   1750155  
  7450.000000   1751918   1753912   1756137   1758569   1761142  
  7440.000000   1763756   1766289   1768630   1770703   1772498  
  7430.000000   1774059   1775492   1776915   1778448   1780161  
  7420.000000   1782085   1784201   1786458   1788788   1791123  
  7410.000000   1793412   1795622   1797755   1799841   1801933  
  7400.000000   1804093   1806369   1808780   1811297   1813858  
  7390.000000   1816380   1818798   1821082   1823251   1825365  
  7380.000000   1827490   1829675   1831915   1834166   1836359  
  7370.000000   1838439   1840390   1842248   1844087   1845985  
  7360.000000   1847985   1850077   1852191   1854229   1856103  
  7350.000000   1857765   1859233   1860578   1861904   1863307  
  7340.000000   1864848   1866540   1868354   1870243   1872160  
  7330.000000   1874076   1875981   1877886   1879807   1881765  
  7320.000000   1883770   1885821   1887900   1889974   1891995  
  7310.000000   1893913   1895683   1897289   1898742   1900085  
  7300.000000   1901372   1902663   1903988   1905352   1906727  
  7290.000000   1908067   1909323   1910461   1911465   1912343  
  7280.000000   1913109   1913792   1914421   1915040   1915698  
  7270.000000   1916457   1917375   1918495   1919826   1921328  
  7260.000000   1922929   1924521   1926009   1927314   1928416  
  7250.000000   1929339   1930158   1930966   1931866   1932937  
  7240.000000   1934243   1935804   1937623   1939660   1941866  
  7230.000000   1944151   1946433   1948614   1950633   1952454  
  7220.000000   1954109   1955665   1957243   1958963   1960955  
  7210.000000   1963295   1966028   1969127   1972535   1976150  
  7200.000000   1979872   1983601   1987268   1990819   1994247  
  7190.000000   1997558   2000803   2004027   2007299   2010653  
  7180.000000   2014113   2017650   2021221   2024751   2028190  
  7170.000000   2031504   2034725   2037913   2041178   2044602  
  7160.000000   2048251   2052114   2056148   2060266   2064409  
  7150.000000   2068540   2072695   2076940   2081384   2086094  
  7140.000000   2091110   2096382   2101836   2107353   2112862  
  7130.000000   2118314   2123742   2129191   2134750   2140466  
  7120.000000   2146381   2152471   2158713   2165042   2171422  
  7110.000000   2177811   2184206   2190607   2197053   2203579  
  7100.000000   2210247   2217099   2224170   2231440   2238859  
  7090.000000   2246322   2253725   2260975   2268041   2274945  
  7080.000000   2281779   2288649   2295657   2302847   2310214  
  7070.000000   2317693   2325213   2332709   2340155   2347549  
  7060.000000   2354908   2362231   2369504   2376694   2383779  
  7050.000000   2390767   2397706   2404673   2411744   2418967  
  7040.000000   2426329   2433770   2441202   2448544   2455743  
  7030.000000   2462797   2469727   2476569   2483337   2490031  
  7020.000000   2496633   2503136   2509553   2515927   2522301  
  7010.000000   2528717   2535168   2541625   2548015   2554284  
  7000.000000   2560388   2566339   2572161   2577906   2583600  
  6990.000000   2589257   2594851   2600354   2605721   2610932  
  6980.000000   2615957   2620790   2625405   2629810   2634004  
  6970.000000   2638042   2641985   2645931   2649936   2654035  
  6960.000000   2658178   2662285   2666232   2669930   2673324  
  6950.000000   2676438   2679333   2682101   2684809   2687505  
  6940.000000   2690189   2692857   2695491   2698101   2700690  
  6930.000000   2703274   2705840   2708373   2710833   2713204  
  6920.000000   2715471   2717651   2719760   2721818   2723813  
  6910.000000   2725727   2727526   2729204   2730773   2732278  
  6900.000000   2733766   2735276   2736804   2738325   2739788  
  6890.000000   2741165   2742450   2743685   2744925   2746224  
  6880.000000   2747604   2749049   2750516   2751960   2753348  
  6870.000000   2754676   2755952   2757190   2758385   2759521  
  6860.000000   2760579   2761562   2762502   2763466   2764515  
  6850.000000   2765687   2766963   2768273   2769514   2770603  
  6840.000000   2771497   2772228   2772873   2773529   2774260  
  6830.000000   2775082   2775953   2776802   2777557   2778179  
  6820.000000   2778659   2779019   2779284   2779480   2779616  
  6810.000000   2779714   2779799   2779924   2780139   2780485  
  6800.000000   2780955   2781500   2782028   2782446   2782681  
  6790.000000   2782717   2782583   2782347   2782079   2781832  
  6780.000000   2781623   2781450   2781298   2781157   2781023  
  6770.000000   2780897   2780770   2780617   2780406   2780105  
  6760.000000   2779703   2779220   2778700   2778207   2777795  
  6750.000000   2777506   2777354   2777338   2777441   2777639  
  6740.000000   2777901   2778181   2778421   2778552   2778516  
  6730.000000   2778275   2777837   2777247   2776581   2775922  
  6720.000000   2775339   2774873   2774537   2774333   2774250  
  6710.000000   2774282   2774409   2774603   2774801   2774934  
  6700.000000   2774923   2774716   2774298   2773699   2772979  
  6690.000000   2772203   2771418   2770643   2769862   2769054  
  6680.000000   2768194   2767283   2766328   2765355   2764379  
  6670.000000   2763417   2762474   2761564   2760700   2759902  
  6660.000000   2759165   2758465   2757737   2756902   2755883  
  6650.000000   2754640   2753190   2751603   2749974   2748394  
  6640.000000   2746909   2745520   2744185   2742862   2741519  
  6630.000000   2740172   2738854   2737608   2736445   2735344  
  6620.000000   2734244   2733081   2731806   2730411   2728926  
  6610.000000   2727402   2725878   2724370   2722861   2721319  
  6600.000000   2719715   2718048   2716339   2714631   2712957  
  6590.000000   2711339   2709774   2708250   2706752   2705278  
  6580.000000   2703834   2702423   2701036   2699648   2698222  
  6570.000000   2696726   2695155   2693531   2691902   2690318  
  6560.000000   2688807   2687364   2685953   2684523   2683036  
  6550.000000   2681482   2679891   2678308   2676782   2675335  
  6540.000000   2673961   2672629   2671303   2669957   2668594  
  6530.000000   2667234   2665911   2664654   2663478   2662383  
  6520.000000   2661357   2660385   2659456   2658556   2657674  
  6510.000000   2656788   2655877   2654913   2653878   2652763  
  6500.000000   2651571   2650315   2649011   2647679   2646337  
  6490.000000   2645012   2643733   2642531   2641431   2640436  
  6480.000000   2639527   2638659   2637773   2636817   2635761  
  6470.000000   2634605   2633382   2632146   2630952   2629845  
  6460.000000   2628851   2627975   2627206   2626517   2625872  
  6450.000000   2625227   2624539   2623767   2622889   2621906  
  6440.000000   2620850   2619766   2618711   2617726   2616836  
  6430.000000   2616037   2615315   2614650   2614034   2613467  
  6420.000000   2612960   2612511   2612113   2611738   2611361  
  6410.000000   2610963   2610549   2610145   2609795   2609535  
  6400.000000   2609388   2609349   2609393   2609480   2609576  
  6390.000000   2609653   2609695   2609688   2609618   2609470  
  6380.000000   2609233   2608912   2608532   2608138   2607781  
  6370.000000   2607504   2607319   2607211   2607128   2607012  
  6360.000000   2606803   2606470   2606003   2605424   2604767  
  6350.000000   2604072   2603374   2602700   2602062   2601461  
  6340.000000   2600880   2600292   2599659   2598955   2598165  
  6330.000000   2597304   2596402   2595510   2594667   2593900  
  6320.000000   2593200   2592543   2591890   2591212   2590488  
  6310.000000   2589718   2588902   2588036   2587100   2586072  
  6300.000000   2584927   2583672   2582335   2580971   2579634  
  6290.000000   2578364   2577158   2575988   2574798   2573545  
  6280.000000   2572199   2570771   2569285   2567779   2566271  
  6270.000000   2564763   2563235   2561663   2560030   2558337  
  6260.000000   2556597   2554828   2553039   2551229   2549385  
  6250.000000   2547504   2545585   2543651   2541725   2539834  
  6240.000000   2537983   2536164   2534353   2532531   2530689  
  6230.000000   2528833   2526983   2525158   2523367   2521602  
  6220.000000   2519848   2518084   2516300   2514491   2512668  
  6210.000000   2510839   2509010   2507184   2505365   2503564  
  6200.000000   2501806   2500120   2498533   2497054   2495670  
  6190.000000   2494341   2493021   2491670   2490268   2488818  
  6180.000000   2487341   2485862   2484399   2482956   2481531  
  6170.000000   2480120   2478724   2477347   2475996   2474666  
  6160.000000   2473337   2471986   2470590   2469143   2467662  
  6150.000000   2466182   2464743   2463368   2462059   2460789  
  6140.000000   2459526   2458240   2456928   2455606   2454307  
  6130.000000   2453054   2451855   2450690   2449532   2448357  
  6120.000000   2447166   2445981   2444845   2443794   2442847  
  6110.000000   2441988   2441187   2440400   2439605   2438799  
  6100.000000   2438009   2437264   2436598   2436017   2435517  
  6090.000000   2435075   2434683   2434331   2434034   2433795  
  6080.000000   2433623   2433498   2433396   2433282   2433143  
  6070.000000   2432973   2432800   2432654   2432575   2432579  
  6060.000000   2432675   2432847   2433084   2433366   2433694  
  6050.000000   2434068   2434506   2435018   2435629   2436346  
  6040.000000   2437188   2438153   2439243   2440435   2441715  
  6030.000000   2443051   2444435   2445862   2447357   2448941  
  6020.000000   2450645   2452467   2454390   2456361   2458330  
  6010.000000   2460242   2462081   2463852   2465596   2467350  
  6000.000000   2469160   2471036   2472986   2474991   2477043  
  5990.000000   2479129   2481255   2483421   2485638   2487900  
  5980.000000   2490212   2492571   2494993   2497492   2500096  
  5970.000000   2502814   2505654   2508592   2511610   2514671  
  5960.000000   2517767   2520886   2524046   2527253   2530525  
  5950.000000   2533861   2537265   2540734   2544279   2547910  
  5940.000000   2551644   2555483   2559418   2563418   2567450  
  5930.000000   2571479   2575486   2579467   2583426   2587361  
  5920.000000   2591255   2595073   2598767   2602300   2605655  
  5910.000000   2608845   2611904   2614876   2617793   2620674  
  5900.000000   2623516   2626321   2629091   2631861   2634664  
  5890.000000   2637548   2640526   2643591   2646690   2649763  
  5880.000000   2652736   2655562   2658214   2660694   2663014  
  5870.000000   2665191   2667242   2669185   2671044   2672859  
  5860.000000   2674675   2676542   2678488   2680523   2682627  
  5850.000000   2684769   2686911   2689029   2691115   2693179  
  5840.000000   2695240   2697316   2699422   2701565   2703753  
  5830.000000   2705991   2708282   2710619   2712987   2715356  
  5820.000000   2717695   2719982   2722215   2724415   2726620  
  5810.000000   2728870   2731185   2733564   2735968   2738359  
  5800.000000   2740680   2742920   2745063   2747144   2749166  
  5790.000000   2751150   2753059   2754860   2756461   2757786  
  5780.000000   2758730   2759222   2759188   2758613   2757499  
  5770.000000   2755926   2753996   2751866   2749676   2747563  
  5760.000000   2745595   2743805   2742158   2740615   2739122  
  5750.000000   2737665   2736239   2734874   2733592   2732409  
  5740.000000   2731326   2730325   2729396   2728521   2727701  
  5730.000000   2726925   2726191   2725476   2724760   2724020  
  5720.000000   2723252   2722465   2721693   2720965   2720312  
  5710.000000   2719738   2719234   2718777   2718343   2717918  
  5700.000000   2717500   2717093   2716700   2716323   2715952  
  5690.000000   2715584   2715215   2714858   2714523   2714226  
  5680.000000   2713959   2713704   2713417   2713052   2712555  
  5670.000000   2711890   2711020   2709927   2708592   2707012  
  5660.000000   2705190   2703162   2700981   2698732   2696494  
  5650.000000   2694341   2692305   2690392   2688568   2686800  
  5640.000000   2685055   2683329   2681634   2679993   2678420  
  5630.000000   2676912   2675452   2674013   2672579   2671146  
  5620.000000   2669730   2668352   2667034   2665779   2664583  
  5610.000000   2663429   2662307   2661214   2660160   2659152  
  5600.000000   2658197   2657283   2656393   2655506   2654609  
  5590.000000   2653702   2652796   2651901   2651022   2650149  
  5580.000000   2649260   2648335   2647360   2646339   2645290  
  5570.000000   2644236   2643188   2642151   2641112   2640058  
  5560.000000   2638977   2637874   2636757   2635639   2634524  
  5550.000000   2633402   2632254   2631061   2629817   2628534  
  5540.000000   2627238   2625961   2624725   2623541   2622403  
  5530.000000   2621299   2620221   2619171   2618156   2617183  
  5520.000000   2616250   2615343   2614436   2613504   2612530  
  5510.000000   2611510   2610450   2609357   2608231   2607067  
  5500.000000   2605852   2604588   2603289   2601994   2600742  
  5490.000000   2599567   2598466   2597407   2596329   2595171  
  5480.000000   2593884   2592459   2590913   2589292   2587638  
  5470.000000   2585984   2584335   2582686   2581018   2579320  
  5460.000000   2577584   2575806   2573976   2572082   2570105  
  5450.000000   2568041   2565899   2563711   2561521   2559372  
  5440.000000   2557294   2555293   2553362   2551484   2549659  
  5430.000000   2547889   2546189   2544559   2542989   2541447  
  5420.000000   2539907   2538351   2536805   2535315   2533963  
  5410.000000   2532799   2531859   2531109   2530503   2529968  
  5400.000000   2529474   2529004   2528598   2528288   2528119  
  5390.000000   2528088   2528190   2528380   2528651   2528996  
  5380.000000   2529460   2530074   2530886   2531891   2533085  
  5370.000000   2534414   2535858   2537375   2538991   2540697  
  5360.000000   2542543   2544517   2546661   2548955   2551455  
  5350.000000   2554170   2557194   2560556   2564342   2568542  
  5340.000000   2573195   2578244   2583721   2589575   2595861  
  5330.000000   2602537   2609657   2617156   2625071   2633337  
  5320.000000   2642026   2651120   2660752   2670938   2681819  
  5310.000000   2693372   2705684   2718671   2732381   2746730  
  5300.000000   2761787   2777511   2794022   2811314   2829515  
  5290.000000   2848604   2868650   2889550   2911273   2933639  
  5280.000000   2956586   2979981   3003855   3028205   3053162  
  5270.000000   3078765   3105070   3131981   3159360   3186988  
  5260.000000   3214684   3242333   3269917   3297494   3325118  
  5250.000000   3352817   3380477   3407943   3434943   3461303  
  5240.000000   3486841   3511586   3535552   3558920   3581746  
  5230.000000   3604158   3626081   3647497   3668213   3688174  
  5220.000000   3707227   3725433   3742769   3759409   3775392  
  5210.000000   3790883   3805844   3820322   3834157   3847321  
  5200.000000   3859651   3871188   3881875   3891852   3901117  
  5190.000000   3909801   3917849   3925317   3932096   3938224  
  5180.000000   3943627   3948394   3952502   3956060   3959035  
  5170.000000   3961502   3963399   3964784   3965606   3965942  
  5160.000000   3965766   3965155   3964076   3962582   3960632  
  5150.000000   3958281   3955510   3952395   3948933   3945189  
  5140.000000   3941142   3936830   3932224   3927368   3922263  
  5130.000000   3916978   3911531   3905981   3900322   3894571  
  5120.000000   3888699   3882714   3876607   3870412   3864149  
  5110.000000   3857861   3851560   3845269   3838979   3832699  
  5100.000000   3826424   3820171   3813950   3807780   3801667  
  5090.000000   3795613   3789611   3783653   3777728   3771833  
  5080.000000   3765959   3760102   3754249   3748388   3742503  
  5070.000000   3736586   3730630   3724639   3718611   3712551  
  5060.000000   3706449   3700302   3694097   3687831   3681499  
  5050.000000   3675110   3668667   3662179   3655644   3649065  
  5040.000000   3642436   3635762   3629051   3622321   3615592  
  5030.000000   3608887   3602224   3595614   3589069   3582592  
  5020.000000   3576199   3569894   3563704   3557633   3551704  
  5010.000000   3545915   3540281   3534789   3529455   3524270  
  5000.000000   3519261   3514425   3509799   3505379   3501198  
  4990.000000   3497244   3493542   3490070   3486854   3483864  
  4980.000000   3481130   3478622   3476376   3474366   3472638  
  4970.000000   3471179   3470047   3469232   3468794   3468714  
  4960.000000   3469042   3469747   3470871   3472378   3474312  
  4950.000000   3476637   3479397   3482548   3486123   3490069  
  4940.000000   3494408   3499083   3504119   3509465   3515153  
  4930.000000   3521140   3527464   3534090   3541062   3548352  
  4920.000000   3556003   3563985   3572328   3580990   3589983  
  4910.000000   3599264   3608844   3618694   3628831   3639235  
  4900.000000   3649909   3660817   3671924   3683172   3694499  
  4890.000000   3705842   3717137   3728339   3739386   3750248  
  4880.000000   3760859   3771192   3781179   3790799   3799985  
  4870.000000   3808730   3816968   3824707   3831892   3838548  
  4860.000000   3844639   3850217   3855265   3859851   3863973  
  4850.000000   3867702   3871038   3874053   3876752   3879208  
  4840.000000   3881429   3883481   3885368   3887140   3888795  
  4830.000000   3890369   3891854   3893279   3894639   3895956  
  4820.000000   3897230   3898482   3899718   3900958   3902211  
  4810.000000   3903491   3904802   3906149   3907531   3908950  
  4800.000000   3910407   3911909   3913466   3915083   3916763  
  4790.000000   3918497   3920273   3922073   3923882   3925692  
  4780.000000   3927506   3929331   3931177   3933049   3934940  
  4770.000000   3936837   3938719   3940569   3942374   3944132  
  4760.000000   3945841   3947510   3949128   3950695   3952186  
  4750.000000   3953591   3954885   3956067   3957123   3958061  
  4740.000000   3958874   3959567   3960131   3960569   3960875  
  4730.000000   3961061   3961135   3961118   3961028   3960889  
  4720.000000   3960714   3960520   3960317   3960115   3959928  
  4710.000000   3959768   3959659   3959620   3959679   3959857  
  4700.000000   3960176   3960646   3961278   3962066   3963010  
  4690.000000   3964101   3965337   3966709   3968218   3969847  
  4680.000000   3971581   3973378   3975201   3976985   3978690  
  4670.000000   3980265   3981704   3983003   3984202   3985340  
  4660.000000   3986483   3987682   3988999   3990472   3992141  
  4650.000000   3994025   3996137   3998471   4001010   4003723  
  4640.000000   4006569   4009506   4012492   4015492   4018480  
  4630.000000   4021437   4024345   4027190   4029947   4032593  
  4620.000000   4035087   4037399   4039485   4041322   4042880  
  4610.000000   4044164   4045167   4045927   4046462   4046826  
  4600.000000   4047041   4047157   4047177   4047132   4047003  
  4590.000000   4046802   4046497   4046087   4045535   4044834  
  4580.000000   4043947   4042872   4041584   4040098   4038415  
  4570.000000   4036566   4034570   4032463   4030255   4027974  
  4560.000000   4025618   4023207   4020742   4018250   4015741  
  4550.000000   4013245   4010768   4008321   4005890   4003462  
  4540.000000   4001013   3998525   3995991   3993410   3990800  
  4530.000000   3988171   3985549   3982938   3980362   3977817  
  4520.000000   3975335   3972917   3970614   3968436   3966448  
  4510.000000   3964656   3963130   3961874   3960967   3960412  
  4500.000000   3960303   3960641   3961520   3962921   3964927  
  4490.000000   3967505   3970739   3974602   3979196   3984505  
  4480.000000   3990635   3997557   4005344   4013927   4023334  
  4470.000000   4033463   4044318   4055788   4067878   4080488  
  4460.000000   4093622   4107191   4121188   4135520   4150165  
  4450.000000   4165029   4180087   4195267   4210553   4225907  
  4440.000000   4241324   4256788   4272282   4287792   4303274  
  4430.000000   4318713   4334042   4349248   4364251   4379039  
  4420.000000   4393515   4407664   4421372   4434613   4447263  
  4410.000000   4459291   4470563   4481052   4490637   4499318  
  4400.000000   4507024   4513816   4519698   4524799   4529180  
  4390.000000   4533004   4536350   4539371   4542135   4544765  
  4380.000000   4547304   4549839   4552396   4555033   4557770  
  4370.000000   4560658   4563725   4567017   4570562   4574386  
  4360.000000   4578492   4582876   4587509   4592371   4597407  
  4350.000000   4602607   4607901   4613291   4618707   4624164  
  4340.000000   4629595   4634994   4640241   4645209   4649617  
  4330.000000   4653139   4655339   4655827   4654283   4650613  
  4320.000000   4644955   4637734   4629542   4621090   4613007  
  4310.000000   4605808   4599757   4594949   4591275   4588574  
  4300.000000   4586634   4585293   4584423   4583934   4583774  
  4290.000000   4583872   4584206   4584719   4585425   4586311  
  4280.000000   4587417   4588751   4590318   4592097   4594034  
  4270.000000   4596079   4598146   4600164   4602001   4603511  
  4260.000000   4604473   4604662   4603836   4601834   4598585  
  4250.000000   4594182   4588824   4582844   4576583   4570399  
  4240.000000   4564537   4559183   4554377   4550107   4546271  
  4230.000000   4542766   4539464   4536259   4533067   4529820  
  4220.000000   4526504   4523108   4519698   4516322   4513101  
  4210.000000   4510109   4507460   4505197   4503380   4501994  
  4200.000000   4501036   4500445   4500186   4500180   4500394  
  4190.000000   4500755   4501253   4501838   4502531   4503306  
  4180.000000   4504210   4505227   4506414   4507762   4509333  
  4170.000000   4511128   4513218   4515611   4518377   4521514  
  4160.000000   4525078   4529043   4533446   4538244   4543469  
  4150.000000   4549077   4555108   4561526   4568382   4575647  
  4140.000000   4583388   4591582   4600299   4609505   4619249  
  4130.000000   4629468   4640179   4651302   4662854   4674780  
  4120.000000   4687137   4699917   4713208   4727019   4741423  
  4110.000000   4756402   4771979   4788089   4804704   4821723  
  4100.000000   4839087   4856693   4874487   4892399   4910416  
  4090.000000   4928522   4946729   4965040   4983449   5001945  
  4080.000000   5020486   5039058   5057608   5076135   5094577  
  4070.000000   5112915   5131042   5148899   5166339   5183306  
  4060.000000   5199680   5215469   5230611   5245171   5259110  
  4050.000000   5272512   5285337   5297679   5309491   5320861  
  4040.000000   5331709   5342078   5351831   5360976   5369367  
  4030.000000   5377037   5383886   5389985   5395269   5399796  
  4020.000000   5403472   5406359   5408443   5409820   5410461  
  4010.000000   5410530   5410120   5409252   5407681   5405446  
  4000.000000   5402870  
##END= 
