##TITLE= Sample 008 By ssteindl date Dienstag, November 20 2018
##JCAMP-DX= 4.24
##DATA TYPE= INFRARED SPECTRUM
##ORIGIN= Exported PE Spectrum Data File
##OWNER= Sandra Steindl
##DATE= 18/11/20
##TIME= 16:13:58.00
##SPECTROMETER/DATA SYSTEM= PERKIN-ELMER Frontier FT-IR/NIR IR
##INSTRUMENT PARAMETERS=
  APODIZATION=stark
  DETECTOR=INGAAS
##RESOLUTION= 16.000000
##DELTAX= -2.000000
##XUNITS= 1/CM
##YUNITS= A
##XFACTOR= 1.00
##YFACTOR= 0.00000011920928955078
##FIRSTX= 10000.00
##LASTX= 4000.00
##NPOINTS= 3001
##FIRSTY= 0.227971
##MAXY= 0.596549
##MINY= 0.181245
##XYDATA= (X++(Y..Y))
 10000.000000   1912360   1906304   1899990   1893579   1888257  
  9990.000000   1885430   1885699   1888635   1893251   1898276  
  9980.000000   1902390   1904556   1904535   1902780   1900239  
  9970.000000   1897854   1896297   1895673   1895553   1895211  
  9960.000000   1893998   1891675   1888553   1885418   1883162  
  9950.000000   1882419   1883216   1884932   1886543   1886984  
  9940.000000   1885607   1882337   1877655   1872370   1867262  
  9930.000000   1862961   1859787   1857960   1857617   1858959  
  9920.000000   1862089   1866852   1872620   1878241   1882269  
  9910.000000   1883316   1880608   1874177   1865017   1854629  
  9900.000000   1844690   1836451   1830561   1827022   1825405  
  9890.000000   1825218   1826041   1827739   1830258   1833596  
  9880.000000   1837606   1842022   1846506   1850690   1854284  
  9870.000000   1856955   1858415   1858308   1856425   1852781  
  9860.000000   1847826   1842425   1837687   1834639   1833821  
  9850.000000   1835076   1837547   1840003   1841278   1840723  
  9840.000000   1838386   1834968   1831447   1828715   1827256  
  9830.000000   1827092   1827958   1829503   1831536   1833979  
  9820.000000   1836786   1839726   1842296   1843836   1843746  
  9810.000000   1841842   1838516   1834705   1831626   1830311  
  9800.000000   1831259   1834197   1838179   1841915   1844158  
  9790.000000   1844161   1841786   1837585   1832506   1827701  
  9780.000000   1824180   1822649   1823337   1825949   1829722  
  9770.000000   1833522   1836141   1836523   1834095   1828901  
  9760.000000   1821628   1813433   1805606   1799280   1795141  
  9750.000000   1793413   1793871   1796089   1799521   1803671  
  9740.000000   1808018   1812029   1815116   1816680   1816270  
  9730.000000   1813656   1809032   1802885   1796019   1789225  
  9720.000000   1783223   1778448   1775083   1773107   1772358  
  9710.000000   1772647   1773719   1775300   1777078   1778770  
  9700.000000   1780215   1781389   1782461   1783636   1785107  
  9690.000000   1786884   1788805   1790578   1791910   1792679  
  9680.000000   1793007   1793261   1793915   1795325   1797562  
  9670.000000   1800276   1802778   1804204   1803785   1801109  
  9660.000000   1796274   1789954   1783234   1777415   1773646  
  9650.000000   1772708   1774728   1779207   1785046   1790888  
  9640.000000   1795402   1797669   1797354   1794771   1790707  
  9630.000000   1786139   1781948   1778642   1776351   1774809  
  9620.000000   1773601   1772275   1770511   1768163   1765229  
  9610.000000   1761859   1758281   1754842   1751948   1750028  
  9600.000000   1749426   1750248   1752320   1755135   1758063  
  9590.000000   1760470   1761995   1762584   1762485   1762082  
  9580.000000   1761678   1761430   1761277   1761161   1761083  
  9570.000000   1761307   1762210   1764176   1767269   1771095  
  9560.000000   1774751   1777045   1776842   1773418   1766720  
  9550.000000   1757370   1746504   1735445   1725402   1717259  
  9540.000000   1711493   1708206   1707190   1707998   1709992  
  9530.000000   1712408   1714463   1715524   1715283   1713878  
  9520.000000   1711886   1710144   1709494   1710479   1713205  
  9510.000000   1717287   1722052   1726724   1730693   1733550  
  9500.000000   1735114   1735258   1733862   1730745   1725826  
  9490.000000   1719253   1711575   1703727   1696834   1691964  
  9480.000000   1689754   1690342   1693245   1697662   1702610  
  9470.000000   1707271   1711089   1713810   1715406   1715904  
  9460.000000   1715348   1713716   1711060   1707495   1703339  
  9450.000000   1698997   1694968   1691675   1689403   1688237  
  9440.000000   1688002   1688357   1688807   1688920   1688395  
  9430.000000   1687227   1685700   1684340   1683750   1684408  
  9420.000000   1686471   1689641   1693231   1696316   1698091  
  9410.000000   1698077   1696334   1693359   1689919   1686751  
  9400.000000   1684310   1682677   1681609   1680781   1680006  
  9390.000000   1679401   1679306   1680117   1681964   1684629  
  9380.000000   1687476   1689708   1690614   1689875   1687727  
  9370.000000   1684841   1682110   1680219   1679444   1679515  
  9360.000000   1679806   1679554   1678188   1675519   1671825  
  9350.000000   1667759   1664104   1661587   1660636   1661383  
  9340.000000   1663626   1666966   1670879   1674825   1678327  
  9330.000000   1680997   1682591   1682993   1682260   1680571  
  9320.000000   1678215   1675478   1672598   1669728   1666954  
  9310.000000   1664382   1662132   1660413   1659384   1659186  
  9300.000000   1659753   1660867   1662095   1662952   1663010  
  9290.000000   1662033   1660057   1657306   1654149   1650902  
  9280.000000   1647797   1644865   1642040   1639200   1636305  
  9270.000000   1633423   1630725   1628442   1626770   1625867  
  9260.000000   1625780   1626494   1627919   1629925   1632344  
  9250.000000   1634940   1637430   1639460   1640721   1640955  
  9240.000000   1640110   1638283   1635792   1633015   1630358  
  9230.000000   1628125   1626463   1625413   1624888   1624822  
  9220.000000   1625150   1625921   1627241   1629209   1631818  
  9210.000000   1634867   1637971   1640568   1642052   1641915  
  9200.000000   1639951   1636387   1631907   1627516   1624286  
  9190.000000   1623091   1624298   1627629   1632145   1636567  
  9180.000000   1639636   1640493   1638871   1635166   1630302  
  9170.000000   1625400   1621443   1618961   1618006   1618186  
  9160.000000   1618923   1619628   1619902   1619634   1618945  
  9150.000000   1618152   1617547   1617421   1617926   1619133  
  9140.000000   1620975   1623288   1625853   1628362   1630485  
  9130.000000   1631840   1632129   1631130   1628782   1625133  
  9120.000000   1620371   1614829   1608996   1603463   1598825  
  9110.000000   1595641   1594291   1594912   1597257   1600792  
  9100.000000   1604785   1608486   1611268   1612763   1612944  
  9090.000000   1612032   1610423   1608503   1606621   1604999  
  9080.000000   1603778   1602999   1602654   1602696   1603044  
  9070.000000   1603565   1604044   1604257   1603996   1603142  
  9060.000000   1601674   1599700   1597467   1595284   1593481  
  9050.000000   1592330   1592018   1592570   1593821   1595443  
  9040.000000   1597039   1598221   1598732   1598519   1597769  
  9030.000000   1596826   1596063   1595754   1595990   1596680  
  9020.000000   1597599   1598532   1599345   1600070   1600794  
  9010.000000   1601623   1602531   1603367   1603891   1603851  
  9000.000000   1603138   1601777   1599955   1597862   1595616  
  8990.000000   1593213   1590559   1587619   1584483   1581527  
  8980.000000   1579300   1578428   1579306   1581967   1585989  
  8970.000000   1590555   1594687   1597465   1598336   1597122  
  8960.000000   1594075   1589699   1584686   1579726   1575435  
  8950.000000   1572314   1570708   1570804   1572520   1575556  
  8940.000000   1579358   1583284   1586688   1589086   1590248  
  8930.000000   1590174   1589076   1587191   1584774   1581981  
  8920.000000   1578971   1575913   1573065   1570778   1569411  
  8910.000000   1569255   1570357   1572545   1575390   1578370  
  8900.000000   1580946   1582733   1583570   1583496   1582724  
  8890.000000   1581505   1580113   1578717   1577408   1576162  
  8880.000000   1574938   1573682   1572402   1571176   1570163  
  8870.000000   1569561   1569528   1570143   1571345   1572962  
  8860.000000   1574752   1576486   1578057   1579483   1580907  
  8850.000000   1582482   1584301   1586292   1588244   1589863  
  8840.000000   1590907   1591297   1591146   1590757   1590482  
  8830.000000   1590626   1591307   1592451   1593814   1595087  
  8820.000000   1595993   1596355   1596104   1595267   1593909  
  8810.000000   1592139   1590097   1587994   1586110   1584762  
  8800.000000   1584232   1584673   1586029   1588024   1590198  
  8790.000000   1592054   1593189   1593423   1592835   1591722  
  8780.000000   1590512   1589608   1589290   1589620   1590464  
  8770.000000   1591525   1592472   1593021   1593036   1592546  
  8760.000000   1591735   1590875   1590236   1590006   1590239  
  8750.000000   1590859   1591702   1592600   1593445   1594233  
  8740.000000   1595047   1596011   1597211   1598645   1600195  
  8730.000000   1601654   1602794   1603441   1603532   1603127  
  8720.000000   1602384   1601518   1600734   1600202   1600017  
  8710.000000   1600202   1600704   1601412   1602167   1602789  
  8700.000000   1603118   1603043   1602560   1601758   1600835  
  8690.000000   1600003   1599457   1599297   1599526   1600067  
  8680.000000   1600804   1601660   1602620   1603763   1605202  
  8670.000000   1607045   1609322   1611950   1614729   1617363  
  8660.000000   1619535   1620947   1621423   1620910   1619541  
  8650.000000   1617596   1615471   1613585   1612284   1611770  
  8640.000000   1612072   1613057   1614484   1616096   1617685  
  8630.000000   1619154   1620491   1621750   1622990   1624241  
  8620.000000   1625512   1626796   1628117   1629513   1631034  
  8610.000000   1632684   1634409   1636071   1637501   1638547  
  8600.000000   1639156   1639390   1639407   1639398   1639513  
  8590.000000   1639809   1640254   1640784   1641370   1642071  
  8580.000000   1643007   1644331   1646111   1648304   1650711  
  8570.000000   1653070   1655142   1656812   1658111   1659186  
  8560.000000   1660213   1661285   1662359   1663263   1663788  
  8550.000000   1663783   1663230   1662279   1661183   1660232  
  8540.000000   1659631   1659491   1659790   1660447   1661331  
  8530.000000   1662325   1663321   1664213   1664900   1665289  
  8520.000000   1665352   1665124   1664737   1664359   1664170  
  8510.000000   1664269   1664657   1665247   1665928   1666641  
  8500.000000   1667413   1668372   1669670   1671411   1673560  
  8490.000000   1675923   1678202   1680065   1681275   1681728  
  8480.000000   1681500   1680781   1679821   1678852   1678052  
  8470.000000   1677542   1677397   1677664   1678359   1679459  
  8460.000000   1680874   1682458   1684019   1685386   1686457  
  8450.000000   1687236   1687823   1688368   1689022   1689862  
  8440.000000   1690881   1691988   1693060   1693996   1694743  
  8430.000000   1695314   1695756   1696140   1696510   1696887  
  8420.000000   1697255   1697588   1697860   1698062   1698187  
  8410.000000   1698251   1698256   1698222   1698153   1698079  
  8400.000000   1698024   1698033   1698134   1698335   1698600  
  8390.000000   1698852   1698967   1698804   1698228   1697164  
  8380.000000   1695632   1693756   1691754   1689893   1688423  
  8370.000000   1687507   1687161   1687256   1687554   1687793  
  8360.000000   1687767   1687388   1686708   1685880   1685100  
  8350.000000   1684507   1684159   1683995   1683894   1683714  
  8340.000000   1683368   1682853   1682255   1681719   1681392  
  8330.000000   1681385   1681730   1682376   1683199   1684029  
  8320.000000   1684696   1685049   1685007   1684550   1683754  
  8310.000000   1682744   1681689   1680736   1679993   1679500  
  8300.000000   1679234   1679140   1679145   1679217   1679347  
  8290.000000   1679570   1679907   1680379   1680964   1681623  
  8280.000000   1682293   1682898   1683356   1683574   1683458  
  8270.000000   1682914   1681874   1680330   1678363   1676159  
  8260.000000   1673961   1672032   1670560   1669636   1669203  
  8250.000000   1669111   1669141   1669102   1668865   1668392  
  8240.000000   1667714   1666887   1665973   1665001   1663985  
  8230.000000   1662924   1661823   1660701   1659582   1658505  
  8220.000000   1657501   1656602   1655832   1655217   1654760  
  8210.000000   1654421   1654097   1653626   1652829   1651565  
  8200.000000   1649799   1647628   1645281   1643049   1641195  
  8190.000000   1639868   1639051   1638593   1638267   1637884  
  8180.000000   1637343   1636670   1635970   1635357   1634884  
  8170.000000   1634491   1634039   1633334   1632237   1630694  
  8160.000000   1628776   1626644   1624505   1622554   1620934  
  8150.000000   1619732   1618969   1618627   1618638   1618904  
  8140.000000   1619281   1619605   1619712   1619482   1618870  
  8130.000000   1617922   1616757   1615528   1614368   1613351  
  8120.000000   1612477   1611691   1610903   1610042   1609060  
  8110.000000   1607950   1606720   1605387   1603959   1602434  
  8100.000000   1600807   1599083   1597283   1595442   1593613  
  8090.000000   1591856   1590245   1588856   1587762   1587011  
  8080.000000   1586602   1586472   1586496   1586509   1586356  
  8070.000000   1585940   1585266   1584434   1583614   1582978  
  8060.000000   1582637   1582584   1582704   1582800   1582676  
  8050.000000   1582199   1581356   1580244   1579031   1577891  
  8040.000000   1576933   1576186   1575588   1575049   1574486  
  8030.000000   1573884   1573294   1572829   1572592   1572649  
  8020.000000   1572966   1573420   1573820   1573957   1573670  
  8010.000000   1572871   1571587   1569924   1568054   1566158  
  8000.000000   1564397   1562880   1561665   1560760   1560137  
  7990.000000   1559742   1559508   1559362   1559233   1559071  
  7980.000000   1558852   1558593   1558347   1558187   1558183  
  7970.000000   1558363   1558706   1559130   1559530   1559797  
  7960.000000   1559867   1559729   1559434   1559056   1558668  
  7950.000000   1558309   1557973   1557629   1557241   1556805  
  7940.000000   1556350   1555943   1555649   1555514   1555526  
  7930.000000   1555639   1555777   1555874   1555902   1555866  
  7920.000000   1555801   1555729   1555643   1555488   1555187  
  7910.000000   1554670   1553924   1553011   1552072   1551293  
  7900.000000   1550842   1550828   1551250   1552002   1552900  
  7890.000000   1553734   1554330   1554580   1554476   1554078  
  7880.000000   1553500   1552857   1552250   1551738   1551352  
  7870.000000   1551101   1550986   1551011   1551173   1551467  
  7860.000000   1551862   1552316   1552767   1553152   1553424  
  7850.000000   1553547   1553517   1553328   1552994   1552519  
  7840.000000   1551927   1551255   1550569   1549962   1549531  
  7830.000000   1549361   1549480   1549868   1550437   1551089  
  7820.000000   1551727   1552311   1552846   1553372   1553922  
  7810.000000   1554479   1554963   1555230   1555139   1554588  
  7800.000000   1553583   1552239   1550758   1549374   1548271  
  7790.000000   1547557   1547220   1547183   1547318   1547528  
  7780.000000   1547743   1547951   1548153   1548352   1548521  
  7770.000000   1548601   1548524   1548226   1547686   1546920  
  7760.000000   1545992   1544985   1543990   1543083   1542313  
  7750.000000   1541701   1541231   1540865   1540542   1540201  
  7740.000000   1539793   1539298   1538725   1538116   1537524  
  7730.000000   1536999   1536568   1536237   1535999   1535841  
  7720.000000   1535759   1535753   1535811   1535898   1535944  
  7710.000000   1535858   1535554   1534986   1534175   1533205  
  7700.000000   1532201   1531280   1530509   1529886   1529353  
  7690.000000   1528830   1528275   1527707   1527208   1526887  
  7680.000000   1526814   1526982   1527287   1527567   1527662  
  7670.000000   1527480   1527044   1526479   1525967   1525671  
  7660.000000   1525671   1525932   1526318   1526647   1526762  
  7650.000000   1526573   1526095   1525407   1524633   1523871  
  7640.000000   1523184   1522576   1522027   1521509   1521029  
  7630.000000   1520632   1520396   1520414   1520749   1521419  
  7620.000000   1522376   1523515   1524701   1525796   1526699  
  7610.000000   1527363   1527804   1528078   1528260   1528402  
  7600.000000   1528527   1528614   1528627   1528536   1528345  
  7590.000000   1528095   1527854   1527695   1527656   1527740  
  7580.000000   1527902   1528088   1528252   1528388   1528526  
  7570.000000   1528709   1528966   1529280   1529586   1529786  
  7560.000000   1529799   1529589   1529196   1528723   1528316  
  7550.000000   1528108   1528191   1528578   1529223   1530028  
  7540.000000   1530892   1531715   1532435   1533008   1533431  
  7530.000000   1533725   1533949   1534181   1534524   1535072  
  7520.000000   1535897   1537018   1538401   1539955   1541569  
  7510.000000   1543128   1544554   1545802   1546868   1547759  
  7500.000000   1548499   1549107   1549621   1550086   1550578  
  7490.000000   1551174   1551947   1552929   1554100   1555390  
  7480.000000   1556698   1557936   1559056   1560077   1561066  
  7470.000000   1562118   1563317   1564691   1566213   1567794  
  7460.000000   1569324   1570691   1571822   1572693   1573337  
  7450.000000   1573832   1574287   1574817   1575540   1576540  
  7440.000000   1577860   1579479   1581326   1583282   1585220  
  7430.000000   1587026   1588638   1590053   1591333   1592573  
  7420.000000   1593875   1595317   1596936   1598725   1600647  
  7410.000000   1602646   1604665   1606652   1608558   1610339  
  7400.000000   1611959   1613395   1614650   1615755   1616775  
  7390.000000   1617791   1618889   1620129   1621542   1623118  
  7380.000000   1624819   1626589   1628372   1630127   1631828  
  7370.000000   1633468   1635051   1636589   1638100   1639606  
  7360.000000   1641128   1642688   1644296   1645950   1647635  
  7350.000000   1649324   1650987   1652595   1654127   1655569  
  7340.000000   1656909   1658137   1659243   1660235   1661139  
  7330.000000   1662016   1662950   1664039   1665353   1666915  
  7320.000000   1668677   1670531   1672335   1673955   1675312  
  7310.000000   1676402   1677297   1678112   1678963   1679915  
  7300.000000   1680970   1682066   1683123   1684076   1684917  
  7290.000000   1685697   1686507   1687440   1688551   1689847  
  7280.000000   1691281   1692792   1694325   1695860   1697409  
  7270.000000   1698995   1700628   1702271   1703853   1705278  
  7260.000000   1706474   1707415   1708157   1708802   1709494  
  7250.000000   1710349   1711438   1712759   1714260   1715856  
  7240.000000   1717486   1719112   1720759   1722470   1724314  
  7230.000000   1726325   1728528   1730895   1733403   1735996  
  7220.000000   1738647   1741322   1744025   1746761   1749572  
  7210.000000   1752497   1755594   1758890   1762394   1766058  
  7200.000000   1769801   1773500   1777053   1780373   1783447  
  7190.000000   1786308   1789061   1791820   1794706   1797797  
  7180.000000   1801136   1804708   1808476   1812375   1816349  
  7170.000000   1820338   1824310   1828241   1832145   1836041  
  7160.000000   1839980   1843988   1848095   1852277   1856506  
  7150.000000   1860718   1864887   1869004   1873136   1877375  
  7140.000000   1881844   1886623   1891750   1897176   1902822  
  7130.000000   1908570   1914344   1920090   1925818   1931540  
  7120.000000   1937289   1943058   1948840   1954599   1960331  
  7110.000000   1966044   1971789   1977619   1983586   1989705  
  7100.000000   1995968   2002336   2008773   2015251   2021762  
  7090.000000   2028303   2034867   2041423   2047926   2054323  
  7080.000000   2060583   2066705   2072732   2078726   2084755  
  7070.000000   2090858   2097045   2103292   2109562   2115825  
  7060.000000   2122068   2128294   2134514   2140729   2146926  
  7050.000000   2153086   2159188   2165231   2171228   2177214  
  7040.000000   2183218   2189264   2195345   2201445   2207527  
  7030.000000   2213564   2219529   2225405   2231169   2236797  
  7020.000000   2242253   2247515   2252572   2257451   2262200  
  7010.000000   2266896   2271603   2276379   2281236   2286173  
  7000.000000   2291149   2296138   2301099   2306021   2310879  
  6990.000000   2315667   2320356   2324927   2329345   2333595  
  6980.000000   2337659   2341540   2345241   2348785   2352184  
  6970.000000   2355471   2358663   2361792   2364858   2367865  
  6960.000000   2370783   2373593   2376267   2378816   2381265  
  6950.000000   2383677   2386104   2388592   2391137   2393705  
  6940.000000   2396227   2398644   2400910   2403028   2405024  
  6930.000000   2406948   2408831   2410693   2412515   2414279  
  6920.000000   2415961   2417573   2419135   2420692   2422264  
  6910.000000   2423858   2425441   2426970   2428393   2429686  
  6900.000000   2430842   2431885   2432843   2433748   2434613  
  6890.000000   2435445   2436240   2437006   2437753   2438502  
  6880.000000   2439268   2440061   2440875   2441698   2442513  
  6870.000000   2443313   2444094   2444871   2445655   2446463  
  6860.000000   2447300   2448171   2449067   2449976   2450874  
  6850.000000   2451733   2452518   2453199   2453756   2454191  
  6840.000000   2454521   2454784   2455017   2455251   2455497  
  6830.000000   2455757   2456019   2456284   2456556   2456856  
  6820.000000   2457198   2457593   2458026   2458469   2458879  
  6810.000000   2459226   2459484   2459647   2459716   2459690  
  6800.000000   2459560   2459315   2458950   2458482   2457953  
  6790.000000   2457426   2456959   2456600   2456356   2456210  
  6780.000000   2456118   2456045   2455967   2455882   2455796  
  6770.000000   2455707   2455597   2455431   2455175   2454808  
  6760.000000   2454345   2453832   2453331   2452898   2452559  
  6750.000000   2452306   2452106   2451927   2451749   2451579  
  6740.000000   2451434   2451331   2451264   2451197   2451080  
  6730.000000   2450867   2450540   2450118   2449652   2449206  
  6720.000000   2448828   2448537   2448320   2448144   2447970  
  6710.000000   2447772   2447533   2447246   2446901   2446486  
  6700.000000   2445989   2445413   2444774   2444111   2443462  
  6690.000000   2442855   2442287   2441732   2441146   2440502  
  6680.000000   2439790   2439036   2438275   2437537   2436818  
  6670.000000   2436082   2435264   2434311   2433198   2431949  
  6660.000000   2430621   2429286   2427996   2426765   2425572  
  6650.000000   2424380   2423162   2421921   2420681   2419482  
  6640.000000   2418345   2417267   2416209   2415132   2414007  
  6630.000000   2412845   2411684   2410584   2409580   2408676  
  6620.000000   2407822   2406939   2405941   2404770   2403407  
  6610.000000   2401882   2400244   2398552   2396844   2395147  
  6600.000000   2393468   2391815   2390194   2388616   2387078  
  6590.000000   2385568   2384055   2382508   2380903   2379242  
  6580.000000   2377555   2375893   2374310   2372844   2371506  
  6570.000000   2370279   2369124   2367995   2366852   2365669  
  6560.000000   2364431   2363135   2361788   2360397   2358980  
  6550.000000   2357558   2356152   2354779   2353449   2352156  
  6540.000000   2350885   2349620   2348347   2347058   2345754  
  6530.000000   2344437   2343110   2341771   2340422   2339075  
  6520.000000   2337754   2336494   2335332   2334296   2333389  
  6510.000000   2332589   2331850   2331118   2330347   2329506  
  6500.000000   2328584   2327587   2326529   2325425   2324288  
  6490.000000   2323131   2321969   2320818   2319691   2318596  
  6480.000000   2317530   2316484   2315447   2314418   2313402  
  6470.000000   2312417   2311474   2310569   2309679   2308762  
  6460.000000   2307774   2306684   2305493   2304226   2302934  
  6450.000000   2301664   2300448   2299296   2298196   2297131  
  6440.000000   2296096   2295099   2294163   2293312   2292557  
  6430.000000   2291888   2291280   2290699   2290123   2289544  
  6420.000000   2288975   2288431   2287928   2287465   2287036  
  6410.000000   2286630   2286245   2285888   2285580   2285332  
  6400.000000   2285148   2285008   2284881   2284730   2284532  
  6390.000000   2284281   2283989   2283676   2283362   2283060  
  6380.000000   2282776   2282516   2282288   2282109   2281991  
  6370.000000   2281930   2281898   2281841   2281692   2281394  
  6360.000000   2280919   2280282   2279534   2278749   2277991  
  6350.000000   2277307   2276709   2276190   2275729   2275311  
  6340.000000   2274922   2274556   2274192   2273805   2273356  
  6330.000000   2272809   2272142   2271358   2270483   2269564  
  6320.000000   2268643   2267756   2266912   2266113   2265342  
  6310.000000   2264585   2263823   2263046   2262229   2261354  
  6300.000000   2260397   2259349   2258215   2257023   2255811  
  6290.000000   2254616   2253455   2252329   2251217   2250098  
  6280.000000   2248958   2247810   2246678   2245596   2244580  
  6270.000000   2243625   2242694   2241738   2240708   2239578  
  6260.000000   2238346   2237036   2235677   2234297   2232906  
  6250.000000   2231504   2230082   2228639   2227184   2225737  
  6240.000000   2224316   2222930   2221573   2220226   2218866  
  6230.000000   2217478   2216059   2214617   2213172   2211736  
  6220.000000   2210317   2208912   2207511   2206110   2204707  
  6210.000000   2203313   2201943   2200610   2199324   2198082  
  6200.000000   2196878   2195697   2194526   2193356   2192184  
  6190.000000   2191010   2189843   2188688   2187558   2186457  
  6180.000000   2185387   2184342   2183314   2182292   2181272  
  6170.000000   2180258   2179262   2178303   2177397   2176548  
  6160.000000   2175748   2174971   2174191   2173379   2172526  
  6150.000000   2171632   2170715   2169795   2168891   2168011  
  6140.000000   2167158   2166328   2165517   2164722   2163946  
  6130.000000   2163186   2162438   2161694   2160946   2160189  
  6120.000000   2159432   2158684   2157964   2157284   2156650  
  6110.000000   2156057   2155497   2154960   2154450   2153970  
  6100.000000   2153540   2153169   2152866   2152625   2152438  
  6090.000000   2152289   2152175   2152088   2152039   2152026  
  6080.000000   2152056   2152117   2152208   2152319   2152458  
  6070.000000   2152630   2152860   2153156   2153537   2154001  
  6060.000000   2154553   2155182   2155896   2156690   2157574  
  6050.000000   2158539   2159581   2160679   2161822   2162994  
  6040.000000   2164203   2165455   2166775   2168171   2169650  
  6030.000000   2171193   2172783   2174393   2176017   2177654  
  6020.000000   2179329   2181061   2182879   2184785   2186778  
  6010.000000   2188835   2190935   2193049   2195161   2197252  
  6000.000000   2199319   2201357   2203380   2205400   2207444  
  5990.000000   2209534   2211695   2213928   2216232   2218583  
  5980.000000   2220963   2223355   2225767   2228214   2230729  
  5970.000000   2233334   2236044   2238845   2241719   2244626  
  5960.000000   2247547   2250464   2253382   2256307   2259258  
  5950.000000   2262239   2265266   2268342   2271484   2274706  
  5940.000000   2278024   2281442   2284953   2288531   2292140  
  5930.000000   2295752   2299343   2302912   2306467   2310015  
  5920.000000   2313549   2317038   2320436   2323686   2326745  
  5910.000000   2329591   2332233   2334704   2337047   2339308  
  5900.000000   2341521   2343719   2345923   2348165   2350469  
  5890.000000   2352867   2355370   2357983   2360681   2363433  
  5880.000000   2366191   2368913   2371556   2374086   2376476  
  5870.000000   2378703   2380757   2382644   2384393   2386052  
  5860.000000   2387686   2389361   2391127   2393012   2395017  
  5850.000000   2397124   2399305   2401537   2403801   2406088  
  5840.000000   2408388   2410690   2412980   2415239   2417460  
  5830.000000   2419641   2421795   2423937   2426084   2428247  
  5820.000000   2430430   2432634   2434862   2437125   2439433  
  5810.000000   2441799   2444221   2446688   2449168   2451637  
  5800.000000   2454059   2456436   2458756   2461048   2463304  
  5790.000000   2465536   2467697   2469751   2471609   2473201  
  5780.000000   2474420   2475194   2475442   2475134   2474256  
  5770.000000   2472868   2471053   2468954   2466706   2464457  
  5760.000000   2462295   2460289   2458443   2456758   2455204  
  5750.000000   2453780   2452476   2451298   2450238   2449279  
  5740.000000   2448389   2447533   2446690   2445848   2445025  
  5730.000000   2444238   2443516   2442862   2442273   2441722  
  5720.000000   2441187   2440642   2440077   2439488   2438885  
  5710.000000   2438277   2437683   2437121   2436612   2436178  
  5700.000000   2435832   2435573   2435378   2435210   2435021  
  5690.000000   2434779   2434464   2434093   2433689   2433292  
  5680.000000   2432915   2432560   2432186   2431749   2431187  
  5670.000000   2430458   2429526   2428378   2427004   2425410  
  5660.000000   2423600   2421601   2419447   2417201   2414925  
  5650.000000   2412690   2410543   2408516   2406607   2404807  
  5640.000000   2403092   2401448   2399862   2398324   2396825  
  5630.000000   2395351   2393891   2392438   2391003   2389608  
  5620.000000   2388289   2387072   2385975   2384983   2384073  
  5610.000000   2383202   2382342   2381471   2380594   2379726  
  5600.000000   2378885   2378085   2377331   2376618   2375943  
  5590.000000   2375304   2374701   2374129   2373579   2373028  
  5580.000000   2372448   2371817   2371120   2370365   2369570  
  5570.000000   2368762   2367958   2367165   2366372   2365566  
  5560.000000   2364731   2363865   2362973   2362067   2361151  
  5550.000000   2360226   2359278   2358297   2357274   2356220  
  5540.000000   2355155   2354106   2353093   2352124   2351190  
  5530.000000   2350278   2349375   2348477   2347587   2346716  
  5520.000000   2345868   2345034   2344195   2343326   2342406  
  5510.000000   2341427   2340397   2339335   2338261   2337192  
  5500.000000   2336133   2335087   2334049   2333024   2332014  
  5490.000000   2331025   2330052   2329082   2328092   2327059  
  5480.000000   2325960   2324791   2323555   2322269   2320948  
  5470.000000   2319603   2318239   2316856   2315452   2314030  
  5460.000000   2312592   2311140   2309670   2308174   2306643  
  5450.000000   2305073   2303474   2301865   2300275   2298727  
  5440.000000   2297236   2295800   2294412   2293060   2291746  
  5430.000000   2290473   2289253   2288087   2286972   2285883  
  5420.000000   2284807   2283731   2282676   2281670   2280769  
  5410.000000   2280006   2279408   2278954   2278624   2278374  
  5400.000000   2278195   2278078   2278054   2278135   2278355  
  5390.000000   2278704   2279189   2279788   2280517   2281382  
  5380.000000   2282426   2283660   2285109   2286739   2288535  
  5370.000000   2290437   2292438   2294507   2296684   2298967  
  5360.000000   2301414   2304018   2306828   2309830   2313088  
  5350.000000   2316611   2320490   2324738   2329433   2334551  
  5340.000000   2340134   2346127   2352575   2359430   2366753  
  5330.000000   2374495   2382706   2391313   2400356   2409770  
  5320.000000   2419638   2429946   2440835   2452315   2464522  
  5310.000000   2477424   2491103   2505473   2520590   2536377  
  5300.000000   2552924   2570201   2588340   2607339   2627321  
  5290.000000   2648243   2670150   2692905   2716450   2740593  
  5280.000000   2765271   2790365   2815927   2841973   2868634  
  5270.000000   2895939   2923913   2952427   2981314   3010351  
  5260.000000   3039368   3068280   3097098   3125909   3154769  
  5250.000000   3183701   3212570   3241207   3269321   3296741  
  5240.000000   3323278   3348970   3373819   3398006   3421567  
  5230.000000   3444628   3467107   3489000   3510121   3530438  
  5220.000000   3549805   3568292   3585868   3602706   3618825  
  5210.000000   3634387   3649338   3663724   3677381   3690297  
  5200.000000   3702329   3713554   3723948   3733686   3742783  
  5190.000000   3751370   3759369   3766799   3773515   3779529  
  5180.000000   3784755   3789294   3793143   3796432   3799140  
  5170.000000   3801343   3802970   3804067   3804580   3804594  
  5160.000000   3804096   3803184   3801838   3800118   3797975  
  5150.000000   3795455   3792525   3789254   3785637   3781746  
  5140.000000   3777566   3773141   3768444   3763518   3758357  
  5130.000000   3753025   3747533   3741931   3736207   3730372  
  5120.000000   3724395   3718286   3712041   3705699   3699285  
  5110.000000   3692844   3686388   3679935   3673477   3667026  
  5100.000000   3660587   3654186   3647839   3641562   3635345  
  5090.000000   3629173   3623014   3616852   3610678   3604505  
  5080.000000   3598346   3592215   3586106   3580000   3573864  
  5070.000000   3567673   3561410   3555085   3548715   3542332  
  5060.000000   3535949   3529576   3523192   3516782   3510318  
  5050.000000   3503795   3497206   3490567   3483882   3477160  
  5040.000000   3470393   3463578   3456706   3449781   3442814  
  5030.000000   3435827   3428848   3421899   3415000   3408160  
  5020.000000   3401382   3394662   3387999   3381388   3374836  
  5010.000000   3368343   3361929   3355603   3349397   3343320  
  5000.000000   3337408   3331660   3326102   3320718   3315523  
  4990.000000   3310498   3305662   3301002   3296547   3292286  
  4980.000000   3288251   3284423   3280831   3277457   3274339  
  4970.000000   3271469   3268896   3266609   3264647   3262976  
  4960.000000   3261614   3260505   3259664   3259047   3258692  
  4950.000000   3258583   3258778   3259270   3260119   3261309  
  4940.000000   3262888   3264829   3267170   3269870   3272951  
  4930.000000   3276356   3280088   3284085   3288360   3292878  
  4920.000000   3297684   3302776   3308216   3313999   3320158  
  4910.000000   3326654   3333482   3340579   3347925   3355469  
  4900.000000   3363198   3371078   3379099   3387235   3395463  
  4890.000000   3403750   3412058   3420347   3428561   3436657  
  4880.000000   3444566   3452250   3459642   3466721   3473429  
  4870.000000   3479760   3485664   3491140   3496141   3500681  
  4860.000000   3504725   3508314   3511440   3514163   3516492  
  4850.000000   3518490   3520163   3521566   3522701   3523623  
  4840.000000   3524345   3524927   3525392   3525800   3526169  
  4830.000000   3526538   3526911   3527299   3527690   3528080  
  4820.000000   3528455   3528810   3529147   3529474   3529809  
  4810.000000   3530171   3530587   3531078   3531666   3532364  
  4800.000000   3533184   3534128   3535198   3536383   3537675  
  4790.000000   3539048   3540480   3541941   3543412   3544878  
  4780.000000   3546344   3547821   3549331   3550893   3552517  
  4770.000000   3554201   3555928   3557672   3559403   3561098  
  4760.000000   3562737   3564314   3565824   3567268   3568643  
  4750.000000   3569949   3571180   3572338   3573421   3574436  
  4740.000000   3575385   3576278   3577116   3577909   3578661  
  4730.000000   3579383   3580084   3580776   3581463   3582146  
  4720.000000   3582821   3583482   3584128   3584761   3585404  
  4710.000000   3586078   3586822   3587662   3588628   3589727  
  4700.000000   3590967   3592336   3593832   3595444   3597178  
  4690.000000   3599035   3601026   3603151   3605409   3607779  
  4680.000000   3610238   3612738   3615241   3617694   3620071  
  4670.000000   3622341   3624509   3626586   3628609   3630615  
  4660.000000   3632654   3634764   3636988   3639353   3641884  
  4650.000000   3644595   3647492   3650569   3653808   3657181  
  4640.000000   3660648   3664171   3667708   3671233   3674724  
  4630.000000   3678172   3681561   3684880   3688098   3691187  
  4620.000000   3694097   3696792   3699230   3701397   3703279  
  4610.000000   3704900   3706273   3707452   3708466   3709373  
  4600.000000   3710198   3710990   3711749   3712499   3713216  
  4590.000000   3713899   3714503   3715014   3715384   3715599  
  4580.000000   3715618   3715432   3715010   3714349   3713435  
  4570.000000   3712285   3710907   3709345   3707628   3705811  
  4560.000000   3703923   3702009   3700076   3698142   3696194  
  4550.000000   3694233   3692241   3690222   3688165   3686079  
  4540.000000   3683962   3681819   3679651   3677461   3675253  
  4530.000000   3673027   3670794   3668552   3666317   3664085  
  4520.000000   3661879   3659693   3657560   3655478   3653495  
  4510.000000   3651618   3649913   3648395   3647146   3646181  
  4500.000000   3645584   3645360   3645590   3646266   3647468  
  4490.000000   3649183   3651499   3654404   3657986   3662222  
  4480.000000   3667181   3672818   3679176   3686191   3693893  
  4470.000000   3702209   3711163   3720672   3730742   3741277  
  4460.000000   3752264   3763600   3775269   3787183   3799336  
  4450.000000   3811665   3824178   3836834   3849645   3862590  
  4440.000000   3875674   3888880   3902192   3915588   3929025  
  4430.000000   3942474   3955877   3969214   3982422   3995491  
  4420.000000   4008349   4020976   4033276   4045206   4056645  
  4410.000000   4067537   4077762   4087280   4096000   4103929  
  4400.000000   4111039   4117402   4123060   4128148   4132757  
  4390.000000   4137048   4141119   4145106   4149069   4153090  
  4380.000000   4157177   4161365   4165642   4170034   4174542  
  4370.000000   4179206   4184046   4189098   4194367   4199857  
  4360.000000   4205537   4211382   4217333   4223360   4229387  
  4350.000000   4235391   4241276   4247031   4252560   4257883  
  4340.000000   4262939   4267768   4272289   4276442   4279983  
  4330.000000   4282625   4283930   4283502   4280990   4276280  
  4320.000000   4269490   4261052   4251581   4241826   4232463  
  4310.000000   4224045   4216873   4211049   4206473   4202965  
  4300.000000   4200313   4198340   4196939   4196032   4195605  
  4290.000000   4195612   4196056   4196879   4198088   4199639  
  4280.000000   4201544   4203769   4206296   4209075   4212042  
  4270.000000   4215132   4218254   4221324   4224205   4226734  
  4260.000000   4228681   4229797   4229822   4228575   4225979  
  4250.000000   4222129   4217254   4211729   4205950   4200329  
  4240.000000   4195154   4190628   4186779   4183566   4180843  
  4230.000000   4178463   4176270   4174146   4172014   4169826  
  4220.000000   4167590   4165316   4163077   4160920   4158953  
  4210.000000   4157229   4155842   4154814   4154189   4153942  
  4200.000000   4154062   4154490   4155191   4156094   4157167  
  4190.000000   4158347   4159629   4160974   4162408   4163917  
  4180.000000   4165542   4167270   4169139   4171122   4173256  
  4170.000000   4175523   4177978   4180631   4183561   4186786  
  4160.000000   4190378   4194335   4198700   4203449   4208616  
  4150.000000   4214170   4220150   4226523   4233322   4240501  
  4140.000000   4248084   4256016   4264330   4272980   4282013  
  4130.000000   4291395   4301175   4311315   4321861   4332781  
  4120.000000   4344132   4355908   4368182   4380966   4394326  
  4110.000000   4408248   4422752   4437774   4453272   4469138  
  4100.000000   4485302   4501651   4518123   4534649   4551207  
  4090.000000   4567782   4584385   4601030   4617722   4634474  
  4080.000000   4651263   4668086   4684894   4701672   4718341  
  4070.000000   4734864   4751130   4767090   4782628   4797725  
  4060.000000   4812302   4826388   4839934   4852990   4865505  
  4050.000000   4877530   4889014   4900032   4910547   4920648  
  4040.000000   4930284   4939512   4948231   4956459   4964073  
  4030.000000   4971097   4977433   4983126   4988108   4992423  
  4020.000000   4995991   4998875   5001076   5002684   5003669  
  4010.000000   5004160   5004216   5003833   5002778   5001093  
  4000.000000   4999090  
##END= 
