##TITLE= Sample 024 By ssteindl date Dienstag, November 20 2018
##JCAMP-DX= 4.24
##DATA TYPE= INFRARED SPECTRUM
##ORIGIN= Exported PE Spectrum Data File
##OWNER= Sandra Steindl
##DATE= 18/11/20
##TIME= 16:32:54.00
##SPECTROMETER/DATA SYSTEM= PERKIN-ELMER Frontier FT-IR/NIR IR
##INSTRUMENT PARAMETERS=
  APODIZATION=stark
  DETECTOR=INGAAS
##RESOLUTION= 16.000000
##DELTAX= -2.000000
##XUNITS= 1/CM
##YUNITS= A
##XFACTOR= 1.00
##YFACTOR= 0.00000011920928955078
##FIRSTX= 10000.00
##LASTX= 4000.00
##NPOINTS= 3001
##FIRSTY= 0.207927
##MAXY= 0.657023
##MINY= 0.175175
##XYDATA= (X++(Y..Y))
 10000.000000   1744216   1739711   1734685   1729266   1725122  
  9990.000000   1724226   1727156   1732996   1740266   1747454  
  9980.000000   1753162   1756397   1757034   1755590   1752901  
  9970.000000   1749712   1746555   1743609   1740737   1737712  
  9960.000000   1734404   1730967   1727799   1725474   1724380  
  9950.000000   1724616   1725749   1727000   1727424   1726253  
  9940.000000   1723195   1718481   1712846   1707159   1702196  
  9930.000000   1698318   1695493   1693385   1691612   1689964  
  9920.000000   1688447   1687292   1686735   1686944   1687921  
  9910.000000   1689553   1691727   1694298   1697156   1699967  
  9900.000000   1702256   1703274   1702360   1699110   1693744  
  9890.000000   1687150   1680725   1676031   1674236   1675876  
  9880.000000   1680578   1687407   1695065   1702452   1708789  
  9870.000000   1713744   1717216   1719120   1719293   1717437  
  9860.000000   1713407   1707270   1699543   1690982   1682464  
  9850.000000   1674695   1668098   1662871   1659059   1656784  
  9840.000000   1656170   1657364   1660281   1664549   1669485  
  9830.000000   1674267   1678214   1680969   1682651   1683673  
  9820.000000   1684582   1685708   1687105   1688518   1689622  
  9810.000000   1690200   1690269   1690054   1689768   1689482  
  9800.000000   1688984   1687936   1686046   1683322   1680148  
  9790.000000   1677165   1674988   1673898   1673670   1673672  
  9780.000000   1673125   1671532   1668891   1665810   1663202  
  9770.000000   1661979   1662594   1664933   1668303   1671764  
  9760.000000   1674437   1675771   1675629   1674167   1671650  
  9750.000000   1668281   1664147   1659294   1653847   1648101  
  9740.000000   1642512   1637581   1633684   1630927   1629110  
  9730.000000   1627798   1626523   1624904   1622831   1620374  
  9720.000000   1617796   1615341   1613217   1611504   1610254  
  9710.000000   1609542   1609564   1610629   1613093   1617215  
  9700.000000   1622964   1629938   1637300   1643989   1648942  
  9690.000000   1651435   1651301   1648963   1645308   1641341  
  9680.000000   1637859   1635171   1633037   1630826   1627833  
  9670.000000   1623629   1618275   1612351   1606709   1602193  
  9660.000000   1599285   1598015   1597994   1598644   1599483  
  9650.000000   1600281   1601141   1602317   1604083   1606496  
  9640.000000   1609408   1612476   1615365   1617834   1619827  
  9630.000000   1621407   1622665   1623670   1624443   1625060  
  9620.000000   1625653   1626458   1627668   1629334   1631213  
  9610.000000   1632789   1633367   1632334   1629371   1624632  
  9600.000000   1618738   1612615   1607215   1603234   1600893  
  9590.000000   1599969   1599883   1600011   1599844   1599176  
  9580.000000   1598091   1596896   1595996   1595712   1596193  
  9570.000000   1597301   1598637   1599613   1599628   1598269  
  9560.000000   1595500   1591764   1587913   1585002   1583924  
  9550.000000   1585063   1588073   1591905   1595125   1596368  
  9540.000000   1594802   1590394   1583896   1576599   1569894  
  9530.000000   1564896   1562144   1561570   1562629   1564531  
  9520.000000   1566511   1567942   1568447   1567830   1566096  
  9510.000000   1563388   1560006   1556345   1552877   1550029  
  9500.000000   1548156   1547461   1548033   1549855   1552817  
  9490.000000   1556727   1561221   1565786   1569759   1572494  
  9480.000000   1573517   1572709   1570374   1567167   1563909  
  9470.000000   1561296   1559707   1559081   1559023   1558966  
  9460.000000   1558405   1557041   1554804   1551819   1548295  
  9450.000000   1544499   1540748   1537447   1535087   1534160  
  9440.000000   1534994   1537574   1541451   1545815   1549752  
  9430.000000   1552541   1553925   1554141   1553771   1553437  
  9420.000000   1553488   1553864   1554168   1553955   1553037  
  9410.000000   1551653   1550387   1549878   1550460   1551938  
  9400.000000   1553572   1554350   1553379   1550283   1545385  
  9390.000000   1539616   1534175   1530114   1528007   1527885  
  9380.000000   1529324   1531710   1534426   1537006   1539143  
  9370.000000   1540649   1541394   1541295   1540374   1538787  
  9360.000000   1536875   1535040   1533648   1532836   1532481  
  9350.000000   1532268   1531833   1530986   1529749   1528377  
  9340.000000   1527205   1526513   1526413   1526779   1527299  
  9330.000000   1527575   1527261   1526174   1524333   1521941  
  9320.000000   1519347   1517008   1515430   1515044   1516072  
  9310.000000   1518368   1521418   1524399   1526456   1526920  
  9300.000000   1525589   1522803   1519362   1516264   1514335  
  9290.000000   1513995   1515147   1517335   1519986   1522660  
  9280.000000   1525179   1527561   1529844   1531897   1533343  
  9270.000000   1533651   1532363   1529336   1524912   1519887  
  9260.000000   1515302   1512116   1510856   1511554   1513707  
  9250.000000   1516567   1519299   1521281   1522196   1522020  
  9240.000000   1520938   1519179   1516965   1514427   1511639  
  9230.000000   1508627   1505451   1502219   1499139   1496508  
  9220.000000   1494674   1493975   1494578   1496396   1498991  
  9210.000000   1501681   1503701   1504416   1503565   1501356  
  9200.000000   1498482   1495827   1494191   1493971   1495084  
  9190.000000   1496986   1498911   1500145   1500310   1499462  
  9180.000000   1498040   1496662   1495880   1496011   1497043  
  9170.000000   1498702   1500551   1502183   1503319   1503909  
  9160.000000   1504075   1504096   1504243   1504730   1505575  
  9150.000000   1506603   1507467   1507715   1506959   1504971  
  9140.000000   1501817   1497813   1493455   1489255   1485609  
  9130.000000   1482715   1480563   1479040   1478040   1477574  
  9120.000000   1477745   1478691   1480436   1482830   1485537  
  9110.000000   1488113   1490166   1491457   1492008   1491994  
  9100.000000   1491683   1491262   1490828   1490343   1489739  
  9090.000000   1488966   1488067   1487154   1486336   1485660  
  9080.000000   1485063   1484437   1483679   1482799   1481920  
  9070.000000   1481279   1481103   1481528   1482505   1483837  
  9060.000000   1485241   1486460   1487318   1487761   1487837  
  9050.000000   1487621   1487185   1486547   1485718   1484702  
  9040.000000   1483523   1482203   1480755   1479182   1477496  
  9030.000000   1475768   1474147   1472890   1472270   1472490  
  9020.000000   1473541   1475166   1476919   1478268   1478809  
  9010.000000   1478376   1477142   1475489   1473871   1472612  
  9000.000000   1471839   1471464   1471300   1471204   1471191  
  8990.000000   1471440   1472188   1473592   1475611   1477972  
  8980.000000   1480237   1481962   1482858   1482870   1482188  
  8970.000000   1481150   1480145   1479482   1479323   1479692  
  8960.000000   1480495   1481582   1482755   1483815   1484569  
  8950.000000   1484881   1484684   1484024   1483054   1481982  
  8940.000000   1481019   1480274   1479765   1479385   1478990  
  8930.000000   1478468   1477785   1477032   1476351   1475932  
  8920.000000   1475916   1476402   1477415   1478931   1480883  
  8910.000000   1483107   1485340   1487186   1488211   1488016  
  8900.000000   1486407   1483476   1479676   1475698   1472316  
  8890.000000   1470146   1469477   1470218   1471950   1474104  
  8880.000000   1476143   1477735   1478821   1479549   1480181  
  8870.000000   1480924   1481880   1482981   1484066   1484934  
  8860.000000   1485465   1485662   1485686   1485805   1486325  
  8850.000000   1487504   1489445   1492043   1494947   1497648  
  8840.000000   1499599   1500376   1499830   1498153   1495870  
  8830.000000   1493668   1492199   1491848   1492628   1494189  
  8820.000000   1495956   1497358   1498025   1497926   1497356  
  8810.000000   1496810   1496790   1497621   1499368   1501804  
  8800.000000   1504536   1507096   1509113   1510381   1510903  
  8790.000000   1510877   1510626   1510554   1511037   1512355  
  8780.000000   1514597   1517625   1521076   1524440   1527180  
  8770.000000   1528878   1529358   1528727   1527364   1525760  
  8760.000000   1524401   1523588   1523410   1523738   1524327  
  8750.000000   1524941   1525451   1525916   1526535   1527597  
  8740.000000   1529336   1531864   1535108   1538809   1542594  
  8730.000000   1546028   1548767   1550587   1551493   1551652  
  8720.000000   1551396   1551093   1551098   1551639   1552806  
  8710.000000   1554525   1556617   1558866   1561083   1563171  
  8700.000000   1565118   1567006   1568955   1571084   1573472  
  8690.000000   1576127   1578996   1581955   1584863   1587561  
  8680.000000   1589941   1591937   1593578   1594944   1596182  
  8670.000000   1597441   1598852   1600487   1602356   1604434  
  8660.000000   1606674   1609065   1611607   1614361   1617376  
  8650.000000   1620703   1624318   1628149   1632054   1635839  
  8640.000000   1639277   1642140   1644245   1645470   1645804  
  8630.000000   1645352   1644363   1643181   1642175   1641656  
  8620.000000   1641788   1642577   1643847   1645357   1646850  
  8610.000000   1648196   1649390   1650572   1651930   1653618  
  8600.000000   1655675   1657986   1660342   1662476   1664202  
  8590.000000   1665418   1666162   1666549   1666752   1666938  
  8580.000000   1667248   1667807   1668731   1670127   1672054  
  8570.000000   1674503   1677351   1680376   1683281   1685785  
  8560.000000   1687701   1688990   1689773   1690267   1690728  
  8550.000000   1691330   1692124   1693020   1693852   1694466  
  8540.000000   1694793   1694902   1694980   1695275   1696002  
  8530.000000   1697265   1699006   1701026   1703040   1704777  
  8520.000000   1706077   1706940   1707539   1708146   1709057  
  8510.000000   1710474   1712437   1714803   1717298   1719607  
  8500.000000   1721487   1722848   1723782   1724517   1725326  
  8490.000000   1726419   1727864   1729564   1731316   1732881  
  8480.000000   1734098   1734932   1735493   1735979   1736579  
  8470.000000   1737423   1738520   1739802   1741157   1742521  
  8460.000000   1743908   1745416   1747163   1749215   1751529  
  8450.000000   1753924   1756126   1757845   1758887   1759215  
  8440.000000   1758974   1758449   1757986   1757890   1758339  
  8430.000000   1759355   1760827   1762555   1764334   1765975  
  8420.000000   1767353   1768399   1769094   1769458   1769547  
  8410.000000   1769488   1769484   1769800   1770698   1772383  
  8400.000000   1774913   1778168   1781822   1785433   1788543  
  8390.000000   1790807   1792072   1792403   1792038   1791297  
  8380.000000   1790474   1789754   1789197   1788767   1788403  
  8370.000000   1788069   1787778   1787590   1787552   1787679  
  8360.000000   1787897   1788093   1788152   1788041   1787831  
  8350.000000   1787695   1787844   1788464   1789629   1791278  
  8340.000000   1793213   1795160   1796858   1798109   1798823  
  8330.000000   1798997   1798703   1798034   1797101   1796001  
  8320.000000   1794836   1793714   1792740   1792012   1791578  
  8310.000000   1791455   1791597   1791947   1792432   1793012  
  8300.000000   1793664   1794370   1795095   1795746   1796197  
  8290.000000   1796305   1795974   1795192   1794063   1792809  
  8280.000000   1791716   1791072   1791062   1791738   1792975  
  8270.000000   1794528   1796066   1797261   1797854   1797717  
  8260.000000   1796871   1795460   1793714   1791878   1790170  
  8250.000000   1788728   1787595   1786722   1786007   1785342  
  8240.000000   1784648   1783910   1783157   1782458   1781867  
  8230.000000   1781409   1781047   1780708   1780298   1779758  
  8220.000000   1779082   1778326   1777589   1776967   1776516  
  8210.000000   1776213   1775960   1775602   1774983   1773990  
  8200.000000   1772590   1770846   1768883   1766873   1764976  
  8190.000000   1763331   1762023   1761103   1760565   1760363  
  8180.000000   1760392   1760500   1760490   1760157   1759330  
  8170.000000   1757915   1755948   1753585   1751087   1748735  
  8160.000000   1746757   1745262   1744218   1743486   1742874  
  8150.000000   1742228   1741482   1740682   1739941   1739374  
  8140.000000   1739022   1738814   1738591   1738160   1737388  
  8130.000000   1736249   1734856   1733403   1732098   1731079  
  8120.000000   1730354   1729816   1729278   1728571   1727599  
  8110.000000   1726392   1725061   1723765   1722617   1721661  
  8100.000000   1720839   1720038   1719137   1718057   1716788  
  8090.000000   1715370   1713864   1712298   1710658   1708889  
  8080.000000   1706944   1704821   1702604   1700447   1698541  
  8070.000000   1697049   1696043   1695482   1695214   1695027  
  8060.000000   1694715   1694141   1693284   1692223   1691122  
  8050.000000   1690145   1689415   1688946   1688663   1688407  
  8040.000000   1688011   1687343   1686366   1685141   1683811  
  8030.000000   1682552   1681510   1680762   1680291   1680013  
  8020.000000   1679808   1679574   1679247   1678826   1678337  
  8010.000000   1677816   1677277   1676708   1676079   1675357  
  8000.000000   1674537   1673628   1672655   1671630   1670546  
  7990.000000   1669379   1668112   1666761   1665400   1664150  
  7980.000000   1663145   1662484   1662179   1662148   1662235  
  7970.000000   1662282   1662186   1661951   1661675   1661492  
  7960.000000   1661507   1661707   1661968   1662063   1661772  
  7950.000000   1660942   1659580   1657832   1655957   1654228  
  7940.000000   1652860   1651961   1651526   1651479   1651716  
  7930.000000   1652155   1652733   1653409   1654124   1654807  
  7920.000000   1655369   1655736   1655886   1655839   1655678  
  7910.000000   1655480   1655307   1655157   1654982   1654702  
  7900.000000   1654251   1653615   1652836   1652018   1651281  
  7890.000000   1650738   1650461   1650465   1650709   1651106  
  7880.000000   1651533   1651862   1651969   1651783   1651300  
  7870.000000   1650617   1649906   1649387   1649249   1649584  
  7860.000000   1650329   1651261   1652048   1652344   1651902  
  7850.000000   1650652   1648734   1646451   1644182   1642263  
  7840.000000   1640907   1640158   1639909   1639969   1640133  
  7830.000000   1640247   1640239   1640124   1639963   1639849  
  7820.000000   1639857   1640031   1640375   1640846   1641367  
  7810.000000   1641835   1642142   1642200   1641960   1641429  
  7800.000000   1640656   1639734   1638748   1637766   1636805  
  7790.000000   1635841   1634814   1633663   1632350   1630882  
  7780.000000   1629305   1627703   1626166   1624779   1623587  
  7770.000000   1622603   1621799   1621120   1620501   1619883  
  7760.000000   1619230   1618534   1617812   1617094   1616406  
  7750.000000   1615751   1615113   1614455   1613749   1612984  
  7740.000000   1612190   1611422   1610743   1610196   1609779  
  7730.000000   1609438   1609088   1608642   1608050   1607318  
  7720.000000   1606507   1605707   1605003   1604439   1604011  
  7710.000000   1603672   1603365   1603043   1602694   1602338  
  7700.000000   1602010   1601745   1601561   1601454   1601409  
  7690.000000   1601402   1601417   1601432   1601427   1601360  
  7680.000000   1601190   1600872   1600392   1599776   1599094  
  7670.000000   1598446   1597935   1597640   1597595   1597781  
  7660.000000   1598142   1598599   1599077   1599511   1599854  
  7650.000000   1600068   1600129   1600020   1599746   1599334  
  7640.000000   1598843   1598354   1597954   1597718   1597688  
  7630.000000   1597862   1598193   1598606   1599007   1599312  
  7620.000000   1599463   1599434   1599247   1598954   1598639  
  7610.000000   1598378   1598236   1598230   1598340   1598507  
  7600.000000   1598674   1598794   1598872   1598943   1599075  
  7590.000000   1599317   1599698   1600188   1600736   1601276  
  7580.000000   1601786   1602282   1602843   1603563   1604526  
  7570.000000   1605762   1607243   1608884   1610581   1612239  
  7560.000000   1613808   1615266   1616629   1617908   1619115  
  7550.000000   1620245   1621305   1622306   1623289   1624297  
  7540.000000   1625373   1626530   1627753   1629002   1630236  
  7530.000000   1631436   1632621   1633839   1635150   1636591  
  7520.000000   1638166   1639825   1641502   1643120   1644646  
  7510.000000   1646080   1647482   1648920   1650477   1652201  
  7500.000000   1654117   1656209   1658440   1660758   1663113  
  7490.000000   1665465   1667799   1670111   1672430   1674784  
  7480.000000   1677204   1679688   1682210   1684697   1687076  
  7470.000000   1689273   1691278   1693133   1694954   1696878  
  7460.000000   1699043   1701529   1704353   1707453   1710731  
  7450.000000   1714074   1717401   1720667   1723868   1727025  
  7440.000000   1730172   1733342   1736571   1739883   1743305  
  7430.000000   1746833   1750438   1754045   1757552   1760852  
  7420.000000   1763870   1766604   1769129   1771588   1774143  
  7410.000000   1776930   1780004   1783329   1786784   1790207  
  7400.000000   1793449   1796407   1799052   1801422   1803600  
  7390.000000   1805695   1807812   1810045   1812463   1815112  
  7380.000000   1818007   1821127   1824414   1827784   1831142  
  7370.000000   1834403   1837505   1840414   1843128   1845663  
  7360.000000   1848053   1850340   1852583   1854862   1857264  
  7350.000000   1859884   1862786   1865987   1869431   1872999  
  7340.000000   1876536   1879893   1882957   1885689   1888107  
  7330.000000   1890292   1892340   1894356   1896418   1898581  
  7320.000000   1900856   1903231   1905650   1908042   1910310  
  7310.000000   1912369   1914147   1915634   1916863   1917926  
  7300.000000   1918929   1919978   1921140   1922437   1923835  
  7290.000000   1925278   1926697   1928041   1929280   1930411  
  7280.000000   1931447   1932411   1933338   1934263   1935229  
  7270.000000   1936274   1937428   1938695   1940054   1941458  
  7260.000000   1942856   1944206   1945505   1946774   1948075  
  7250.000000   1949461   1950981   1952628   1954376   1956155  
  7240.000000   1957920   1959638   1961344   1963096   1964993  
  7230.000000   1967097   1969451   1972024   1974754   1977539  
  7220.000000   1980306   1983002   1985652   1988317   1991117  
  7210.000000   1994150   1997499   2001157   2005068   2009097  
  7200.000000   2013123   2017028   2020798   2024470   2028179  
  7190.000000   2032049   2036206   2040677   2045436   2050362  
  7180.000000   2055349   2060299   2065212   2070139   2075199  
  7170.000000   2080483   2086053   2091869   2097852   2103861  
  7160.000000   2109809   2115631   2121366   2127072   2132859  
  7150.000000   2138799   2144960   2151345   2157961   2164765  
  7140.000000   2171743   2178842   2186041   2193288   2200570  
  7130.000000   2207865   2215215   2222665   2230315   2238233  
  7120.000000   2246486   2255059   2263912   2272931   2282021  
  7110.000000   2291074   2300045   2308903   2317668   2326354  
  7100.000000   2335010   2343670   2352408   2361292   2370414  
  7090.000000   2379837   2389595   2399653   2409924   2420270  
  7080.000000   2430552   2440651   2450519   2460167   2469680  
  7070.000000   2479159   2488712   2498390   2508199   2518077  
  7060.000000   2527939   2537683   2547242   2556588   2565753  
  7050.000000   2574821   2583894   2593081   2602448   2612018  
  7040.000000   2621749   2631569   2641390   2651144   2660781  
  7030.000000   2670294   2679674   2688927   2698030   2706961  
  7020.000000   2715688   2724211   2732549   2740761   2748901  
  7010.000000   2757020   2765111   2773146   2781044   2788747  
  7000.000000   2796201   2803414   2810409   2817255   2823987  
  6990.000000   2830651   2837244   2843783   2850254   2856682  
  6980.000000   2863065   2869416   2875691   2881839   2887765  
  6970.000000   2893403   2898693   2903647   2908300   2912744  
  6960.000000   2917053   2921310   2925545   2929794   2934044  
  6950.000000   2938301   2942536   2946734   2950833   2954781  
  6940.000000   2958495   2961929   2965049   2967887   2970499  
  6930.000000   2972986   2975437   2977938   2980522   2983201  
  6920.000000   2985936   2988680   2991352   2993888   2996221  
  6910.000000   2998329   3000211   3001923   3003537   3005151  
  6900.000000   3006834   3008622   3010495   3012397   3014251  
  6890.000000   3015997   3017603   3019085   3020475   3021815  
  6880.000000   3023125   3024407   3025642   3026820   3027948  
  6870.000000   3029060   3030200   3031412   3032707   3034071  
  6860.000000   3035456   3036812   3038094   3039285   3040383  
  6850.000000   3041413   3042394   3043354   3044313   3045299  
  6840.000000   3046335   3047444   3048620   3049834   3051014  
  6830.000000   3052074   3052927   3053529   3053874   3054022  
  6820.000000   3054053   3054064   3054122   3054266   3054492  
  6810.000000   3054782   3055100   3055414   3055676   3055845  
  6800.000000   3055866   3055710   3055367   3054893   3054376  
  6790.000000   3053942   3053690   3053676   3053868   3054167  
  6780.000000   3054429   3054519   3054345   3053886   3053172  
  6770.000000   3052270   3051241   3050132   3048967   3047772  
  6760.000000   3046582   3045453   3044439   3043582   3042878  
  6750.000000   3042291   3041745   3041177   3040543   3039844  
  6740.000000   3039105   3038362   3037624   3036872   3036059  
  6730.000000   3035138   3034081   3032901   3031637   3030342  
  6720.000000   3029049   3027769   3026477   3025145   3023754  
  6710.000000   3022316   3020858   3019419   3018015   3016635  
  6700.000000   3015239   3013784   3012236   3010604   3008924  
  6690.000000   3007263   3005681   3004226   3002906   3001708  
  6680.000000   3000587   2999489   2998345   2997086   2995641  
  6670.000000   2993956   2992005   2989805   2987421   2984957  
  6660.000000   2982521   2980212   2978081   2976143   2974369  
  6650.000000   2972729   2971186   2969722   2968306   2966900  
  6640.000000   2965431   2963812   2961964   2959843   2957470  
  6630.000000   2954924   2952323   2949779   2947359   2945073  
  6620.000000   2942873   2940697   2938489   2936242   2933982  
  6610.000000   2931765   2929630   2927589   2925610   2923640  
  6600.000000   2921625   2919533   2917364   2915138   2912885  
  6590.000000   2910629   2908385   2906166   2903991   2901892  
  6580.000000   2899904   2898047   2896315   2894666   2893033  
  6570.000000   2891348   2889571   2887702   2885784   2883878  
  6560.000000   2882044   2880306   2878656   2877054   2875460  
  6550.000000   2873843   2872205   2870568   2868964   2867416  
  6540.000000   2865930   2864493   2863083   2861679   2860271  
  6530.000000   2858856   2857445   2856046   2854674   2853341  
  6520.000000   2852069   2850873   2849764   2848730   2847743  
  6510.000000   2846749   2845696   2844546   2843300   2841998  
  6500.000000   2840711   2839516   2838469   2837586   2836838  
  6490.000000   2836165   2835498   2834788   2834010   2833171  
  6480.000000   2832292   2831397   2830500   2829599   2828681  
  6470.000000   2827732   2826739   2825698   2824613   2823498  
  6460.000000   2822374   2821275   2820233   2819285   2818448  
  6450.000000   2817719   2817065   2816432   2815759   2814996  
  6440.000000   2814125   2813156   2812130   2811089   2810070  
  6430.000000   2809085   2808130   2807192   2806270   2805376  
  6420.000000   2804543   2803803   2803176   2802655   2802205  
  6410.000000   2801774   2801313   2800789   2800200   2799567  
  6400.000000   2798926   2798309   2797738   2797212   2796712  
  6390.000000   2796209   2795672   2795079   2794421   2793709  
  6380.000000   2792972   2792256   2791610   2791075   2790666  
  6370.000000   2790367   2790127   2789876   2789536   2789055  
  6360.000000   2788407   2787606   2786688   2785704   2784696  
  6350.000000   2783695   2782714   2781759   2780830   2779927  
  6340.000000   2779038   2778148   2777226   2776246   2775185  
  6330.000000   2774049   2772864   2771680   2770547   2769499  
  6320.000000   2768535   2767622   2766698   2765710   2764614  
  6310.000000   2763407   2762104   2760745   2759357   2757962  
  6300.000000   2756555   2755126   2753655   2752135   2750554  
  6290.000000   2748914   2747202   2745412   2743529   2741557  
  6280.000000   2739499   2737385   2735237   2733084   2730929  
  6270.000000   2728769   2726583   2724354   2722067   2719727  
  6260.000000   2717339   2714918   2712468   2709998   2707504  
  6250.000000   2704996   2702481   2699977   2697486   2695006  
  6240.000000   2692510   2689963   2687333   2684606   2681789  
  6230.000000   2678913   2676016   2673134   2670281   2667460  
  6220.000000   2664662   2661888   2659147   2656460   2653840  
  6210.000000   2651284   2648759   2646209   2643574   2640813  
  6200.000000   2637922   2634936   2631914   2628918   2625984  
  6190.000000   2623116   2620292   2617484   2614678   2611887  
  6180.000000   2609149   2606509   2604000   2601622   2599348  
  6170.000000   2597129   2594919   2592685   2590425   2588150  
  6160.000000   2585885   2583646   2581440   2579259   2577094  
  6150.000000   2574936   2572788   2570660   2568569   2566526  
  6140.000000   2564539   2562604   2560712   2558844   2556979  
  6130.000000   2555090   2553158   2551165   2549116   2547028  
  6120.000000   2544938   2542892   2540933   2539083   2537347  
  6110.000000   2535699   2534110   2532543   2530976   2529401  
  6100.000000   2527826   2526261   2524725   2523224   2521771  
  6090.000000   2520375   2519054   2517820   2516688   2515651  
  6080.000000   2514697   2513796   2512931   2512084   2511270  
  6070.000000   2510508   2509834   2509265   2508817   2508474  
  6060.000000   2508220   2508029   2507893   2507803   2507770  
  6050.000000   2507787   2507857   2507957   2508083   2508223  
  6040.000000   2508396   2508621   2508934   2509352   2509889  
  6030.000000   2510528   2511256   2512052   2512914   2513844  
  6020.000000   2514856   2515946   2517103   2518287   2519462  
  6010.000000   2520587   2521653   2522662   2523645   2524621  
  6000.000000   2525607   2526588   2527545   2528447   2529290  
  5990.000000   2530084   2530872   2531702   2532627   2533674  
  5980.000000   2534859   2536172   2537606   2539145   2540791  
  5970.000000   2542535   2544376   2546293   2548272   2550282  
  5960.000000   2552314   2554355   2556416   2558494   2560601  
  5950.000000   2562723   2564856   2566986   2569118   2571265  
  5940.000000   2573460   2575729   2578097   2580562   2583108  
  5930.000000   2585704   2588316   2590920   2593502   2596058  
  5920.000000   2598590   2601091   2603555   2605966   2608315  
  5910.000000   2610594   2612805   2614956   2617051   2619097  
  5900.000000   2621095   2623057   2624995   2626941   2628926  
  5890.000000   2630985   2633136   2635383   2637706   2640075  
  5880.000000   2642450   2644795   2647082   2649290   2651408  
  5870.000000   2653426   2655344   2657166   2658911   2660604  
  5860.000000   2662279   2663963   2665679   2667434   2669232  
  5850.000000   2671073   2672967   2674929   2676985   2679158  
  5840.000000   2681461   2683891   2686429   2689050   2691727  
  5830.000000   2694437   2697165   2699896   2702608   2705277  
  5820.000000   2707866   2710347   2712694   2714903   2716974  
  5810.000000   2718928   2720769   2722510   2724134   2725643  
  5800.000000   2727013   2728253   2729356   2730348   2731226  
  5790.000000   2732012   2732691   2733269   2733724   2734050  
  5780.000000   2734217   2734216   2734015   2733608   2732987  
  5770.000000   2732177   2731213   2730155   2729055   2727964  
  5760.000000   2726904   2725887   2724907   2723968   2723085  
  5750.000000   2722290   2721620   2721105   2720753   2720544  
  5740.000000   2720441   2720397   2720380   2720369   2720375  
  5730.000000   2720408   2720489   2720625   2720822   2721073  
  5720.000000   2721386   2721762   2722215   2722746   2723349  
  5710.000000   2723999   2724666   2725319   2725945   2726546  
  5700.000000   2727147   2727773   2728445   2729168   2729927  
  5690.000000   2730706   2731485   2732263   2733046   2733852  
  5680.000000   2734687   2735551   2736418   2737259   2738031  
  5670.000000   2738701   2739238   2739626   2739844   2739890  
  5660.000000   2739758   2739470   2739052   2738554   2738021  
  5650.000000   2737500   2737004   2736536   2736070   2735586  
  5640.000000   2735059   2734493   2733896   2733289   2732681  
  5630.000000   2732076   2731467   2730847   2730216   2729588  
  5620.000000   2728983   2728419   2727895   2727395   2726879  
  5610.000000   2726311   2725660   2724920   2724106   2723250  
  5600.000000   2722381   2721525   2720688   2719868   2719053  
  5590.000000   2718239   2717411   2716562   2715671   2714717  
  5580.000000   2713674   2712530   2711288   2709972   2708613  
  5570.000000   2707243   2705874   2704501   2703100   2701651  
  5560.000000   2700143   2698593   2697030   2695497   2694020  
  5550.000000   2692609   2691250   2689915   2688582   2687240  
  5540.000000   2685897   2684571   2683279   2682028   2680806  
  5530.000000   2679597   2678381   2677151   2675913   2674679  
  5520.000000   2673461   2672263   2671076   2669884   2668670  
  5510.000000   2667420   2666133   2664813   2663468   2662111  
  5500.000000   2660751   2659409   2658104   2656861   2655690  
  5490.000000   2654589   2653523   2652440   2651273   2649972  
  5480.000000   2648502   2646872   2645107   2643256   2641355  
  5470.000000   2639433   2637492   2635531   2633536   2631512  
  5460.000000   2629454   2627367   2625236   2623043   2620761  
  5450.000000   2618377   2615896   2613352   2610799   2608294  
  5440.000000   2605875   2603554   2601319   2599145   2597011  
  5430.000000   2594906   2592839   2590811   2588830   2586880  
  5420.000000   2584959   2583057   2581205   2579438   2577828  
  5410.000000   2576413   2575225   2574238   2573423   2572721  
  5400.000000   2572116   2571593   2571189   2570919   2570822  
  5390.000000   2570885   2571106   2571449   2571920   2572515  
  5380.000000   2573285   2574249   2575452   2576871   2578499  
  5370.000000   2580273   2582182   2584180   2586302   2588537  
  5360.000000   2590948   2593532   2596353   2599408   2602782  
  5350.000000   2606490   2610630   2615205   2620283   2625812  
  5340.000000   2631815   2638219   2645068   2652324   2660076  
  5330.000000   2668296   2677065   2686321   2696113   2706363  
  5320.000000   2717148   2728434   2740356   2752909   2766232  
  5310.000000   2780285   2795158   2810763   2827169   2844301  
  5300.000000   2862266   2881041   2900781   2921491   2943320  
  5290.000000   2966235   2990295   3015363   3041378   3068125  
  5280.000000   3095522   3123429   3151887   3180913   3210657  
  5270.000000   3241169   3272490   3304487   3336957   3369618  
  5260.000000   3402218   3434604   3466719   3498632   3530386  
  5250.000000   3562034   3593453   3624509   3654904   3684477  
  5240.000000   3713015   3740562   3767110   3792868   3817880  
  5230.000000   3842316   3866092   3889227   3911506   3932889  
  5220.000000   3953191   3972480   3990712   4008086   4024630  
  5210.000000   4040542   4055765   4070358   4084128   4097049  
  5200.000000   4108939   4119864   4129779   4138865   4147135  
  5190.000000   4154743   4161624   4167836   4173256   4177941  
  5180.000000   4181822   4185026   4187544   4189508   4190878  
  5170.000000   4191723   4191957   4191633   4190691   4189218  
  5160.000000   4187190   4184698   4181702   4178259   4174320  
  5150.000000   4169953   4165148   4160008   4154548   4148847  
  5140.000000   4142879   4136669   4130162   4123382   4116313  
  5130.000000   4109024   4101539   4093930   4086201   4078383  
  5120.000000   4070448   4062415   4054274   4046062   4037790  
  5110.000000   4029492   4021157   4012785   4004343   3995829  
  5100.000000   3987233   3978587   3969912   3961251   3952614  
  5090.000000   3944017   3935445   3926896   3918356   3909832  
  5080.000000   3901321   3892827   3884336   3875839   3867312  
  5070.000000   3858747   3850139   3841501   3832850   3824205  
  5060.000000   3815574   3806959   3798351   3789742   3781125  
  5050.000000   3772502   3763878   3755262   3746661   3738076  
  5040.000000   3729515   3720985   3712506   3704100   3695799  
  5030.000000   3687619   3679578   3671665   3663873   3656174  
  5020.000000   3648563   3641023   3633573   3626215   3618983  
  5010.000000   3611881   3604943   3598163   3591571   3585161  
  5000.000000   3578966   3572981   3567245   3561747   3556526  
  4990.000000   3551570   3546919   3542561   3538543   3534847  
  4980.000000   3531517   3528524   3525901   3523610   3521684  
  4970.000000   3520083   3518847   3517940   3517406   3517206  
  4960.000000   3517386   3517909   3518832   3520129   3521867  
  4950.000000   3524023   3526653   3529716   3533240   3537163  
  4940.000000   3541502   3546195   3551270   3556681   3562462  
  4930.000000   3568570   3575029   3581788   3588861   3596196  
  4920.000000   3603814   3611675   3619806   3628177   3636808  
  4910.000000   3645664   3654753   3664035   3673507   3683128  
  4900.000000   3692891   3702765   3712745   3722815   3732978  
  4890.000000   3743228   3753564   3763971   3774423   3784886  
  4880.000000   3795314   3805668   3815904   3825999   3835922  
  4870.000000   3845663   3855195   3864515   3873595   3882446  
  4860.000000   3891054   3899447   3907625   3915622   3923429  
  4850.000000   3931073   3938536   3945841   3952975   3959969  
  4840.000000   3966811   3973529   3980096   3986524   3992776  
  4830.000000   3998858   4004742   4010448   4015956   4021288  
  4820.000000   4026425   4031380   4036131   4040697   4045067  
  4810.000000   4049269   4053295   4057164   4060854   4064370  
  4800.000000   4067686   4070823   4073786   4076624   4079364  
  4790.000000   4082058   4084708   4087333   4089900   4092403  
  4780.000000   4094810   4097127   4099338   4101458   4103467  
  4770.000000   4105363   4107104   4108679   4110047   4111216  
  4760.000000   4112173   4112949   4113543   4113983   4114250  
  4750.000000   4114350   4114244   4113931   4113374   4112580  
  4740.000000   4111534   4110266   4108781   4107130   4105331  
  4730.000000   4103437   4101458   4099425   4097323   4095154  
  4720.000000   4092887   4090517   4088019   4085399   4082654  
  4710.000000   4079804   4076859   4073844   4070777   4067683  
  4700.000000   4064576   4061476   4058381   4055293   4052193  
  4690.000000   4049075   4045924   4042750   4039562   4036387  
  4680.000000   4033244   4030145   4027085   4024041   4020985  
  4670.000000   4017881   4014710   4011465   4008157   4004806  
  4660.000000   4001445   3998101   3994811   3991601   3988508  
  4650.000000   3985555   3982770   3980157   3977717   3975424  
  4640.000000   3973257   3971187   3969203   3967303   3965506  
  4630.000000   3963822   3962269   3960836   3959506   3958236  
  4620.000000   3956990   3955723   3954415   3953047   3951621  
  4610.000000   3950135   3948605   3947041   3945466   3943906  
  4600.000000   3942394   3940960   3939624   3938394   3937258  
  4590.000000   3936197   3935184   3934200   3933232   3932277  
  4580.000000   3931331   3930384   3929412   3928383   3927260  
  4570.000000   3926014   3924632   3923121   3921505   3919818  
  4560.000000   3918091   3916351   3914605   3912859   3911105  
  4550.000000   3909341   3907559   3905757   3903931   3902075  
  4540.000000   3900190   3898274   3896342   3894405   3892500  
  4530.000000   3890648   3888893   3887251   3885763   3884431  
  4520.000000   3883297   3882351   3881640   3881150   3880935  
  4510.000000   3880980   3881354   3882052   3883162   3884686  
  4500.000000   3886724   3889264   3892395   3896086   3900413  
  4490.000000   3905341   3910952   3917219   3924231   3931954  
  4480.000000   3940459   3949691   3959691   3970385   3981792  
  4470.000000   3993830   4006500   4019706   4033428   4047560  
  4460.000000   4062070   4076862   4091908   4107131   4122503  
  4450.000000   4137949   4153421   4168847   4184176   4199366  
  4440.000000   4214392   4229264   4243975   4258559   4272990  
  4430.000000   4287291   4301398   4315318   4328960   4342328  
  4420.000000   4355311   4367907   4379983   4391529   4402394  
  4410.000000   4412564   4421891   4430365   4437848   4444346  
  4400.000000   4449746   4454081   4457287   4459450   4460575  
  4390.000000   4460803   4460198   4458926   4457077   4454812  
  4380.000000   4452222   4449453   4446604   4443816   4441204  
  4370.000000   4438896   4437005   4435623   4434827   4434651  
  4360.000000   4435128   4436239   4437986   4440321   4443223  
  4350.000000   4446633   4450520   4454823   4459515   4464548  
  4340.000000   4469901   4475523   4481362   4487308   4493216  
  4330.000000   4498881   4504079   4508583   4512220   4514911  
  4320.000000   4516692   4517731   4518269   4518614   4519023  
  4310.000000   4519715   4520764   4522187   4523865   4525689  
  4300.000000   4527489   4529171   4530633   4531855   4532807  
  4290.000000   4533505   4533951   4534166   4534159   4533957  
  4280.000000   4533578   4533065   4532441   4531765   4531060  
  4270.000000   4530389   4529765   4529221   4528722   4528225  
  4260.000000   4527618   4526786   4525590   4523934   4521764  
  4250.000000   4519103   4516039   4512715   4509290   4505926  
  4240.000000   4502740   4499813   4497168   4494800   4492665  
  4230.000000   4490716   4488892   4487134   4485385   4483591  
  4220.000000   4481719   4479737   4477656   4475484   4473275  
  4210.000000   4471065   4468920   4466877   4464993   4463291  
  4200.000000   4461814   4460566   4459572   4458811   4458286  
  4190.000000   4457947   4457793   4457771   4457903   4458162  
  4180.000000   4458605   4459228   4460110   4461254   4462751  
  4170.000000   4464618   4466966   4469827   4473314   4477439  
  4160.000000   4482271   4487759   4493912   4500624   4507882  
  4150.000000   4515581   4523731   4532258   4541203   4550518  
  4140.000000   4560263   4570404   4581011   4592059   4603613  
  4130.000000   4615637   4628172   4641161   4654621   4668490  
  4120.000000   4682788   4697472   4712578   4728077   4744003  
  4110.000000   4760323   4777054   4794148   4811606   4829370  
  4100.000000   4847425   4865708   4884191   4902823   4921587  
  4090.000000   4940459   4959448   4978558   4997804   5017199  
  4080.000000   5036737   5056419   5076210   5096093   5116001  
  4070.000000   5135894   5155674   5175300   5194678   5213807  
  4060.000000   5232634   5251206   5269479   5287495   5305162  
  4050.000000   5322480   5339312   5355655   5371377   5386508  
  4040.000000   5400927   5414675   5427616   5439786   5451052  
  4030.000000   5461477   5470957   5479574   5487227   5493962  
  4020.000000   5499617   5504221   5507683   5510067   5511284  
  4010.000000   5511509   5510845   5509377   5506899   5503566  
  4000.000000   5499809  
##END= 
