##TITLE= Sample 015 By ssteindl date Donnerstag, November 22 2018
##JCAMP-DX= 4.24
##DATA TYPE= INFRARED SPECTRUM
##ORIGIN= Exported PE Spectrum Data File
##OWNER= Sandra Steindl
##DATE= 18/11/22
##TIME= 13:24:35.00
##SPECTROMETER/DATA SYSTEM= PERKIN-ELMER Frontier FT-IR/NIR IR
##INSTRUMENT PARAMETERS=
  APODIZATION=stark
  DETECTOR=INGAAS
##RESOLUTION= 16.000000
##DELTAX= -2.000000
##XUNITS= 1/CM
##YUNITS= A
##XFACTOR= 1.00
##YFACTOR= 0.00000011920928955078
##FIRSTX= 10000.00
##LASTX= 4000.00
##NPOINTS= 3001
##FIRSTY= 0.223517
##MAXY= 0.623537
##MINY= 0.191382
##XYDATA= (X++(Y..Y))
 10000.000000   1874993   1875384   1876536   1879283   1883220  
  9990.000000   1887114   1889907   1891110   1890611   1888676  
  9980.000000   1886015   1883416   1881310   1879623   1877969  
  9970.000000   1875931   1873260   1870101   1866867   1864122  
  9960.000000   1862276   1861534   1861830   1862971   1864706  
  9950.000000   1866751   1868766   1870257   1870657   1869408  
  9940.000000   1866255   1861390   1855572   1849914   1845600  
  9930.000000   1843471   1843758   1846028   1849331   1852592  
  9920.000000   1854939   1856016   1855979   1855380   1854836  
  9910.000000   1854814   1855420   1856463   1857519   1858132  
  9900.000000   1857982   1856919   1855079   1852698   1850126  
  9890.000000   1847562   1845016   1842218   1838714   1834086  
  9880.000000   1828199   1821494   1815002   1810250   1808780  
  9870.000000   1811684   1819087   1829986   1842423   1853958  
  9860.000000   1862398   1866327   1865525   1860851   1853949  
  9850.000000   1846652   1840544   1836614   1835209   1836111  
  9840.000000   1838726   1842283   1845925   1848894   1850503  
  9830.000000   1850382   1848431   1844996   1840760   1836610  
  9820.000000   1833426   1831751   1831705   1832892   1834593  
  9810.000000   1836001   1836418   1835509   1833283   1830169  
  9800.000000   1826838   1824104   1822690   1823022   1825088  
  9790.000000   1828327   1831797   1834341   1834984   1833167  
  9780.000000   1828945   1822992   1816355   1810238   1805579  
  9770.000000   1802951   1802411   1803687   1806309   1809758  
  9760.000000   1813538   1817066   1819704   1820659   1819252  
  9750.000000   1815009   1808004   1798853   1788727   1779081  
  9740.000000   1771358   1766743   1765874   1768891   1775298  
  9730.000000   1784218   1794388   1804440   1813025   1819022  
  9720.000000   1821750   1821013   1817224   1811178   1803967  
  9710.000000   1796594   1789858   1784208   1779795   1776674  
  9700.000000   1774786   1774160   1774641   1775986   1777673  
  9690.000000   1779087   1779668   1779065   1777307   1774612  
  9680.000000   1771326   1767603   1763439   1758678   1753330  
  9670.000000   1747769   1742857   1739769   1739585   1742824  
  9660.000000   1749113   1757170   1765202   1771431   1774729  
  9650.000000   1774867   1772563   1769054   1765687   1763428  
  9640.000000   1762746   1763640   1765866   1769155   1773224  
  9630.000000   1777785   1782343   1786299   1789005   1790096  
  9620.000000   1789623   1788107   1786298   1784816   1783839  
  9610.000000   1782989   1781508   1778689   1774250   1768647  
  9600.000000   1762900   1758301   1755790   1755615   1757155  
  9590.000000   1759214   1760498   1760104   1757800   1753968  
  9580.000000   1749337   1744641   1740385   1736819   1734049  
  9570.000000   1732179   1731390   1731808   1733387   1735690  
  9560.000000   1737962   1739259   1738821   1736336   1732122  
  9550.000000   1727009   1722077   1718276   1716174   1715875  
  9540.000000   1717126   1719533   1722712   1726357   1730176  
  9530.000000   1733802   1736771   1738558   1738791   1737332  
  9520.000000   1734476   1730764   1726960   1723693   1721405  
  9510.000000   1720217   1720004   1720581   1721720   1723372  
  9500.000000   1725496   1728176   1731427   1735282   1739693  
  9490.000000   1744519   1749466   1753983   1757355   1758731  
  9480.000000   1757468   1753278   1746498   1738047   1729256  
  9470.000000   1721559   1716029   1713216   1712920   1714540  
  9460.000000   1717194   1720215   1723142   1725839   1728242  
  9450.000000   1730237   1731560   1731805   1730592   1727645  
  9440.000000   1722960   1716763   1709537   1701879   1694464  
  9430.000000   1687943   1682885   1679703   1678521   1679090  
  9420.000000   1680708   1682342   1682875   1681497   1678073  
  9410.000000   1673235   1668285   1664669   1663555   1665312  
  9400.000000   1669476   1674835   1679936   1683536   1685044  
  9390.000000   1684637   1683120   1681543   1680810   1681407  
  9380.000000   1683346   1686243   1689511   1692518   1694748  
  9370.000000   1695904   1695917   1694995   1693495   1691925  
  9360.000000   1690756   1690348   1690795   1691878   1693105  
  9350.000000   1693862   1693613   1692111   1689428   1685955  
  9340.000000   1682219   1678756   1675963   1674052   1673041  
  9330.000000   1672793   1673068   1673560   1673935   1673860  
  9320.000000   1673096   1671571   1669472   1667221   1665365  
  9310.000000   1664367   1664437   1665455   1667026   1668654  
  9300.000000   1669926   1670691   1671087   1671434   1672031  
  9290.000000   1672957   1674026   1674823   1674925   1674030  
  9280.000000   1672109   1669389   1666273   1663219   1660590  
  9270.000000   1658657   1657555   1657405   1658232   1660000  
  9260.000000   1662484   1665291   1667887   1669735   1670429  
  9250.000000   1669812   1667990   1665284   1662093   1658770  
  9240.000000   1655537   1652517   1649780   1647436   1645609  
  9230.000000   1644390   1643714   1643317   1642781   1641640  
  9220.000000   1639571   1636491   1632646   1628490   1624584  
  9210.000000   1621368   1619113   1617877   1617629   1618298  
  9200.000000   1619825   1622126   1625031   1628232   1631304  
  9190.000000   1633796   1635402   1636081   1636109   1635926  
  9180.000000   1635980   1636502   1637456   1638534   1639306  
  9170.000000   1639425   1638768   1637498   1635940   1634463  
  9160.000000   1633321   1632596   1632210   1631999   1631819  
  9150.000000   1631571   1631225   1630764   1630189   1629517  
  9140.000000   1628819   1628246   1628007   1628345   1629418  
  9130.000000   1631236   1633616   1636244   1638797   1641029  
  9120.000000   1642847   1644249   1645279   1645915   1646058  
  9110.000000   1645540   1644244   1642248   1639862   1637608  
  9100.000000   1635995   1635435   1636030   1637624   1639769  
  9090.000000   1641971   1643792   1644976   1645409   1645046  
  9080.000000   1643851   1641753   1638702   1634708   1629957  
  9070.000000   1624830   1619881   1615680   1612651   1610986  
  9060.000000   1610596   1611185   1612312   1613553   1614598  
  9050.000000   1615277   1615546   1615438   1615069   1614558  
  9040.000000   1614048   1613643   1613466   1613570   1613964  
  9030.000000   1614568   1615257   1615877   1616275   1616355  
  9020.000000   1616092   1615549   1614858   1614172   1613650  
  9010.000000   1613381   1613395   1613612   1613902   1614104  
  9000.000000   1614106   1613882   1613506   1613165   1613076  
  8990.000000   1613453   1614397   1615918   1617916   1620251  
  8980.000000   1622750   1625247   1627563   1629490   1630768  
  8970.000000   1631122   1630347   1628378   1625383   1621752  
  8960.000000   1618036   1614788   1612382   1610940   1610289  
  8950.000000   1610111   1610032   1609841   1609521   1609262  
  8940.000000   1609315   1609855   1610884   1612167   1613353  
  8930.000000   1614040   1613983   1613105   1611575   1609696  
  8920.000000   1607851   1606381   1605530   1605427   1606079  
  8910.000000   1607399   1609208   1611273   1613347   1615211  
  8900.000000   1616733   1617879   1618736   1619439   1620122  
  8890.000000   1620834   1621524   1622068   1622329   1622267  
  8880.000000   1621975   1621702   1621763   1622429   1623796  
  8870.000000   1625722   1627821   1629564   1630415   1630011  
  8860.000000   1628276   1625473   1622137   1618956   1616580  
  8850.000000   1615478   1615801   1617359   1619652   1622035  
  8840.000000   1623873   1624722   1624407   1623066   1621091  
  8830.000000   1618993   1617256   1616178   1615846   1616096  
  8820.000000   1616643   1617140   1617336   1617114   1616533  
  8810.000000   1615777   1615094   1614712   1614787   1615360  
  8800.000000   1616381   1617721   1619246   1620840   1622448  
  8790.000000   1624067   1625731   1627463   1629237   1630959  
  8780.000000   1632492   1633684   1634450   1634794   1634849  
  8770.000000   1634817   1634919   1635305   1636014   1636971  
  8760.000000   1638027   1639043   1639943   1640763   1641613  
  8750.000000   1642640   1643935   1645512   1647287   1649132  
  8740.000000   1650914   1652545   1653989   1655245   1656312  
  8730.000000   1657155   1657708   1657907   1657735   1657256  
  8720.000000   1656608   1655967   1655492   1655267   1655283  
  8710.000000   1655454   1655669   1655840   1655946   1656022  
  8700.000000   1656153   1656413   1656858   1657492   1658315  
  8690.000000   1659314   1660503   1661902   1663539   1665415  
  8680.000000   1667505   1669751   1672094   1674481   1676876  
  8670.000000   1679247   1681554   1683725   1685667   1687274  
  8660.000000   1688472   1689245   1689659   1689840   1689929  
  8650.000000   1690049   1690268   1690603   1691037   1691550  
  8640.000000   1692149   1692867   1693741   1694788   1695978  
  8630.000000   1697242   1698497   1699683   1700810   1701944  
  8620.000000   1703210   1704716   1706531   1708629   1710904  
  8610.000000   1713201   1715365   1717294   1718965   1720431  
  8600.000000   1721797   1723174   1724640   1726218   1727869  
  8590.000000   1729509   1731026   1732325   1733335   1734055  
  8580.000000   1734526   1734867   1735220   1735755   1736597  
  8570.000000   1737811   1739360   1741095   1742773   1744103  
  8560.000000   1744834   1744804   1744012   1742623   1740958  
  8550.000000   1739408   1738340   1738026   1738579   1739960  
  8540.000000   1741980   1744394   1746944   1749438   1751744  
  8530.000000   1753812   1755632   1757200   1758504   1759496  
  8520.000000   1760158   1760446   1760375   1759957   1759264  
  8510.000000   1758380   1757408   1756476   1755728   1755343  
  8500.000000   1755480   1756291   1757846   1760141   1763048  
  8490.000000   1766341   1769726   1772885   1775552   1777527  
  8480.000000   1778742   1779225   1779135   1778676   1778091  
  8470.000000   1777597   1777363   1777487   1777979   1778813  
  8460.000000   1779922   1781270   1782811   1784535   1786409  
  8450.000000   1788391   1790381   1792231   1793787   1794908  
  8440.000000   1795550   1795735   1795588   1795250   1794865  
  8430.000000   1794521   1794256   1794079   1794001   1794090  
  8420.000000   1794449   1795221   1796493   1798300   1800550  
  8410.000000   1803079   1805654   1808053   1810103   1811693  
  8400.000000   1812794   1813388   1813488   1813095   1812239  
  8390.000000   1810977   1809415   1807723   1806103   1804792  
  8380.000000   1803978   1803817   1804363   1805600   1807386  
  8370.000000   1809474   1811524   1813163   1814074   1814060  
  8360.000000   1813140   1811542   1809689   1808064   1807069  
  8350.000000   1806908   1807538   1808718   1810090   1811336  
  8340.000000   1812257   1812843   1813194   1813461   1813726  
  8330.000000   1813969   1814077   1813909   1813384   1812517  
  8320.000000   1811432   1810303   1809286   1808451   1807765  
  8310.000000   1807121   1806401   1805538   1804538   1803469  
  8300.000000   1802434   1801526   1800817   1800350   1800160  
  8290.000000   1800271   1800706   1801449   1802430   1803506  
  8280.000000   1804489   1805216   1805599   1805689   1805640  
  8270.000000   1805684   1806019   1806750   1807818   1809021  
  8260.000000   1810070   1810687   1810675   1809971   1808623  
  8250.000000   1806776   1804606   1802304   1800028   1797933  
  8240.000000   1796129   1794713   1793712   1793107   1792787  
  8230.000000   1792598   1792352   1791886   1791093   1789938  
  8220.000000   1788455   1786711   1784802   1782810   1780827  
  8210.000000   1778932   1777223   1775787   1774690   1773957  
  8200.000000   1773541   1773356   1773263   1773153   1772942  
  8190.000000   1772624   1772239   1771851   1771504   1771181  
  8180.000000   1770803   1770229   1769318   1767949   1766080  
  8170.000000   1763750   1761091   1758292   1755571   1753132  
  8160.000000   1751117   1749607   1748597   1748032   1747803  
  8150.000000   1747800   1747908   1748046   1748150   1748177  
  8140.000000   1748095   1747865   1747452   1746817   1745942  
  8130.000000   1744820   1743473   1741939   1740270   1738531  
  8120.000000   1736783   1735097   1733527   1732117   1730869  
  8110.000000   1729746   1728666   1727515   1726184   1724599  
  8100.000000   1722760   1720745   1718703   1716817   1715254  
  8090.000000   1714125   1713466   1713228   1713313   1713584  
  8080.000000   1713909   1714151   1714198   1713953   1713364  
  8070.000000   1712428   1711219   1709878   1708597   1707569  
  8060.000000   1706937   1706742   1706904   1707242   1707524  
  8050.000000   1707543   1707173   1706406   1705338   1704123  
  8040.000000   1702918   1701827   1700886   1700067   1699315  
  8030.000000   1698585   1697870   1697212   1696673   1696317  
  8020.000000   1696166   1696193   1696315   1696412   1696374  
  8010.000000   1696105   1695579   1694808   1693866   1692836  
  8000.000000   1691804   1690829   1689940   1689147   1688460  
  7990.000000   1687908   1687548   1687456   1687693   1688272  
  7980.000000   1689121   1690091   1690969   1691545   1691673  
  7970.000000   1691319   1690579   1689632   1688685   1687894  
  7960.000000   1687318   1686909   1686547   1686102   1685493  
  7950.000000   1684720   1683855   1683001   1682238   1681592  
  7940.000000   1681025   1680465   1679848   1679158   1678446  
  7930.000000   1677798   1677316   1677056   1677028   1677175  
  7920.000000   1677421   1677682   1677901   1678041   1678087  
  7910.000000   1678021   1677830   1677513   1677111   1676704  
  7900.000000   1676421   1676383   1676670   1677260   1678027  
  7890.000000   1678766   1679255   1679340   1678997   1678343  
  7880.000000   1677605   1677041   1676852   1677117   1677771  
  7870.000000   1678643   1679514   1680199   1680590   1680683  
  7860.000000   1680541   1680267   1679943   1679619   1679292  
  7850.000000   1678931   1678500   1677969   1677331   1676587  
  7840.000000   1675747   1674816   1673800   1672716   1671601  
  7830.000000   1670527   1669587   1668886   1668509   1668508  
  7820.000000   1668871   1669536   1670393   1671319   1672201  
  7810.000000   1672954   1673534   1673922   1674115   1674099  
  7800.000000   1673844   1673313   1672483   1671371   1670056  
  7790.000000   1668675   1667386   1666329   1665558   1665037  
  7780.000000   1664622   1664131   1663395   1662338   1661007  
  7770.000000   1659561   1658217   1657169   1656526   1656269  
  7760.000000   1656269   1656340   1656312   1656090   1655680  
  7750.000000   1655176   1654708   1654388   1654265   1654303  
  7740.000000   1654405   1654435   1654273   1653835   1653102  
  7730.000000   1652117   1650970   1649793   1648718   1647868  
  7720.000000   1647318   1647088   1647125   1647321   1647536  
  7710.000000   1647629   1647499   1647098   1646444   1645593  
  7700.000000   1644630   1643630   1642656   1641749   1640935  
  7690.000000   1640238   1639680   1639287   1639073   1639039  
  7680.000000   1639164   1639402   1639691   1639950   1640099  
  7670.000000   1640053   1639756   1639171   1638322   1637279  
  7660.000000   1636167   1635130   1634304   1633777   1633565  
  7650.000000   1633622   1633860   1634189   1634548   1634917  
  7640.000000   1635300   1635698   1636085   1636392   1636533  
  7630.000000   1636431   1636078   1635534   1634936   1634437  
  7620.000000   1634162   1634160   1634391   1634752   1635122  
  7610.000000   1635408   1635577   1635656   1635699   1635758  
  7600.000000   1635856   1635986   1636127   1636270   1636428  
  7590.000000   1636633   1636921   1637300   1637743   1638183  
  7580.000000   1638544   1638762   1638811   1638699   1638469  
  7570.000000   1638172   1637871   1637625   1637508   1637597  
  7560.000000   1637972   1638680   1639715   1640997   1642380  
  7550.000000   1643694   1644797   1645630   1646241   1646757  
  7540.000000   1647337   1648100   1649085   1650225   1651391  
  7530.000000   1652430   1653240   1653794   1654147   1654400  
  7520.000000   1654661   1655004   1655458   1656014   1656652  
  7510.000000   1657351   1658116   1658953   1659877   1660886  
  7500.000000   1661975   1663134   1664366   1665682   1667104  
  7490.000000   1668639   1670288   1672018   1673798   1675587  
  7480.000000   1677368   1679136   1680903   1682672   1684437  
  7470.000000   1686165   1687825   1689387   1690853   1692247  
  7460.000000   1693617   1695010   1696463   1697986   1699575  
  7450.000000   1701220   1702918   1704672   1706488   1708353  
  7440.000000   1710239   1712093   1713873   1715550   1717138  
  7430.000000   1718683   1720258   1721927   1723731   1725669  
  7420.000000   1727719   1729846   1732027   1734257   1736541  
  7410.000000   1738880   1741259   1743644   1745996   1748291  
  7400.000000   1750540   1752784   1755078   1757458   1759919  
  7390.000000   1762406   1764832   1767111   1769192   1771082  
  7380.000000   1772838   1774546   1776287   1778107   1780013  
  7370.000000   1781988   1784006   1786055   1788132   1790245  
  7360.000000   1792384   1794530   1796644   1798698   1800686  
  7350.000000   1802638   1804608   1806647   1808778   1810973  
  7340.000000   1813166   1815271   1817222   1818998   1820625  
  7330.000000   1822166   1823683   1825228   1826816   1828444  
  7320.000000   1830098   1831778   1833488   1835247   1837041  
  7310.000000   1838842   1840581   1842192   1843618   1844846  
  7300.000000   1845903   1846847   1847728   1848574   1849374  
  7290.000000   1850097   1850707   1851206   1851633   1852066  
  7280.000000   1852586   1853262   1854112   1855120   1856235  
  7270.000000   1857408   1858610   1859832   1861090   1862386  
  7260.000000   1863709   1865015   1866251   1867367   1868359  
  7250.000000   1869260   1870161   1871161   1872363   1873814  
  7240.000000   1875514   1877398   1879372   1881325   1883182  
  7230.000000   1884900   1886500   1888030   1889576   1891206  
  7220.000000   1892983   1894924   1897026   1899243   1901533  
  7210.000000   1903845   1906166   1908494   1910870   1913338  
  7200.000000   1915955   1918755   1921764   1924970   1928353  
  7190.000000   1931861   1935445   1939032   1942575   1946019  
  7180.000000   1949354   1952581   1955743   1958877   1962038  
  7170.000000   1965242   1968508   1971823   1975196   1978636  
  7160.000000   1982191   1985907   1989836   1993991   1998360  
  7150.000000   2002886   2007515   2012191   2016916   2021706  
  7140.000000   2026620   2031682   2036895   2042190   2047494  
  7130.000000   2052716   2057845   2062915   2068054   2073393  
  7120.000000   2079063   2085098   2091459   2098007   2104594  
  7110.000000   2111073   2117391   2123547   2129626   2135708  
  7100.000000   2141883   2148179   2154604   2161129   2167741  
  7090.000000   2174440   2181255   2188224   2195387   2202756  
  7080.000000   2210313   2218001   2225748   2233458   2241051  
  7070.000000   2248446   2255605   2262506   2269175   2275658  
  7060.000000   2282036   2288392   2294814   2301373   2308123  
  7050.000000   2315085   2322252   2329583   2337012   2344456  
  7040.000000   2351832   2359079   2366174   2373148   2380073  
  7030.000000   2387041   2394128   2401360   2408692   2416024  
  7020.000000   2423217   2430164   2436802   2443161   2449318  
  7010.000000   2455391   2461457   2467549   2473619   2479583  
  7000.000000   2485339   2490833   2496054   2501065   2505938  
  6990.000000   2510766   2515591   2520436   2525270   2530078  
  6980.000000   2534831   2539548   2544248   2548974   2553736  
  6970.000000   2558527   2563278   2567903   2572282   2576318  
  6960.000000   2579939   2583149   2586007   2588651   2591236  
  6950.000000   2593929   2596828   2599974   2603305   2606714  
  6940.000000   2610054   2613216   2616127   2618797   2621268  
  6930.000000   2623616   2625892   2628131   2630325   2632463  
  6920.000000   2634526   2636523   2638468   2640389   2642292  
  6910.000000   2644175   2646007   2647769   2649434   2651010  
  6900.000000   2652512   2653974   2655416   2656856   2658292  
  6890.000000   2659719   2661121   2662489   2663804   2665048  
  6880.000000   2666197   2667237   2668165   2669010   2669820  
  6870.000000   2670662   2671584   2672614   2673731   2674895  
  6860.000000   2676053   2677175   2678257   2679327   2680410  
  6850.000000   2681512   2682597   2683599   2684448   2685105  
  6840.000000   2685588   2685974   2686367   2686869   2687524  
  6830.000000   2688326   2689208   2690099   2690940   2691721  
  6820.000000   2692462   2693199   2693941   2694662   2695298  
  6810.000000   2695781   2696069   2696170   2696141   2696072  
  6800.000000   2696046   2696122   2696310   2696595   2696936  
  6790.000000   2697305   2697672   2698018   2698314   2698523  
  6780.000000   2698604   2698531   2698304   2697964   2697571  
  6770.000000   2697193   2696868   2696600   2696360   2696107  
  6760.000000   2695809   2695468   2695106   2694764   2694463  
  6750.000000   2694201   2693947   2693667   2693335   2692961  
  6740.000000   2692582   2692250   2692002   2691847   2691757  
  6730.000000   2691686   2691586   2691434   2691232   2691004  
  6720.000000   2690775   2690557   2690339   2690102   2689819  
  6710.000000   2689484   2689099   2688677   2688226   2687749  
  6700.000000   2687230   2686664   2686050   2685411   2684774  
  6690.000000   2684170   2683603   2683054   2682479   2681830  
  6680.000000   2681070   2680192   2679208   2678151   2677041  
  6670.000000   2675893   2674706   2673486   2672252   2671046  
  6660.000000   2669914   2668891   2667969   2667104   2666211  
  6650.000000   2665213   2664056   2662753   2661365   2659989  
  6640.000000   2658712   2657589   2656613   2655736   2654880  
  6630.000000   2653972   2652958   2651809   2650510   2649062  
  6620.000000   2647464   2645733   2643902   2642034   2640203  
  6610.000000   2638485   2636921   2635508   2634189   2632879  
  6600.000000   2631492   2629973   2628315   2626556   2624754  
  6590.000000   2622967   2621229   2619545   2617902   2616283  
  6580.000000   2614680   2613094   2611537   2610015   2608525  
  6570.000000   2607055   2605593   2604130   2602672   2601229  
  6560.000000   2599812   2598422   2597046   2595666   2594269  
  6550.000000   2592859   2591462   2590117   2588865   2587726  
  6540.000000   2586693   2585727   2584771   2583766   2582671  
  6530.000000   2581466   2580157   2578767   2577329   2575876  
  6520.000000   2574441   2573052   2571736   2570510   2569385  
  6510.000000   2568361   2567423   2566552   2565724   2564923  
  6500.000000   2564136   2563361   2562595   2561836   2561076  
  6490.000000   2560302   2559500   2558656   2557764   2556820  
  6480.000000   2555828   2554797   2553740   2552678   2551628  
  6470.000000   2550612   2549640   2548716   2547833   2546977  
  6460.000000   2546134   2545294   2544456   2543628   2542816  
  6450.000000   2542020   2541234   2540444   2539638   2538814  
  6440.000000   2537987   2537180   2536425   2535740   2535130  
  6430.000000   2534576   2534051   2533524   2532978   2532405  
  6420.000000   2531816   2531221   2530632   2530056   2529499  
  6410.000000   2528973   2528501   2528108   2527819   2527637  
  6400.000000   2527540   2527478   2527393   2527230   2526965  
  6390.000000   2526608   2526207   2525819   2525504   2525294  
  6380.000000   2525192   2525168   2525175   2525164   2525092  
  6370.000000   2524935   2524689   2524372   2524011   2523646  
  6360.000000   2523309   2523020   2522774   2522538   2522257  
  6350.000000   2521873   2521341   2520655   2519847   2518990  
  6340.000000   2518164   2517445   2516868   2516431   2516088  
  6330.000000   2515784   2515458   2515075   2514611   2514065  
  6320.000000   2513430   2512699   2511857   2510896   2509814  
  6310.000000   2508638   2507403   2506160   2504946   2503791  
  6300.000000   2502694   2501646   2500614   2499575   2498492  
  6290.000000   2497345   2496109   2494778   2493351   2491847  
  6280.000000   2490295   2488735   2487196   2485694   2484218  
  6270.000000   2482742   2481228   2479654   2478010   2476311  
  6260.000000   2474580   2472843   2471111   2469380   2467638  
  6250.000000   2465876   2464097   2462321   2460572   2458870  
  6240.000000   2457210   2455572   2453919   2452218   2450456  
  6230.000000   2448644   2446814   2445002   2443236   2441519  
  6220.000000   2439837   2438163   2436474   2434758   2433018  
  6210.000000   2431267   2429517   2427770   2426027   2424282  
  6200.000000   2422537   2420804   2419100   2417441   2415833  
  6190.000000   2414267   2412725   2411186   2409639   2408087  
  6180.000000   2406544   2405024   2403536   2402072   2400617  
  6170.000000   2399148   2397653   2396131   2394593   2393057  
  6160.000000   2391536   2390035   2388550   2387075   2385612  
  6150.000000   2384172   2382772   2381428   2380144   2378907  
  6140.000000   2377689   2376456   2375186   2373870   2372523  
  6130.000000   2371169   2369834   2368531   2367263   2366013  
  6120.000000   2364768   2363518   2362269   2361039   2359857  
  6110.000000   2358745   2357723   2356794   2355951   2355177  
  6100.000000   2354454   2353760   2353086   2352418   2351761  
  6090.000000   2351111   2350480   2349864   2349267   2348681  
  6080.000000   2348107   2347539   2346994   2346488   2346056  
  6070.000000   2345721   2345508   2345412   2345423   2345506  
  6060.000000   2345636   2345787   2345961   2346159   2346403  
  6050.000000   2346700   2347059   2347469   2347930   2348437  
  6040.000000   2349010   2349667   2350442   2351349   2352397  
  6030.000000   2353562   2354822   2356142   2357507   2358908  
  6020.000000   2360356   2361855   2363411   2365007   2366628  
  6010.000000   2368242   2369838   2371403   2372951   2374490  
  6000.000000   2376044   2377620   2379234   2380890   2382611  
  5990.000000   2384413   2386330   2388379   2390579   2392923  
  5980.000000   2395396   2397963   2400596   2403255   2405921  
  5970.000000   2408567   2411186   2413764   2416308   2418823  
  5960.000000   2421340   2423885   2426502   2429214   2432043  
  5950.000000   2434982   2438022   2441137   2444309   2447525  
  5940.000000   2450781   2454082   2457433   2460843   2464313  
  5930.000000   2467844   2471432   2475063   2478712   2482340  
  5920.000000   2485895   2489322   2492572   2495617   2498454  
  5910.000000   2501107   2503615   2506019   2508348   2510625  
  5900.000000   2512854   2515054   2517243   2519462   2521750  
  5890.000000   2524146   2526655   2529262   2531915   2534555  
  5880.000000   2537116   2539555   2541849   2543998   2546018  
  5870.000000   2547927   2549747   2551495   2553192   2554858  
  5860.000000   2556515   2558187   2559892   2561643   2563456  
  5850.000000   2565342   2567320   2569404   2571607   2573925  
  5840.000000   2576340   2578817   2581323   2583830   2586335  
  5830.000000   2588847   2591390   2593979   2596614   2599267  
  5820.000000   2601896   2604453   2606907   2609249   2611496  
  5810.000000   2613681   2615833   2617978   2620113   2622248  
  5800.000000   2624365   2626481   2628590   2630716   2632836  
  5790.000000   2634943   2636972   2638877   2640570   2641993  
  5780.000000   2643061   2643722   2643907   2643585   2642730  
  5770.000000   2641380   2639603   2637531   2635301   2633071  
  5760.000000   2630946   2629005   2627256   2625695   2624280  
  5750.000000   2622994   2621813   2620736   2619752   2618844  
  5740.000000   2617984   2617141   2616294   2615432   2614571  
  5730.000000   2613721   2612906   2612125   2611377   2610641  
  5720.000000   2609911   2609185   2608479   2607810   2607200  
  5710.000000   2606652   2606165   2605724   2605319   2604946  
  5700.000000   2604613   2604327   2604091   2603900   2603734  
  5690.000000   2603579   2603421   2603267   2603132   2603039  
  5680.000000   2602991   2602979   2602958   2602873   2602657  
  5670.000000   2602261   2601646   2600801   2599727   2598444  
  5660.000000   2596970   2595341   2593590   2591770   2589928  
  5650.000000   2588118   2586372   2584710   2583129   2581616  
  5640.000000   2580151   2578717   2577301   2575900   2574511  
  5630.000000   2573135   2571777   2570444   2569154   2567922  
  5620.000000   2566767   2565691   2564687   2563729   2562788  
  5610.000000   2561835   2560860   2559864   2558864   2557876  
  5600.000000   2556909   2555959   2555015   2554064   2553105  
  5590.000000   2552149   2551216   2550326   2549485   2548683  
  5580.000000   2547894   2547086   2546235   2545332   2544382  
  5570.000000   2543398   2542395   2541375   2540334   2539264  
  5560.000000   2538162   2537034   2535895   2534763   2533651  
  5550.000000   2532567   2531503   2530453   2529409   2528374  
  5540.000000   2527352   2526349   2525363   2524385   2523404  
  5530.000000   2522407   2521395   2520376   2519366   2518380  
  5520.000000   2517422   2516483   2515548   2514604   2513645  
  5510.000000   2512678   2511716   2510771   2509840   2508915  
  5500.000000   2507972   2506997   2505984   2504945   2503895  
  5490.000000   2502850   2501801   2500724   2499576   2498324  
  5480.000000   2496945   2495452   2493873   2492258   2490639  
  5470.000000   2489038   2487445   2485845   2484211   2482531  
  5460.000000   2480798   2479016   2477184   2475297   2473345  
  5450.000000   2471326   2469246   2467133   2465025   2462960  
  5440.000000   2460968   2459058   2457228   2455470   2453780  
  5430.000000   2452158   2450610   2449123   2447679   2446236  
  5420.000000   2444768   2443253   2441722   2440222   2438841  
  5410.000000   2437638   2436653   2435862   2435223   2434662  
  5400.000000   2434144   2433645   2433197   2432827   2432582  
  5390.000000   2432467   2432486   2432603   2432814   2433108  
  5380.000000   2433524   2434087   2434845   2435792   2436934  
  5370.000000   2438217   2439624   2441104   2442669   2444300  
  5360.000000   2446040   2447884   2449889   2452057   2454463  
  5350.000000   2457128   2460138   2463503   2467287   2471451  
  5340.000000   2476019   2480928   2486212   2491832   2497851  
  5330.000000   2504237   2511047   2518222   2525800   2533715  
  5320.000000   2542036   2550741   2559952   2569673   2580037  
  5310.000000   2591023   2602720   2615066   2628128   2641842  
  5300.000000   2656292   2671440   2687394   2704135   2721769  
  5290.000000   2740252   2759641   2779825   2800775   2822324  
  5280.000000   2844424   2866954   2889958   2913438   2937527  
  5270.000000   2962262   2987700   3013739   3040244   3066995  
  5260.000000   3093813   3120579   3147273   3173947   3200657  
  5250.000000   3227427   3254159   3280710   3306825   3332344  
  5240.000000   3357095   3381104   3404381   3427093   3449290  
  5230.000000   3471091   3492424   3513273   3533455   3552915  
  5220.000000   3571508   3589285   3606222   3622480   3638089  
  5210.000000   3653200   3667766   3681823   3695213   3707909  
  5200.000000   3719762   3730827   3741074   3750658   3759597  
  5190.000000   3768027   3775897   3783254   3789983   3796113  
  5180.000000   3801562   3806413   3810634   3814318   3817416  
  5170.000000   3819977   3821926   3823308   3824083   3824347  
  5160.000000   3824105   3823466   3822419   3821028   3819242  
  5150.000000   3817102   3814566   3811690   3808461   3804942  
  5140.000000   3801114   3797021   3792636   3787999   3783104  
  5130.000000   3778014   3772742   3767345   3761822   3756198  
  5120.000000   3750452   3744600   3738634   3732588   3726479  
  5110.000000   3720345   3714201   3708067   3701942   3695835  
  5100.000000   3689746   3683690   3677670   3671699   3665777  
  5090.000000   3659907   3654084   3648314   3642595   3636932  
  5080.000000   3631315   3625730   3620147   3614533   3608856  
  5070.000000   3603104   3597277   3591394   3585476   3579547  
  5060.000000   3573610   3567663   3561683   3555658   3549567  
  5050.000000   3543413   3537196   3530927   3524611   3518256  
  5040.000000   3511858   3505423   3498950   3492448   3485925  
  5030.000000   3479390   3472850   3466311   3459785   3453283  
  5020.000000   3446834   3440462   3434206   3428086   3422129  
  5010.000000   3416331   3410700   3405213   3399876   3394668  
  5000.000000   3389608   3384686   3379936   3375356   3370993  
  4990.000000   3366848   3362974   3359368   3356074   3353069  
  4980.000000   3350378   3347958   3345824   3343937   3342331  
  4970.000000   3340985   3339953   3339221   3338838   3338775  
  4960.000000   3339067   3339675   3340640   3341933   3343608  
  4950.000000   3345641   3348076   3350870   3354044   3357541  
  4940.000000   3361383   3365527   3370022   3374847   3380055  
  4930.000000   3385617   3391562   3397838   3404460   3411377  
  4920.000000   3418613   3426138   3433984   3442129   3450594  
  4910.000000   3459345   3468388   3477683   3487230   3496992  
  4900.000000   3506961   3517099   3527381   3537762   3548205  
  4890.000000   3558669   3569112   3579504   3589799   3599972  
  4880.000000   3609976   3619795   3629386   3638746   3647823  
  4870.000000   3656609   3665032   3673066   3680629   3687709  
  4860.000000   3694256   3700309   3705870   3711018   3715772  
  4850.000000   3720203   3724307   3728129   3731644   3734889  
  4840.000000   3737850   3740578   3743082   3745424   3747620  
  4830.000000   3749730   3751767   3753779   3755772   3757772  
  4820.000000   3759775   3761785   3763787   3765776   3767739  
  4810.000000   3769676   3771583   3773467   3775329   3777170  
  4800.000000   3778991   3780793   3782581   3784367   3786163  
  4790.000000   3787987   3789848   3791758   3793714   3795713  
  4780.000000   3797745   3799800   3801860   3803914   3805937  
  4770.000000   3807912   3809815   3811633   3813349   3814968  
  4760.000000   3816484   3817913   3819253   3820518   3821699  
  4750.000000   3822805   3823820   3824749   3825574   3826296  
  4740.000000   3826893   3827365   3827696   3827897   3827967  
  4730.000000   3827929   3827792   3827572   3827270   3826885  
  4720.000000   3826407   3825835   3825171   3824438   3823669  
  4710.000000   3822905   3822190   3821556   3821027   3820611  
  4700.000000   3820310   3820116   3820025   3820031   3820138  
  4690.000000   3820348   3820672   3821110   3821669   3822338  
  4680.000000   3823110   3823953   3824843   3825732   3826594  
  4670.000000   3827387   3828107   3828745   3829333   3829894  
  4660.000000   3830481   3831132   3831899   3832814   3833911  
  4650.000000   3835203   3836697   3838379   3840226   3842201  
  4640.000000   3844266   3846385   3848532   3850693   3852865  
  4630.000000   3855048   3857238   3859425   3861581   3863673  
  4620.000000   3865657   3867499   3869161   3870630   3871890  
  4610.000000   3872952   3873819   3874524   3875085   3875545  
  4600.000000   3875926   3876266   3876568   3876849   3877082  
  4590.000000   3877257   3877330   3877285   3877079   3876704  
  4580.000000   3876134   3875373   3874411   3873270   3871957  
  4570.000000   3870509   3868948   3867315   3865627   3863908  
  4560.000000   3862153   3860365   3858522   3856621   3854646  
  4550.000000   3852603   3850490   3848319   3846092   3843817  
  4540.000000   3841499   3839143   3836760   3834363   3831971  
  4530.000000   3829597   3827264   3824976   3822755   3820597  
  4520.000000   3818529   3816544   3814676   3812916   3811309  
  4510.000000   3809847   3808598   3807569   3806858   3806490  
  4500.000000   3806575   3807127   3808242   3809899   3812169  
  4490.000000   3815015   3818511   3822633   3827476   3833023  
  4480.000000   3839365   3846461   3854364   3862998   3872378  
  4470.000000   3882406   3893085   3904314   3916093   3928328  
  4460.000000   3941017   3954075   3967500   3981218   3995222  
  4450.000000   4009443   4023861   4038412   4053068   4067780  
  4440.000000   4082523   4097269   4111996   4126689   4141312  
  4430.000000   4155853   4170254   4184505   4198537   4212348  
  4420.000000   4225859   4239070   4251882   4264280   4276137  
  4410.000000   4287416   4297974   4307772   4316691   4324734  
  4400.000000   4331844   4338094   4343497   4348178   4352189  
  4390.000000   4355668   4358669   4361319   4363671   4365838  
  4380.000000   4367871   4369868   4371870   4373952   4376143  
  4370.000000   4378492   4381021   4383763   4386738   4389964  
  4360.000000   4393452   4397207   4401218   4405478   4409951  
  4350.000000   4414623   4419433   4424377   4429396   4434505  
  4340.000000   4439661   4444873   4450049   4455080   4459709  
  4330.000000   4463624   4466406   4467670   4467094   4464562  
  4320.000000   4460172   4454293   4447448   4440278   4433353  
  4310.000000   4427146   4421902   4417711   4414477   4412055  
  4300.000000   4410253   4408930   4407980   4407338   4406978  
  4290.000000   4406858   4406968   4407263   4407740   4408366  
  4280.000000   4409147   4410066   4411118   4412292   4413574  
  4270.000000   4414968   4416456   4418023   4419586   4421021  
  4260.000000   4422110   4422604   4422224   4420765   4418112  
  4250.000000   4414321   4409571   4404186   4398511   4392913  
  4240.000000   4387651   4382913   4378735   4375089   4371848  
  4230.000000   4368883   4366043   4363209   4360296   4357250  
  4220.000000   4354077   4350796   4347490   4344228   4341128  
  4210.000000   4338257   4335710   4333512   4331702   4330258  
  4200.000000   4329178   4328416   4327956   4327747   4327774  
  4190.000000   4327982   4328366   4328872   4329512   4330243  
  4180.000000   4331094   4332033   4333103   4334288   4335652  
  4170.000000   4337206   4339046   4341207   4343795   4346838  
  4160.000000   4350411   4354495   4359118   4364221   4369815  
  4150.000000   4375833   4382297   4389150   4396422   4404062  
  4140.000000   4412107   4420506   4429310   4438476   4448062  
  4130.000000   4458031   4468434   4479227   4490456   4502083  
  4120.000000   4514160   4526673   4539684   4553191   4567249  
  4110.000000   4581839   4596984   4612630   4628761   4645291  
  4100.000000   4662176   4679325   4696690   4714202   4731843  
  4090.000000   4749585   4767430   4785378   4803428   4821582  
  4080.000000   4839818   4858135   4876491   4894873   4913207  
  4070.000000   4931450   4949478   4967226   4984560   5001446  
  4060.000000   5017793   5033631   5048910   5063685   5077898  
  4050.000000   5091601   5104725   5117338   5129379   5140933  
  4040.000000   5151921   5162396   5172232   5181447   5189903  
  4030.000000   5197640   5204554   5210714   5216042   5220589  
  4020.000000   5224244   5227063   5229021   5230214   5230603  
  4010.000000   5230351   5229547   5228209   5226083   5223225  
  4000.000000   5219995  
##END= 
