##TITLE= Sample 021 By ssteindl date Dienstag, November 20 2018
##JCAMP-DX= 4.24
##DATA TYPE= INFRARED SPECTRUM
##ORIGIN= Exported PE Spectrum Data File
##OWNER= Sandra Steindl
##DATE= 18/11/20
##TIME= 17:15:11.00
##SPECTROMETER/DATA SYSTEM= PERKIN-ELMER Frontier FT-IR/NIR IR
##INSTRUMENT PARAMETERS=
  APODIZATION=stark
  DETECTOR=INGAAS
##RESOLUTION= 16.000000
##DELTAX= -2.000000
##XUNITS= 1/CM
##YUNITS= A
##XFACTOR= 1.00
##YFACTOR= 0.00000011920928955078
##FIRSTX= 10000.00
##LASTX= 4000.00
##NPOINTS= 3001
##FIRSTY= 0.303363
##MAXY= 0.622345
##MINY= 0.233458
##XYDATA= (X++(Y..Y))
 10000.000000   2544794   2543611   2542749   2542437   2542380  
  9990.000000   2542155   2541793   2541813   2542764   2544981  
  9980.000000   2548512   2553089   2558148   2563025   2567178  
  9970.000000   2570247   2572040   2572428   2571400   2569013  
  9960.000000   2565558   2561546   2557690   2554734   2553148  
  9950.000000   2553027   2553925   2555196   2556174   2556659  
  9940.000000   2556894   2557576   2559346   2562467   2566474  
  9930.000000   2570261   2572436   2571820   2567963   2561258  
  9920.000000   2552868   2544208   2536478   2530260   2525450  
  9910.000000   2521523   2517868   2514189   2510556   2507380  
  9900.000000   2505093   2503981   2504032   2505004   2506576  
  9890.000000   2508415   2510278   2511844   2512767   2512577  
  9880.000000   2510956   2507851   2503724   2499447   2496102  
  9870.000000   2494565   2495172   2497570   2500836   2503849  
  9860.000000   2505706   2506065   2505241   2503989   2503150  
  9850.000000   2503200   2504101   2505291   2506073   2505900  
  9840.000000   2504714   2502919   2501216   2500328   2500677  
  9830.000000   2502364   2505112   2508545   2512264   2516041  
  9820.000000   2519755   2523358   2526702   2529523   2531399  
  9810.000000   2531905   2530761   2527955   2523848   2519013  
  9800.000000   2514111   2509637   2505754   2502316   2498888  
  9790.000000   2495074   2490663   2485896   2481408   2478118  
  9780.000000   2476862   2478057   2481431   2485991   2490310  
  9770.000000   2492927   2492918   2490125   2485293   2479717  
  9760.000000   2474869   2471853   2471155   2472545   2475313  
  9750.000000   2478565   2481533   2483757   2485064   2485522  
  9740.000000   2485288   2484596   2483727   2483025   2482850  
  9730.000000   2483446   2484808   2486578   2488102   2488672  
  9720.000000   2487793   2485506   2482336   2479198   2476922  
  9710.000000   2475971   2476168   2476822   2477041   2476111  
  9700.000000   2473820   2470427   2466500   2462512   2458649  
  9690.000000   2454716   2450406   2445560   2440458   2435817  
  9680.000000   2432551   2431417   2432628   2435825   2440169  
  9670.000000   2444792   2449085   2452897   2456422   2459869  
  9660.000000   2463225   2466022   2467566   2467122   2464364  
  9650.000000   2459478   2453198   2446513   2440343   2435325  
  9640.000000   2431683   2429441   2428495   2428843   2430447  
  9630.000000   2433175   2436588   2439954   2442404   2443211  
  9620.000000   2442126   2439446   2435975   2432617   2430071  
  9610.000000   2428532   2427744   2427237   2426626   2425896  
  9600.000000   2425321   2425364   2426274   2427962   2429902  
  9590.000000   2431383   2431785   2430834   2428672   2425680  
  9580.000000   2422250   2418559   2414556   2410105   2405222  
  9570.000000   2400216   2395687   2392281   2390437   2390104  
  9560.000000   2390745   2391481   2391457   2390169   2387654  
  9550.000000   2384471   2381450   2379400   2378855   2379994  
  9540.000000   2382686   2386607   2391327   2396315   2400973  
  9530.000000   2404599   2406561   2406375   2403977   2399721  
  9520.000000   2394396   2388929   2384137   2380475   2377993  
  9510.000000   2376485   2375708   2375641   2376459   2378480  
  9500.000000   2381822   2386268   2391146   2395517   2398504  
  9490.000000   2399590   2398900   2397062   2395008   2393527  
  9480.000000   2393002   2393313   2393974   2394452   2394410  
  9470.000000   2393921   2393360   2393261   2393941   2395403  
  9460.000000   2397179   2398622   2399042   2398073   2395729  
  9450.000000   2392435   2388830   2385548   2383014   2381293  
  9440.000000   2380116   2378899   2376987   2373756   2368888  
  9430.000000   2362416   2354816   2346911   2339729   2334302  
  9420.000000   2331432   2331530   2334506   2339806   2346522  
  9410.000000   2353618   2360126   2365344   2368924   2370862  
  9400.000000   2371430   2371012   2370035   2368801   2367531  
  9390.000000   2366253   2364923   2363397   2361528   2359203  
  9380.000000   2356330   2352918   2349024   2344871   2340784  
  9370.000000   2337238   2334702   2333582   2334041   2335967  
  9360.000000   2338940   2342319   2345447   2347782   2349119  
  9350.000000   2349507   2349217   2348506   2347509   2346191  
  9340.000000   2344421   2342164   2339623   2337363   2336146  
  9330.000000   2336707   2339335   2343702   2348831   2353390  
  9320.000000   2356096   2356087   2353206   2347978   2341438  
  9310.000000   2334746   2328858   2324340   2321367   2319873  
  9300.000000   2319676   2320601   2322426   2324859   2327423  
  9290.000000   2329552   2330685   2330461   2328870   2326240  
  9280.000000   2323188   2320320   2318108   2316681   2315929  
  9270.000000   2315580   2315382   2315202   2315026   2314921  
  9260.000000   2314940   2315088   2315303   2315537   2315789  
  9250.000000   2316149   2316712   2317528   2318514   2319492  
  9240.000000   2320235   2320605   2320586   2320314   2319955  
  9230.000000   2319587   2319102   2318202   2316548   2313901  
  9220.000000   2310295   2306044   2301659   2297656   2294369  
  9210.000000   2291877   2290034   2288632   2287560   2286893  
  9200.000000   2286860   2287684   2289413   2291812   2294387  
  9190.000000   2296526   2297732   2297821   2297036   2295908  
  9180.000000   2295094   2295094   2296135   2298057   2300374  
  9170.000000   2302434   2303615   2303525   2302072   2299511  
  9160.000000   2296353   2293287   2290971   2289889   2290170  
  9150.000000   2291588   2293609   2295550   2296757   2296825  
  9140.000000   2295681   2293588   2290979   2288316   2285960  
  9130.000000   2284061   2282617   2281496   2280603   2279855  
  9120.000000   2279205   2278564   2277793   2276747   2275336  
  9110.000000   2273647   2271958   2270748   2270525   2271650  
  9100.000000   2274151   2277704   2281707   2285461   2288343  
  9090.000000   2289979   2290291   2289428   2287648   2285198  
  9080.000000   2282302   2279123   2275836   2272619   2269684  
  9070.000000   2267193   2265188   2263586   2262196   2260846  
  9060.000000   2259446   2258094   2257033   2256566   2256900  
  9050.000000   2258063   2259868   2261979   2264028   2265728  
  9040.000000   2266984   2267850   2268483   2268997   2269404  
  9030.000000   2269571   2269278   2268320   2266622   2264301  
  9020.000000   2261669   2259151   2257149   2255911   2255417  
  9010.000000   2255402   2255431   2255053   2253963   2252129  
  9000.000000   2249814   2247497   2245674   2244726   2244771  
  8990.000000   2245664   2247048   2248528   2249828   2250832  
  8980.000000   2251562   2252058   2252311   2252157   2251353  
  8970.000000   2249671   2247085   2243827   2240350   2237215  
  8960.000000   2234899   2233666   2233492   2234149   2235343  
  8950.000000   2236816   2238382   2239883   2241105   2241740  
  8940.000000   2241428   2239928   2237326   2234107   2231111  
  8930.000000   2229247   2229179   2231011   2234191   2237664  
  8920.000000   2240230   2240996   2239682   2236713   2233006  
  8910.000000   2229617   2227335   2226480   2226869   2228000  
  8900.000000   2229302   2230350   2230956   2231107   2230835  
  8890.000000   2230131   2228923   2227151   2224866   2222285  
  8880.000000   2219800   2217804   2216586   2216190   2216432  
  8870.000000   2216993   2217528   2217828   2217846   2217697  
  8860.000000   2217552   2217565   2217823   2218327   2219022  
  8850.000000   2219819   2220611   2221256   2221591   2221446  
  8840.000000   2220733   2219474   2217850   2216132   2214606  
  8830.000000   2213446   2212647   2212029   2211354   2210457  
  8820.000000   2209381   2208371   2207792   2207962   2208997  
  8810.000000   2210746   2212834   2214827   2216412   2217522  
  8800.000000   2218347   2219227   2220479   2222253   2224437  
  8790.000000   2226722   2228691   2229985   2230373   2229827  
  8780.000000   2228487   2226599   2224444   2222268   2220250  
  8770.000000   2218467   2216882   2215341   2213619   2211514  
  8760.000000   2208944   2206055   2203204   2200937   2199797  
  8750.000000   2200167   2202107   2205300   2209156   2212936  
  8740.000000   2216004   2217914   2218537   2217981   2216566  
  8730.000000   2214679   2212736   2211105   2210102   2209946  
  8720.000000   2210707   2212283   2214372   2216570   2218446  
  8710.000000   2219711   2220256   2220197   2219760   2219173  
  8700.000000   2218560   2217894   2217075   2216014   2214752  
  8690.000000   2213462   2212387   2211715   2211456   2211425  
  8680.000000   2211304   2210808   2209837   2208555   2207344  
  8670.000000   2206634   2206714   2207587   2208977   2210442  
  8660.000000   2211589   2212215   2212380   2212338   2212390  
  8650.000000   2212731   2213370   2214148   2214861   2215361  
  8640.000000   2215650   2215835   2216060   2216376   2216700  
  8630.000000   2216845   2216622   2215973   2215023   2214080  
  8620.000000   2213507   2213607   2214471   2215977   2217804  
  8610.000000   2219591   2221039   2221996   2222470   2222552  
  8600.000000   2222379   2222022   2221495   2220750   2219741  
  8590.000000   2218455   2216943   2215342   2213861   2212765  
  8580.000000   2212295   2212656   2213908   2215961   2218510  
  8570.000000   2221116   2223306   2224677   2225052   2224472  
  8560.000000   2223234   2221701   2220222   2218971   2217969  
  8550.000000   2217104   2216251   2215396   2214677   2214384  
  8540.000000   2214808   2216152   2218397   2221302   2224439  
  8530.000000   2227324   2229563   2230905   2231319   2230922  
  8520.000000   2229983   2228797   2227664   2226826   2226453  
  8510.000000   2226628   2227297   2228341   2229563   2230795  
  8500.000000   2231891   2232826   2233654   2234482   2235369  
  8490.000000   2236259   2236979   2237247   2236791   2235428  
  8480.000000   2233184   2230292   2227161   2224277   2222080  
  8470.000000   2220876   2220761   2221643   2223272   2225325  
  8460.000000   2227462   2229398   2230936   2231998   2232620  
  8450.000000   2232928   2233091   2233272   2233594   2234108  
  8440.000000   2234800   2235613   2236484   2237355   2238159  
  8430.000000   2238818   2239213   2239206   2238660   2237506  
  8420.000000   2235796   2233723   2231582   2229695   2228321  
  8410.000000   2227579   2227415   2227656   2228082   2228526  
  8400.000000   2228917   2229282   2229692   2230199   2230796  
  8390.000000   2231403   2231914   2232252   2232424   2232526  
  8380.000000   2232699   2233072   2233698   2234531   2235429  
  8370.000000   2236206   2236676   2236714   2236258   2235322  
  8360.000000   2233959   2232267   2230373   2228445   2226658  
  8350.000000   2225188   2224148   2223576   2223382   2223389  
  8340.000000   2223351   2223051   2222347   2221215   2219746  
  8330.000000   2218100   2216479   2215043   2213897   2213065  
  8320.000000   2212507   2212143   2211880   2211644   2211401  
  8310.000000   2211173   2211030   2211058   2211325   2211823  
  8300.000000   2212451   2213000   2213209   2212856   2211852  
  8290.000000   2210307   2208505   2206862   2205771   2205499  
  8280.000000   2206054   2207191   2208460   2209357   2209473  
  8270.000000   2208581   2206697   2204016   2200861   2197563  
  8260.000000   2194410   2191598   2189251   2187448   2186232  
  8250.000000   2185631   2185616   2186122   2187008   2188113  
  8240.000000   2189249   2190256   2191016   2191453   2191537  
  8230.000000   2191241   2190556   2189474   2188029   2186292  
  8220.000000   2184387   2182465   2180664   2179084   2177730  
  8210.000000   2176539   2175366   2174068   2172526   2170719  
  8200.000000   2168711   2166652   2164726   2163107   2161898  
  8190.000000   2161102   2160619   2160264   2159829   2159124  
  8180.000000   2158052   2156609   2154903   2153095   2151367  
  8170.000000   2149855   2148615   2147618   2146774   2145983  
  8160.000000   2145178   2144361   2143586   2142939   2142479  
  8150.000000   2142213   2142063   2141895   2141558   2140933  
  8140.000000   2139985   2138758   2137365   2135932   2134563  
  8130.000000   2133300   2132128   2130993   2129834   2128620  
  8120.000000   2127350   2126061   2124792   2123578   2122423  
  8110.000000   2121320   2120257   2119237   2118282   2117418  
  8100.000000   2116657   2115977   2115306   2114548   2113608  
  8090.000000   2112441   2111083   2109649   2108301   2107185  
  8080.000000   2106375   2105835   2105422   2104938   2104199  
  8070.000000   2103107   2101690   2100085   2098499   2097118  
  8060.000000   2096054   2095293   2094719   2094148   2093411  
  8050.000000   2092409   2091154   2089761   2088412   2087298  
  8040.000000   2086559   2086258   2086364   2086771   2087328  
  8030.000000   2087872   2088263   2088399   2088234   2087766  
  8020.000000   2087038   2086117   2085079   2083994   2082911  
  8010.000000   2081861   2080855   2079903   2079005   2078176  
  8000.000000   2077420   2076734   2076086   2075422   2074673  
  7990.000000   2073770   2072675   2071393   2069975   2068506  
  7980.000000   2067087   2065798   2064692   2063774   2063034  
  7970.000000   2062430   2061932   2061499   2061096   2060681  
  7960.000000   2060207   2059643   2058985   2058285   2057649  
  7950.000000   2057229   2057175   2057593   2058487   2059745  
  7940.000000   2061142   2062384   2063182   2063308   2062665  
  7930.000000   2061282   2059322   2057023   2054655   2052467  
  7920.000000   2050651   2049327   2048526   2048221   2048315  
  7910.000000   2048687   2049190   2049696   2050095   2050328  
  7900.000000   2050374   2050247   2049986   2049621   2049180  
  7890.000000   2048669   2048094   2047456   2046770   2046057  
  7880.000000   2045336   2044615   2043881   2043110   2042273  
  7870.000000   2041375   2040451   2039589   2038898   2038480  
  7860.000000   2038391   2038612   2039043   2039522   2039877  
  7850.000000   2039962   2039708   2039134   2038341   2037475  
  7840.000000   2036694   2036120   2035815   2035777   2035943  
  7830.000000   2036218   2036491   2036671   2036696   2036552  
  7820.000000   2036260   2035865   2035416   2034935   2034413  
  7810.000000   2033802   2033038   2032069   2030884   2029537  
  7800.000000   2028134   2026818   2025715   2024910   2024406  
  7790.000000   2024149   2024029   2023935   2023775   2023498  
  7780.000000   2023091   2022570   2021957   2021274   2020540  
  7770.000000   2019784   2019042   2018360   2017775   2017289  
  7760.000000   2016865   2016410   2015811   2014962   2013803  
  7750.000000   2012349   2010691   2008976   2007368   2006013  
  7740.000000   2005004   2004378   2004112   2004142   2004372  
  7730.000000   2004688   2004971   2005098   2004972   2004529  
  7720.000000   2003765   2002731   2001539   2000316   1999191  
  7710.000000   1998249   1997525   1997008   1996653   1996420  
  7700.000000   1996269   1996184   1996141   1996112   1996039  
  7690.000000   1995850   1995473   1994863   1994027   1993017  
  7680.000000   1991927   1990847   1989837   1988903   1988000  
  7670.000000   1987060   1986022   1984871   1983643   1982425  
  7660.000000   1981319   1980412   1979741   1979286   1978979  
  7650.000000   1978726   1978452   1978101   1977665   1977158  
  7640.000000   1976616   1976065   1975524   1975003   1974511  
  7630.000000   1974064   1973695   1973438   1973324   1973360  
  7620.000000   1973519   1973743   1973953   1974065   1974012  
  7610.000000   1973764   1973331   1972766   1972153   1971584  
  7600.000000   1971139   1970862   1970753   1970754   1970766  
  7590.000000   1970666   1970346   1969749   1968894   1967893  
  7580.000000   1966916   1966157   1965767   1965815   1966254  
  7570.000000   1966931   1967624   1968107   1968216   1967894  
  7560.000000   1967197   1966265   1965277   1964392   1963711  
  7550.000000   1963250   1962958   1962732   1962471   1962092  
  7540.000000   1961572   1960931   1960233   1959559   1958990  
  7530.000000   1958588   1958387   1958392   1958589   1958958  
  7520.000000   1959484   1960164   1961002   1961985   1963080  
  7510.000000   1964200   1965237   1966053   1966542   1966639  
  7500.000000   1966375   1965850   1965235   1964714   1964442  
  7490.000000   1964512   1964943   1965696   1966684   1967811  
  7480.000000   1968980   1970114   1971146   1972019   1972692  
  7470.000000   1973142   1973382   1973455   1973439   1973417  
  7460.000000   1973466   1973633   1973932   1974344   1974837  
  7450.000000   1975371   1975909   1976417   1976857   1977196  
  7440.000000   1977419   1977543   1977634   1977804   1978189  
  7430.000000   1978907   1980015   1981471   1983142   1984827  
  7420.000000   1986329   1987507   1988321   1988837   1989198  
  7410.000000   1989566   1990075   1990785   1991685   1992699  
  7400.000000   1993732   1994692   1995516   1996175   1996674  
  7390.000000   1997049   1997357   1997680   1998105   1998721  
  7380.000000   1999593   2000743   2002136   2003687   2005284  
  7370.000000   2006813   2008186   2009355   2010318   2011103  
  7360.000000   2011761   2012343   2012902   2013483   2014126  
  7350.000000   2014856   2015684   2016597   2017560   2018526  
  7340.000000   2019445   2020293   2021061   2021768   2022434  
  7330.000000   2023085   2023730   2024378   2025038   2025728  
  7320.000000   2026481   2027325   2028269   2029286   2030306  
  7310.000000   2031232   2031975   2032485   2032777   2032935  
  7300.000000   2033076   2033327   2033775   2034457   2035346  
  7290.000000   2036381   2037484   2038579   2039599   2040487  
  7280.000000   2041193   2041673   2041907   2041903   2041723  
  7270.000000   2041459   2041229   2041130   2041228   2041533  
  7260.000000   2042018   2042639   2043362   2044175   2045095  
  7250.000000   2046133   2047287   2048508   2049731   2050866  
  7240.000000   2051868   2052727   2053515   2054327   2055282  
  7230.000000   2056452   2057868   2059496   2061277   2063136  
  7220.000000   2065031   2066936   2068866   2070835   2072867  
  7210.000000   2074962   2077115   2079303   2081514   2083732  
  7200.000000   2085964   2088208   2090481   2092783   2095122  
  7190.000000   2097492   2099896   2102325   2104788   2107284  
  7180.000000   2109836   2112455   2115167   2117977   2120886  
  7170.000000   2123865   2126880   2129881   2132839   2135740  
  7160.000000   2138616   2141511   2144497   2147621   2150927  
  7150.000000   2154414   2158078   2161879   2165792   2169775  
  7140.000000   2173805   2177847   2181891   2185915   2189942  
  7130.000000   2193992   2198133   2202408   2206876   2211531  
  7120.000000   2216351   2221257   2226187   2231090   2235986  
  7110.000000   2240938   2246057   2251437   2257142   2263149  
  7100.000000   2269377   2275680   2281916   2287955   2293742  
  7090.000000   2299269   2304601   2309822   2315039   2320338  
  7080.000000   2325786   2331408   2337196   2343100   2349050  
  7070.000000   2354970   2360809   2366553   2372233   2377913  
  7060.000000   2383661   2389516   2395477   2401487   2407472  
  7050.000000   2413353   2419090   2424685   2430184   2435653  
  7040.000000   2441146   2446695   2452301   2457946   2463611  
  7030.000000   2469285   2474962   2480641   2486298   2491903  
  7020.000000   2497408   2502790   2508041   2513198   2518311  
  7010.000000   2523438   2528598   2533780   2538919   2543943  
  7000.000000   2548780   2553397   2557793   2562013   2566105  
  6990.000000   2570130   2574118   2578098   2582068   2586034  
  6980.000000   2589978   2593894   2597748   2601524   2605192  
  6970.000000   2608751   2612202   2615570   2618858   2622068  
  6960.000000   2625159   2628087   2630794   2633267   2635520  
  6950.000000   2637636   2639703   2641828   2644060   2646420  
  6940.000000   2648857   2651308   2653685   2655929   2657984  
  6930.000000   2659826   2661430   2662796   2663929   2664873  
  6920.000000   2665688   2666463   2667277   2668194   2669224  
  6910.000000   2670347   2671502   2672642   2673728   2674757  
  6900.000000   2675733   2676669   2677558   2678380   2679112  
  6890.000000   2679755   2680339   2680931   2681602   2682400  
  6880.000000   2683322   2684313   2685284   2686147   2686849  
  6870.000000   2687394   2687824   2688208   2688595   2689008  
  6860.000000   2689438   2689873   2690306   2690760   2691265  
  6850.000000   2691846   2692490   2693151   2693749   2694213  
  6840.000000   2694508   2694653   2694711   2694761   2694858  
  6830.000000   2695017   2695203   2695366   2695460   2695483  
  6820.000000   2695462   2695449   2695476   2695542   2695601  
  6810.000000   2695588   2695447   2695160   2694759   2694312  
  6800.000000   2693897   2693577   2693377   2693289   2693281  
  6790.000000   2693322   2693379   2693435   2693465   2693447  
  6780.000000   2693351   2693156   2692859   2692479   2692053  
  6770.000000   2691617   2691190   2690765   2690315   2689809  
  6760.000000   2689231   2688596   2687938   2687301   2686710  
  6750.000000   2686165   2685640   2685102   2684533   2683948  
  6740.000000   2683382   2682882   2682474   2682152   2681873  
  6730.000000   2681577   2681213   2680763   2680243   2679696  
  6720.000000   2679160   2678657   2678174   2677683   2677150  
  6710.000000   2676562   2675925   2675265   2674602   2673949  
  6700.000000   2673290   2672610   2671891   2671143   2670384  
  6690.000000   2669644   2668933   2668233   2667496   2666668  
  6680.000000   2665707   2664618   2663440   2662249   2661110  
  6670.000000   2660062   2659088   2658138   2657136   2656029  
  6660.000000   2654794   2653454   2652051   2650639   2649241  
  6650.000000   2647865   2646489   2645097   2643677   2642240  
  6640.000000   2640804   2639388   2637989   2636591   2635157  
  6630.000000   2633656   2632069   2630406   2628699   2626993  
  6620.000000   2625326   2623724   2622181   2620676   2619172  
  6610.000000   2617638   2616052   2614419   2612756   2611098  
  6600.000000   2609469   2607886   2606335   2604786   2603191  
  6590.000000   2601509   2599719   2597830   2595882   2593931  
  6580.000000   2592028   2590199   2588438   2586713   2584982  
  6570.000000   2583216   2581415   2579610   2577849   2576180  
  6560.000000   2574628   2573189   2571832   2570518   2569210  
  6550.000000   2567889   2566554   2565210   2563862   2562503  
  6540.000000   2561120   2559699   2558236   2556737   2555217  
  6530.000000   2553693   2552174   2550660   2549145   2547632  
  6520.000000   2546134   2544678   2543295   2542003   2540798  
  6510.000000   2539647   2538503   2537315   2536053   2534714  
  6500.000000   2533319   2531903   2530497   2529118   2527763  
  6490.000000   2526425   2525095   2523782   2522504   2521281  
  6480.000000   2520124   2519026   2517954   2516865   2515714  
  6470.000000   2514469   2513116   2511664   2510140   2508583  
  6460.000000   2507038   2505557   2504187   2502962   2501896  
  6450.000000   2500966   2500123   2499291   2498395   2497381  
  6440.000000   2496239   2495000   2493733   2492516   2491419  
  6430.000000   2490475   2489689   2489033   2488472   2487965  
  6420.000000   2487486   2487012   2486527   2486016   2485470  
  6410.000000   2484890   2484298   2483724   2483208   2482773  
  6400.000000   2482417   2482104   2481776   2481371   2480844  
  6390.000000   2480185   2479424   2478614   2477820   2477089  
  6380.000000   2476446   2475889   2475393   2474929   2474466  
  6370.000000   2473988   2473483   2472954   2472406   2471849  
  6360.000000   2471296   2470757   2470233   2469714   2469176  
  6350.000000   2468590   2467924   2467165   2466319   2465419  
  6340.000000   2464508   2463634   2462825   2462092   2461418  
  6330.000000   2460778   2460135   2459466   2458745   2457960  
  6320.000000   2457098   2456153   2455120   2454013   2452853  
  6310.000000   2451679   2450524   2449415   2448353   2447319  
  6300.000000   2446274   2445181   2444011   2442761   2441440  
  6290.000000   2440072   2438675   2437264   2435837   2434399  
  6280.000000   2432947   2431491   2430039   2428597   2427153  
  6270.000000   2425692   2424182   2422606   2420955   2419247  
  6260.000000   2417511   2415782   2414083   2412422   2410785  
  6250.000000   2409149   2407489   2405795   2404066   2402319  
  6240.000000   2400569   2398836   2397131   2395462   2393833  
  6230.000000   2392246   2390697   2389172   2387650   2386104  
  6220.000000   2384510   2382856   2381149   2379412   2377679  
  6210.000000   2375977   2374321   2372708   2371118   2369529  
  6200.000000   2367928   2366315   2364710   2363136   2361617  
  6190.000000   2360167   2358789   2357472   2356205   2354973  
  6180.000000   2353764   2352563   2351356   2350128   2348868  
  6170.000000   2347571   2346246   2344906   2343569   2342245  
  6160.000000   2340936   2339630   2338312   2336968   2335597  
  6150.000000   2334209   2332824   2331463   2330141   2328862  
  6140.000000   2327626   2326429   2325273   2324162   2323104  
  6130.000000   2322103   2321156   2320249   2319370   2318502  
  6120.000000   2317645   2316797   2315966   2315152   2314356  
  6110.000000   2313569   2312790   2312022   2311287   2310612  
  6100.000000   2310028   2309547   2309171   2308872   2308623  
  6090.000000   2308387   2308148   2307900   2307656   2307426  
  6080.000000   2307227   2307059   2306932   2306845   2306820  
  6070.000000   2306867   2307008   2307240   2307553   2307910  
  6060.000000   2308285   2308652   2309021   2309421   2309909  
  6050.000000   2310526   2311311   2312256   2313339   2314506  
  6040.000000   2315721   2316949   2318190   2319452   2320761  
  6030.000000   2322130   2323572   2325079   2326647   2328255  
  6020.000000   2329897   2331551   2333208   2334847   2336460  
  6010.000000   2338044   2339616   2341202   2342844   2344566  
  6000.000000   2346388   2348293   2350256   2352229   2354179  
  5990.000000   2356081   2357942   2359778   2361627   2363518  
  5980.000000   2365485   2367542   2369707   2371981   2374371  
  5970.000000   2376867   2379464   2382134   2384858   2387603  
  5960.000000   2390358   2393109   2395865   2398631   2401424  
  5950.000000   2404250   2407123   2410048   2413045   2416131  
  5940.000000   2419330   2422656   2426112   2429680   2433325  
  5930.000000   2437000   2440655   2444249   2447753   2451151  
  5920.000000   2454439   2457614   2460679   2463635   2466489  
  5910.000000   2469243   2471907   2474486   2476990   2479432  
  5900.000000   2481829   2484215   2486627   2489116   2491720  
  5890.000000   2494468   2497357   2500367   2503450   2506558  
  5880.000000   2509643   2512670   2515614   2518456   2521179  
  5870.000000   2523759   2526181   2528431   2530520   2532478  
  5860.000000   2534357   2536215   2538109   2540082   2542162  
  5850.000000   2544360   2546678   2549108   2551637   2554238  
  5840.000000   2556879   2559517   2562118   2564654   2567127  
  5830.000000   2569557   2571981   2574436   2576950   2579524  
  5820.000000   2582145   2584786   2587422   2590039   2592628  
  5810.000000   2595194   2597730   2600237   2602693   2605102  
  5800.000000   2607450   2609769   2612063   2614372   2616676  
  5790.000000   2618966   2621165   2623210   2624986   2626413  
  5780.000000   2627380   2627821   2627656   2626857   2625410  
  5770.000000   2623373   2620833   2617946   2614867   2611773  
  5760.000000   2608781   2605987   2603413   2601070   2598931  
  5750.000000   2596988   2595226   2593645   2592231   2590964  
  5740.000000   2589814   2588742   2587725   2586740   2585793  
  5730.000000   2584881   2584016   2583183   2582378   2581582  
  5720.000000   2580794   2580017   2579271   2578568   2577921  
  5710.000000   2577320   2576755   2576207   2575674   2575166  
  5700.000000   2574709   2574327   2574032   2573818   2573653  
  5690.000000   2573507   2573345   2573162   2572961   2572766  
  5680.000000   2572582   2572409   2572209   2571932   2571506  
  5670.000000   2570869   2569961   2568749   2567210   2565351  
  5660.000000   2563194   2560800   2558242   2555626   2553048  
  5650.000000   2550594   2548306   2546193   2544219   2542337  
  5640.000000   2540498   2538678   2536876   2535113   2533417  
  5630.000000   2531803   2530282   2528843   2527480   2526176  
  5620.000000   2524933   2523747   2522619   2521539   2520497  
  5610.000000   2519475   2518470   2517478   2516515   2515593  
  5600.000000   2514727   2513916   2513155   2512427   2511719  
  5590.000000   2511022   2510336   2509659   2508990   2508322  
  5580.000000   2507640   2506934   2506198   2505433   2504647  
  5570.000000   2503848   2503032   2502187   2501294   2500337  
  5560.000000   2499310   2498225   2497106   2495984   2494882  
  5550.000000   2493811   2492767   2491742   2490725   2489719  
  5540.000000   2488728   2487765   2486834   2485932   2485045  
  5530.000000   2484156   2483253   2482336   2481410   2480489  
  5520.000000   2479578   2478675   2477765   2476834   2475866  
  5510.000000   2474859   2473814   2472738   2471637   2470512  
  5500.000000   2469359   2468181   2466981   2465775   2464573  
  5490.000000   2463385   2462200   2460997   2459743   2458415  
  5480.000000   2457001   2455514   2453979   2452432   2450894  
  5470.000000   2449374   2447860   2446330   2444760   2443135  
  5460.000000   2441446   2439694   2437877   2435997   2434054  
  5450.000000   2432061   2430040   2428026   2426056   2424159  
  5440.000000   2422347   2420611   2418937   2417306   2415717  
  5430.000000   2414171   2412678   2411231   2409818   2408405  
  5420.000000   2406976   2405521   2404080   2402708   2401487  
  5410.000000   2400463   2399657   2399027   2398519   2398057  
  5400.000000   2397615   2397183   2396810   2396538   2396429  
  5390.000000   2396488   2396720   2397088   2397585   2398195  
  5380.000000   2398953   2399873   2400993   2402296   2403782  
  5370.000000   2405394   2407125   2408936   2410859   2412887  
  5360.000000   2415077   2417422   2419978   2422733   2425754  
  5350.000000   2429049   2432705   2436728   2441187   2446047  
  5340.000000   2451339   2457003   2463084   2469542   2476454  
  5330.000000   2483790   2491616   2499871   2508599   2517729  
  5320.000000   2527336   2537393   2548033   2559261   2571223  
  5310.000000   2583895   2597376   2611591   2626609   2642348  
  5300.000000   2658892   2676189   2694352   2713355   2733312  
  5290.000000   2754181   2776026   2798737   2822293   2846531  
  5280.000000   2871411   2896823   2922822   2949417   2976736  
  5270.000000   3004798   3033622   3063059   3092912   3122917  
  5260.000000   3152859   3182618   3212183   3241645   3271084  
  5250.000000   3300558   3329968   3359169   3387873   3415897  
  5240.000000   3443022   3469263   3494603   3519219   3543152  
  5230.000000   3566548   3589330   3611511   3632898   3653457  
  5220.000000   3673030   3691682   3709378   3726298   3742467  
  5210.000000   3758056   3773010   3787373   3800966   3813757  
  5200.000000   3825575   3836477   3846420   3855584   3863996  
  5190.000000   3871823   3879034   3885702   3891723   3897138  
  5180.000000   3901863   3905983   3909461   3912395   3914737  
  5170.000000   3916549   3917762   3918434   3918527   3918135  
  5160.000000   3917254   3915979   3914285   3912224   3909742  
  5150.000000   3906881   3903609   3899996   3896042   3891821  
  5140.000000   3887323   3882596   3877613   3872414   3866985  
  5130.000000   3861381   3855605   3849706   3843682   3837562  
  5120.000000   3831337   3825037   3818668   3812268   3805846  
  5110.000000   3799422   3792982   3786523   3780028   3773507  
  5100.000000   3766972   3760461   3753998   3747604   3741270  
  5090.000000   3734978   3728695   3722400   3716081   3709751  
  5080.000000   3703428   3697135   3690876   3684650   3678432  
  5070.000000   3672200   3665927   3659602   3653214   3646768  
  5060.000000   3640262   3633704   3627095   3620447   3613769  
  5050.000000   3607079   3600387   3593702   3587018   3580330  
  5040.000000   3573620   3566879   3560100   3553288   3546451  
  5030.000000   3539603   3532757   3525924   3519122   3512362  
  5020.000000   3505667   3499048   3492522   3486085   3479740  
  5010.000000   3473467   3467269   3461138   3455100   3449171  
  5000.000000   3443399   3437797   3432404   3427206   3422215  
  4990.000000   3417400   3412773   3408313   3404053   3399992  
  4980.000000   3396178   3392612   3389345   3386369   3383731  
  4970.000000   3381417   3379471   3377865   3376629   3375718  
  4960.000000   3375153   3374883   3374936   3375279   3375960  
  4950.000000   3376961   3378333   3380050   3382149   3384586  
  4940.000000   3387389   3390512   3393985   3397770   3401899  
  4930.000000   3406332   3411099   3416159   3421544   3427223  
  4920.000000   3433232   3439546   3446195   3453144   3460402  
  4910.000000   3467924   3475710   3483721   3491960   3500399  
  4900.000000   3509037   3517845   3526804   3535876   3545029  
  4890.000000   3554225   3563423   3572586   3581658   3590599  
  4880.000000   3599339   3607846   3616057   3623962   3631514  
  4870.000000   3638718   3645525   3651935   3657887   3663380  
  4860.000000   3668363   3672861   3676859   3680419   3683555  
  4850.000000   3686346   3688813   3691031   3693015   3694827  
  4840.000000   3696474   3698006   3699425   3700767   3702031  
  4830.000000   3703249   3704424   3705582   3706731   3707890  
  4820.000000   3709058   3710242   3711437   3712646   3713873  
  4810.000000   3715125   3716417   3717760   3719164   3720630  
  4800.000000   3722163   3723758   3725420   3727149   3728954  
  4790.000000   3730833   3732786   3734799   3736859   3738947  
  4780.000000   3741053   3743172   3745306   3747459   3749635  
  4770.000000   3751827   3754019   3756193   3758323   3760392  
  4760.000000   3762383   3764294   3766116   3767854   3769501  
  4750.000000   3771059   3772522   3773897   3775183   3776391  
  4740.000000   3777521   3778586   3779579   3780509   3781370  
  4730.000000   3782170   3782913   3783610   3784268   3784895  
  4720.000000   3785493   3786063   3786607   3787126   3787634  
  4710.000000   3788145   3788686   3789276   3789942   3790697  
  4700.000000   3791555   3792517   3793587   3794765   3796058  
  4690.000000   3797472   3799021   3800707   3802535   3804486  
  4680.000000   3806536   3808636   3810740   3812788   3814744  
  4670.000000   3816572   3818272   3819848   3821335   3822761  
  4660.000000   3824171   3825603   3827102   3828704   3830451  
  4650.000000   3832367   3834471   3836759   3839212   3841797  
  4640.000000   3844469   3847191   3849927   3852661   3855379  
  4630.000000   3858074   3860733   3863340   3865866   3868285  
  4620.000000   3870559   3872668   3874581   3876288   3877765  
  4610.000000   3879010   3880010   3880784   3881342   3881735  
  4600.000000   3881993   3882179   3882313   3882435   3882533  
  4590.000000   3882612   3882631   3882577   3882401   3882085  
  4580.000000   3881586   3880894   3879985   3878873   3877564  
  4570.000000   3876105   3874525   3872874   3871165   3869416  
  4560.000000   3867602   3865711   3863710   3861599   3859374  
  4550.000000   3857062   3854681   3852257   3849791   3847284  
  4540.000000   3844722   3842102   3839430   3836729   3834033  
  4530.000000   3831376   3828791   3826288   3823879   3821547  
  4520.000000   3819298   3817116   3815024   3813011   3811115  
  4510.000000   3809327   3807699   3806234   3805016   3804072  
  4500.000000   3803515   3803374   3803755   3804653   3806144  
  4490.000000   3808191   3810862   3814126   3818073   3822685  
  4480.000000   3828053   3834144   3841022   3848621   3856978  
  4470.000000   3866016   3875761   3886130   3897131   3908659  
  4460.000000   3920683   3933077   3945793   3958718   3971828  
  4450.000000   3985056   3998412   4011867   4025439   4039106  
  4440.000000   4052869   4066702   4080584   4094492   4108388  
  4430.000000   4122258   4136051   4149756   4163311   4176711  
  4420.000000   4189883   4202820   4215433   4227696   4239490  
  4410.000000   4250760   4261370   4271261   4280322   4288547  
  4400.000000   4295903   4302468   4308295   4313527   4318263  
  4390.000000   4322664   4326829   4330903   4334963   4339112  
  4380.000000   4343389   4347845   4352478   4357299   4362293  
  4370.000000   4367467   4372829   4378405   4384223   4390313  
  4360.000000   4396686   4403347   4410261   4417400   4424670  
  4350.000000   4432028   4439340   4446573   4453606   4460459  
  4340.000000   4467063   4473462   4479558   4485259   4490256  
  4330.000000   4494174   4496469   4496647   4494279   4489232  
  4320.000000   4481663   4472108   4461322   4450215   4439603  
  4310.000000   4430155   4422221   4415923   4411129   4407615  
  4300.000000   4405110   4403390   4402300   4401729   4401640  
  4290.000000   4401966   4402704   4403793   4405248   4407035  
  4280.000000   4409181   4411669   4414493   4417622   4421001  
  4270.000000   4424579   4428266   4431973   4435529   4438722  
  4260.000000   4441243   4442760   4442931   4441519   4438422  
  4250.000000   4433756   4427807   4421033   4413918   4406960  
  4240.000000   4400511   4394819   4389933   4385816   4382309  
  4230.000000   4379250   4376455   4373783   4371127   4368416  
  4220.000000   4365641   4362804   4359984   4357241   4354705  
  4210.000000   4352452   4350593   4349158   4348182   4347624  
  4200.000000   4347449   4347574   4347949   4348497   4349195  
  4190.000000   4349994   4350904   4351891   4352979   4354132  
  4180.000000   4355374   4356670   4358053   4359508   4361100  
  4170.000000   4362853   4364866   4367183   4369904   4373049  
  4160.000000   4376679   4380766   4385326   4390297   4395682  
  4150.000000   4401418   4407524   4413953   4420747   4427879  
  4140.000000   4435415   4443337   4451721   4460543   4469861  
  4130.000000   4479622   4489849   4500471   4511502   4522890  
  4120.000000   4534680   4546864   4559519   4572662   4586362  
  4110.000000   4600612   4615438   4630780   4646605   4662806  
  4100.000000   4679310   4696003   4712820   4729691   4746605  
  4090.000000   4763559   4780581   4797692   4814899   4832196  
  4080.000000   4849541   4866908   4884239   4901523   4918706  
  4070.000000   4935788   4952694   4969405   4985814   5001889  
  4060.000000   5017517   5032686   5047301   5061378   5074840  
  4050.000000   5087736   5100020   5111789   5123026   5133845  
  4040.000000   5144200   5154150   5163569   5172451   5180638  
  4030.000000   5188131   5194815   5200740   5205842   5210188  
  4020.000000   5213704   5216467   5218474   5219822   5220486  
  4010.000000   5220610   5220269   5219486   5218047   5216006  
  4000.000000   5213656  
##END= 
