##TITLE= Sample 029 By ssteindl date Dienstag, November 20 2018
##JCAMP-DX= 4.24
##DATA TYPE= INFRARED SPECTRUM
##ORIGIN= Exported PE Spectrum Data File
##OWNER= Sandra Steindl
##DATE= 18/11/20
##TIME= 17:23:44.00
##SPECTROMETER/DATA SYSTEM= PERKIN-ELMER Frontier FT-IR/NIR IR
##INSTRUMENT PARAMETERS=
  APODIZATION=stark
  DETECTOR=INGAAS
##RESOLUTION= 16.000000
##DELTAX= -2.000000
##XUNITS= 1/CM
##YUNITS= A
##XFACTOR= 1.00
##YFACTOR= 0.00000011920928955078
##FIRSTX= 10000.00
##LASTX= 4000.00
##NPOINTS= 3001
##FIRSTY= 0.245053
##MAXY= 0.601271
##MINY= 0.193831
##XYDATA= (X++(Y..Y))
 10000.000000   2055656   2055052   2055034   2056333   2058810  
  9990.000000   2061795   2064735   2067452   2069846   2071824  
  9980.000000   2073289   2073989   2073453   2071112   2066703  
  9970.000000   2060417   2052980   2045427   2038765   2033627  
  9960.000000   2030108   2027886   2026490   2025638   2025372  
  9950.000000   2026023   2027895   2031017   2034927   2038800  
  9940.000000   2041754   2043224   2043305   2042642   2042252  
  9930.000000   2042922   2044900   2047667   2050142   2051128  
  9920.000000   2049777   2046017   2040547   2034678   2029826  
  9910.000000   2027118   2027031   2029331   2033145   2037237  
  9900.000000   2040289   2041228   2039424   2034860   2028127  
  9890.000000   2020370   2013047   2007604   2005087   2005769  
  9880.000000   2009064   2013605   2017711   2019859   2019178  
  9870.000000   2015657   2010099   2003803   1998159   1994230  
  9860.000000   1992550   1993061   1995292   1998574   2002265  
  9850.000000   2005900   2009160   2011889   2013941   2015250  
  9840.000000   2015788   2015650   2015056   2014265   2013504  
  9830.000000   2012821   2012035   2010788   2008624   2005252  
  9820.000000   2000645   1995199   1989586   1984616   1980888  
  9810.000000   1978633   1977573   1977024   1976148   1974224  
  9800.000000   1970990   1966672   1961967   1957686   1954480  
  9790.000000   1952558   1951691   1951357   1951090   1950704  
  9780.000000   1950455   1950888   1952579   1955803   1960307  
  9770.000000   1965352   1969929   1973145   1974560   1974306  
  9760.000000   1973022   1971518   1970447   1970033   1970030  
  9750.000000   1969895   1969066   1967233   1964437   1961023  
  9740.000000   1957431   1954033   1951023   1948441   1946295  
  9730.000000   1944604   1943472   1942953   1943010   1943409  
  9720.000000   1943790   1943817   1943343   1942604   1942156  
  9710.000000   1942787   1945158   1949581   1955789   1963002  
  9700.000000   1970117   1976017   1979863   1981202   1980015  
  9690.000000   1976543   1971224   1964541   1957043   1949312  
  9680.000000   1941967   1935634   1930785   1927738   1926440  
  9670.000000   1926667   1927937   1929838   1932017   1934322  
  9660.000000   1936718   1939137   1941407   1943086   1943618  
  9650.000000   1942382   1939045   1933657   1926831   1919583  
  9640.000000   1913134   1908585   1906586   1907212   1909861  
  9630.000000   1913536   1917073   1919554   1920511   1920005  
  9620.000000   1918511   1916622   1914868   1913439   1912279  
  9610.000000   1911063   1909501   1907403   1904857   1902180  
  9600.000000   1899807   1898196   1897613   1898208   1899913  
  9590.000000   1902626   1906149   1910252   1914593   1918715  
  9580.000000   1922086   1924176   1924611   1923230   1920162  
  9570.000000   1915727   1910398   1904633   1898877   1893483  
  9560.000000   1888776   1885046   1882512   1881283   1881222  
  9550.000000   1881995   1883090   1884045   1884622   1884930  
  9540.000000   1885397   1886554   1888786   1892087   1896008  
  9530.000000   1899775   1902591   1903959   1903895   1902894  
  9520.000000   1901713   1900988   1900985   1901445   1901753  
  9510.000000   1901180   1899206   1895727   1891059   1885864  
  9500.000000   1880868   1876779   1874084   1873128   1874029  
  9490.000000   1876732   1880886   1885842   1890649   1894233  
  9480.000000   1895678   1894470   1890758   1885249   1879117  
  9470.000000   1873506   1869263   1866603   1865152   1864190  
  9460.000000   1862990   1861238   1859104   1857260   1856508  
  9450.000000   1857509   1860427   1864862   1869906   1874394  
  9440.000000   1877274   1877840   1876011   1872226   1867364  
  9430.000000   1862409   1858217   1855300   1853734   1853216  
  9420.000000   1853180   1853077   1852535   1851553   1850395  
  9410.000000   1849503   1849220   1849654   1850608   1851630  
  9400.000000   1852215   1851932   1850605   1848314   1845346  
  9390.000000   1842101   1838933   1836162   1833995   1832621  
  9380.000000   1832141   1832572   1833741   1835252   1836513  
  9370.000000   1836849   1835723   1832876   1828466   1822967  
  9360.000000   1817074   1811438   1806563   1802678   1799821  
  9350.000000   1797926   1796938   1796855   1797665   1799268  
  9340.000000   1801426   1803772   1805949   1807680   1808901  
  9330.000000   1809688   1810227   1810660   1811038   1811315  
  9320.000000   1811441   1811491   1811712   1812488   1814140  
  9310.000000   1816735   1819925   1823028   1825183   1825662  
  9300.000000   1824079   1820569   1815742   1810503   1805753  
  9290.000000   1802141   1799926   1799014   1799041   1799539  
  9280.000000   1799998   1800021   1799336   1797907   1795899  
  9270.000000   1793685   1791750   1790554   1790381   1791151  
  9260.000000   1792433   1793522   1793750   1792675   1790285  
  9250.000000   1786978   1783453   1780419   1778366   1777383  
  9240.000000   1777223   1777446   1777657   1777651   1777448  
  9230.000000   1777245   1777267   1777686   1778532   1779753  
  9220.000000   1781260   1782992   1784898   1786861   1788665  
  9210.000000   1789984   1790485   1789933   1788306   1785835  
  9200.000000   1782952   1780148   1777798   1776069   1774891  
  9190.000000   1774060   1773335   1772561   1771700   1770822  
  9180.000000   1770026   1769376   1768871   1768460   1768095  
  9170.000000   1767757   1767464   1767225   1767053   1766940  
  9160.000000   1766919   1767048   1767422   1768107   1769084  
  9150.000000   1770187   1771114   1771519   1771176   1770098  
  9140.000000   1768606   1767229   1766529   1766850   1768151  
  9130.000000   1770002   1771720   1772674   1772499   1771277  
  9120.000000   1769472   1767769   1766802   1766928   1768115  
  9110.000000   1769974   1771914   1773326   1773743   1772945  
  9100.000000   1770977   1768137   1764910   1761898   1759697  
  9090.000000   1758751   1759209   1760847   1763104   1765221  
  9080.000000   1766459   1766379   1764967   1762679   1760213  
  9070.000000   1758311   1757459   1757761   1758929   1760458  
  9060.000000   1761831   1762664   1762736   1761966   1760352  
  9050.000000   1757898   1754638   1750665   1746256   1741815  
  9040.000000   1737831   1734683   1732538   1731293   1730629  
  9030.000000   1730222   1729878   1729694   1729962   1731040  
  9020.000000   1733131   1736142   1739693   1743180   1746018  
  9010.000000   1747771   1748324   1747780   1746401   1744455  
  9000.000000   1742192   1739825   1737563   1735680   1734466  
  8990.000000   1734169   1734806   1736170   1737804   1739188  
  8980.000000   1739859   1739618   1738582   1737104   1735621  
  8970.000000   1734424   1733581   1732895   1732034   1730692  
  8960.000000   1728743   1726325   1723796   1721627   1720253  
  8950.000000   1719940   1720720   1722363   1724442   1726388  
  8940.000000   1727653   1727820   1726752   1724656   1722061  
  8930.000000   1719733   1718449   1718796   1720951   1724626  
  8920.000000   1729134   1733590   1737158   1739240   1739591  
  8910.000000   1738305   1735726   1732298   1728462   1724617  
  8900.000000   1721133   1718343   1716506   1715774   1716105  
  8890.000000   1717264   1718809   1720259   1721200   1721434  
  8880.000000   1720983   1720036   1718865   1717664   1716549  
  8870.000000   1715501   1714524   1713638   1712983   1712713  
  8860.000000   1712950   1713677   1714725   1715837   1716776  
  8850.000000   1717445   1717935   1718503   1719449   1720986  
  8840.000000   1723119   1725641   1728215   1730502   1732293  
  8830.000000   1733537   1734329   1734800   1735039   1735026  
  8820.000000   1734650   1733791   1732435   1730729   1728983  
  8810.000000   1727584   1726868   1727030   1728027   1729645  
  8800.000000   1731515   1733287   1734691   1735640   1736212  
  8790.000000   1736602   1737021   1737601   1738344   1739090  
  8780.000000   1739603   1739612   1738962   1737630   1735779  
  8770.000000   1733688   1731667   1729975   1728750   1728031  
  8760.000000   1727782   1727974   1728599   1729704   1731314  
  8750.000000   1733407   1735843   1738376   1740714   1742588  
  8740.000000   1743846   1744463   1744531   1744186   1743559  
  8730.000000   1742733   1741765   1740733   1739767   1739057  
  8720.000000   1738771   1738989   1739604   1740343   1740822  
  8710.000000   1740705   1739835   1738323   1736520   1734893  
  8700.000000   1733853   1733603   1734079   1734993   1735979  
  8690.000000   1736727   1737108   1737157   1737034   1736899  
  8680.000000   1736847   1736863   1736876   1736805   1736649  
  8670.000000   1736477   1736431   1736637   1737180   1738048  
  8660.000000   1739180   1740471   1741838   1743213   1744550  
  8650.000000   1745799   1746910   1747861   1748686   1749522  
  8640.000000   1750586   1752118   1754296   1757117   1760373  
  8630.000000   1763649   1766449   1768309   1768957   1768389  
  8620.000000   1766894   1764972   1763192   1762073   1761951  
  8610.000000   1762954   1764968   1767716   1770799   1773804  
  8600.000000   1776350   1778170   1779124   1779233   1778650  
  8590.000000   1777617   1776430   1775360   1774640   1774401  
  8580.000000   1774674   1775373   1776328   1777327   1778146  
  8570.000000   1778627   1778704   1778456   1778082   1777864  
  8560.000000   1778069   1778867   1780279   1782158   1784242  
  8550.000000   1786246   1787938   1789223   1790107   1790697  
  8540.000000   1791099   1791403   1791646   1791826   1791948  
  8530.000000   1792008   1792024   1791953   1791694   1791070  
  8520.000000   1789901   1788098   1785759   1783223   1781030  
  8510.000000   1779775   1779931   1781666   1784781   1788741  
  8500.000000   1792833   1796385   1798960   1800472   1801165  
  8490.000000   1801497   1801971   1802980   1804711   1807107  
  8480.000000   1809921   1812787   1815336   1817245   1818293  
  8470.000000   1818397   1817616   1816158   1814323   1812466  
  8460.000000   1810919   1809937   1809646   1810042   1810999  
  8450.000000   1812343   1813870   1815424   1816872   1818135  
  8440.000000   1819161   1819930   1820453   1820766   1820951  
  8430.000000   1821093   1821278   1821539   1821867   1822199  
  8420.000000   1822456   1822581   1822551   1822409   1822220  
  8410.000000   1822076   1822047   1822192   1822534   1823092  
  8400.000000   1823862   1824818   1825878   1826914   1827750  
  8390.000000   1828229   1828241   1827796   1827020   1826144  
  8380.000000   1825398   1824955   1824852   1824987   1825160  
  8370.000000   1825138   1824735   1823863   1822539   1820853  
  8360.000000   1818920   1816869   1814832   1812973   1811481  
  8350.000000   1810557   1810355   1810931   1812178   1813823  
  8340.000000   1815488   1816794   1817483   1817479   1816905  
  8330.000000   1815999   1815031   1814186   1813529   1813000  
  8320.000000   1812497   1811952   1811370   1810844   1810476  
  8310.000000   1810339   1810393   1810520   1810538   1810303  
  8300.000000   1809754   1808947   1808019   1807122   1806357  
  8290.000000   1805737   1805190   1804615   1803939   1803158  
  8280.000000   1802343   1801594   1800982   1800506   1800083  
  8270.000000   1799579   1798871   1797910   1796755   1795569  
  8260.000000   1794551   1793874   1793619   1793751   1794137  
  8250.000000   1794583   1794894   1794911   1794549   1793781  
  8240.000000   1792646   1791217   1789601   1787929   1786354  
  8230.000000   1785040   1784124   1783698   1783752   1784197  
  8220.000000   1784847   1785498   1785943   1786054   1785782  
  8210.000000   1785171   1784310   1783291   1782170   1780945  
  8200.000000   1779575   1778006   1776209   1774209   1772080  
  8190.000000   1769938   1767889   1766013   1764324   1762795  
  8180.000000   1761360   1759964   1758577   1757208   1755906  
  8170.000000   1754720   1753692   1752811   1752017   1751207  
  8160.000000   1750268   1749115   1747724   1746156   1744545  
  8150.000000   1743076   1741938   1741260   1741066   1741240  
  8140.000000   1741538   1741642   1741246   1740140   1738286  
  8130.000000   1735826   1733066   1730375   1728091   1726427  
  8120.000000   1725417   1724923   1724689   1724442   1723969  
  8110.000000   1723189   1722151   1721000   1719911   1719016  
  8100.000000   1718368   1717921   1717565   1717157   1716584  
  8090.000000   1715782   1714765   1713602   1712399   1711267  
  8080.000000   1710291   1709517   1708939   1708503   1708121  
  8070.000000   1707690   1707123   1706376   1705463   1704459  
  8060.000000   1703479   1702651   1702076   1701791   1701764  
  8050.000000   1701888   1702019   1702009   1701747   1701185  
  8040.000000   1700342   1699308   1698204   1697169   1696318  
  8030.000000   1695717   1695373   1695216   1695133   1694965  
  8020.000000   1694570   1693835   1692720   1691270   1689602  
  8010.000000   1687890   1686322   1685071   1684255   1683935  
  8000.000000   1684100   1684679   1685550   1686550   1687489  
  7990.000000   1688177   1688445   1688183   1687372   1686091  
  7980.000000   1684519   1682885   1681425   1680316   1679633  
  7970.000000   1679337   1679288   1679301   1679188   1678825  
  7960.000000   1678163   1677243   1676164   1675050   1674012  
  7950.000000   1673113   1672370   1671741   1671174   1670608  
  7940.000000   1670028   1669452   1668943   1668581   1668430  
  7930.000000   1668510   1668782   1669156   1669525   1669803  
  7920.000000   1669967   1670057   1670166   1670381   1670744  
  7910.000000   1671200   1671619   1671820   1671657   1671063  
  7900.000000   1670099   1668932   1667780   1666847   1666250  
  7890.000000   1666011   1666059   1666294   1666620   1666990  
  7880.000000   1667389   1667822   1668267   1668674   1668968  
  7870.000000   1669089   1669019   1668803   1668528   1668278  
  7860.000000   1668092   1667937   1667717   1667324   1666697  
  7850.000000   1665858   1664917   1664016   1663276   1662726  
  7840.000000   1662294   1661841   1661230   1660410   1659451  
  7830.000000   1658547   1657940   1657841   1658341   1659385  
  7820.000000   1660780   1662270   1663603   1664604   1665200  
  7810.000000   1665404   1665287   1664922   1664369   1663659  
  7800.000000   1662809   1661843   1660805   1659766   1658810  
  7790.000000   1658024   1657461   1657146   1657033   1657042  
  7780.000000   1657044   1656912   1656546   1655907   1655038  
  7770.000000   1654047   1653083   1652274   1651692   1651306  
  7760.000000   1651011   1650655   1650112   1649331   1648361  
  7750.000000   1647338   1646427   1645767   1645413   1645336  
  7740.000000   1645438   1645611   1645776   1645903   1646008  
  7730.000000   1646105   1646185   1646184   1646015   1645592  
  7720.000000   1644893   1643963   1642929   1641937   1641115  
  7710.000000   1640517   1640112   1639816   1639522   1639168  
  7700.000000   1638747   1638328   1638007   1637878   1637984  
  7690.000000   1638302   1638742   1639174   1639465   1639506  
  7680.000000   1639240   1638658   1637805   1636757   1635609  
  7670.000000   1634458   1633389   1632461   1631702   1631109  
  7660.000000   1630651   1630284   1629962   1629655   1629351  
  7650.000000   1629057   1628795   1628589   1628463   1628421  
  7640.000000   1628462   1628564   1628699   1628835   1628949  
  7630.000000   1629035   1629104   1629186   1629308   1629487  
  7620.000000   1629708   1629926   1630079   1630099   1629951  
  7610.000000   1629630   1629179   1628661   1628141   1627666  
  7600.000000   1627255   1626914   1626646   1626486   1626481  
  7590.000000   1626697   1627168   1627880   1628746   1629618  
  7580.000000   1630333   1630749   1630801   1630495   1629918  
  7570.000000   1629182   1628405   1627669   1627027   1626509  
  7560.000000   1626146   1625975   1626036   1626347   1626889  
  7550.000000   1627590   1628346   1629049   1629634   1630090  
  7540.000000   1630474   1630867   1631349   1631949   1632645  
  7530.000000   1633360   1634014   1634546   1634955   1635293  
  7520.000000   1635645   1636095   1636696   1637450   1638314  
  7510.000000   1639219   1640099   1640905   1641618   1642233  
  7500.000000   1642764   1643221   1643622   1643985   1644343  
  7490.000000   1644737   1645223   1645851   1646661   1647663  
  7480.000000   1648838   1650138   1651499   1652857   1654165  
  7470.000000   1655394   1656555   1657673   1658794   1659955  
  7460.000000   1661183   1662475   1663815   1665166   1666502  
  7450.000000   1667801   1669066   1670314   1671569   1672849  
  7440.000000   1674163   1675506   1676867   1678234   1679610  
  7430.000000   1680997   1682404   1683830   1685266   1686689  
  7420.000000   1688077   1689420   1690731   1692047   1693422  
  7410.000000   1694911   1696556   1698369   1700332   1702394  
  7400.000000   1704489   1706539   1708477   1710245   1711814  
  7390.000000   1713182   1714390   1715506   1716616   1717805  
  7380.000000   1719134   1720627   1722258   1723975   1725711  
  7370.000000   1727424   1729092   1730728   1732352   1733976  
  7360.000000   1735585   1737137   1738580   1739871   1741006  
  7350.000000   1742019   1742979   1743963   1745028   1746195  
  7340.000000   1747441   1748730   1750025   1751318   1752629  
  7330.000000   1753996   1755452   1757006   1758632   1760281  
  7320.000000   1761893   1763422   1764851   1766187   1767457  
  7310.000000   1768689   1769900   1771082   1772213   1773264  
  7300.000000   1774213   1775059   1775831   1776583   1777388  
  7290.000000   1778321   1779435   1780747   1782221   1783777  
  7280.000000   1785302   1786680   1787825   1788706   1789366  
  7270.000000   1789907   1790468   1791173   1792111   1793302  
  7260.000000   1794708   1796242   1797811   1799331   1800754  
  7250.000000   1802062   1803267   1804388   1805462   1806514  
  7240.000000   1807587   1808706   1809915   1811228   1812663  
  7230.000000   1814204   1815840   1817549   1819333   1821202  
  7220.000000   1823193   1825336   1827667   1830190   1832899  
  7210.000000   1835757   1838727   1841749   1844777   1847747  
  7200.000000   1850617   1853346   1855928   1858386   1860795  
  7190.000000   1863255   1865886   1868777   1871972   1875432  
  7180.000000   1879056   1882694   1886205   1889479   1892487  
  7170.000000   1895258   1897898   1900530   1903296   1906289  
  7160.000000   1909568   1913120   1916907   1920844   1924851  
  7150.000000   1928844   1932780   1936638   1940460   1944303  
  7140.000000   1948262   1952400   1956769   1961352   1966111  
  7130.000000   1970964   1975850   1980707   1985531   1990339  
  7120.000000   1995197   2000171   2005338   2010739   2016397  
  7110.000000   2022276   2028317   2034415   2040474   2046392  
  7100.000000   2052129   2057682   2063124   2068547   2074069  
  7090.000000   2079758   2085648   2091700   2097852   2104025  
  7080.000000   2110173   2116286   2122393   2128545   2134784  
  7070.000000   2141126   2147559   2154044   2160541   2167015  
  7060.000000   2173450   2179828   2186137   2192344   2198415  
  7050.000000   2204314   2210028   2215571   2220989   2226346  
  7040.000000   2231706   2237125   2242635   2248254   2253983  
  7030.000000   2259820   2265749   2271741   2277745   2283701  
  7020.000000   2289541   2295223   2300734   2306104   2311387  
  7010.000000   2316649   2321930   2327245   2332566   2337852  
  7000.000000   2343050   2348133   2353077   2357889   2362561  
  6990.000000   2367096   2371478   2375711   2379798   2383775  
  6980.000000   2387674   2391542   2395387   2399210   2402969  
  6970.000000   2406634   2410166   2413557   2416804   2419928  
  6960.000000   2422926   2425806   2428552   2431174   2433685  
  6950.000000   2436140   2438586   2441082   2443645   2446270  
  6940.000000   2448909   2451514   2454035   2456450   2458749  
  6930.000000   2460937   2463004   2464944   2466737   2468388  
  6920.000000   2469926   2471417   2472933   2474537   2476239  
  6910.000000   2478003   2479743   2481375   2482835   2484128  
  6900.000000   2485304   2486450   2487635   2488892   2490191  
  6890.000000   2491471   2492662   2493733   2494698   2495617  
  6880.000000   2496556   2497562   2498624   2499692   2500679  
  6870.000000   2501520   2502191   2502734   2503236   2503806  
  6860.000000   2504530   2505449   2506534   2507704   2508844  
  6850.000000   2509841   2510609   2511118   2511392   2511512  
  6840.000000   2511585   2511727   2512021   2512506   2513156  
  6830.000000   2513901   2514641   2515288   2515779   2516106  
  6820.000000   2516298   2516419   2516527   2516669   2516859  
  6810.000000   2517089   2517336   2517582   2517809   2518011  
  6800.000000   2518183   2518316   2518399   2518418   2518362  
  6790.000000   2518230   2518026   2517759   2517440   2517082  
  6780.000000   2516705   2516340   2516029   2515826   2515769  
  6770.000000   2515876   2516121   2516446   2516770   2517015  
  6760.000000   2517131   2517107   2516968   2516758   2516520  
  6750.000000   2516273   2516017   2515734   2515410   2515046  
  6740.000000   2514664   2514295   2513969   2513704   2513493  
  6730.000000   2513318   2513158   2512999   2512846   2512715  
  6720.000000   2512625   2512590   2512610   2512675   2512767  
  6710.000000   2512876   2512992   2513111   2513225   2513317  
  6700.000000   2513357   2513313   2513147   2512838   2512376  
  6690.000000   2511774   2511056   2510261   2509426   2508591  
  6680.000000   2507781   2507016   2506288   2505586   2504879  
  6670.000000   2504150   2503383   2502597   2501817   2501089  
  6660.000000   2500435   2499858   2499320   2498756   2498085  
  6650.000000   2497244   2496197   2494951   2493540   2492019  
  6640.000000   2490434   2488822   2487203   2485593   2484004  
  6630.000000   2482458   2480970   2479553   2478194   2476873  
  6620.000000   2475554   2474212   2472838   2471450   2470076  
  6610.000000   2468747   2467475   2466248   2465031   2463779  
  6600.000000   2462460   2461061   2459593   2458082   2456561  
  6590.000000   2455052   2453564   2452098   2450647   2449206  
  6580.000000   2447772   2446350   2444941   2443555   2442201  
  6570.000000   2440900   2439670   2438531   2437482   2436500  
  6560.000000   2435531   2434500   2433336   2431987   2430447  
  6550.000000   2428756   2426990   2425239   2423579   2422054  
  6540.000000   2420665   2419384   2418160   2416945   2415697  
  6530.000000   2414393   2413023   2411590   2410109   2408607  
  6520.000000   2407116   2405666   2404285   2402978   2401736  
  6510.000000   2400536   2399353   2398177   2397015   2395892  
  6500.000000   2394839   2393881   2393016   2392215   2391433  
  6490.000000   2390618   2389729   2388745   2387670   2386513  
  6480.000000   2385291   2384010   2382674   2381287   2379859  
  6470.000000   2378415   2376985   2375605   2374301   2373094  
  6460.000000   2371992   2370996   2370102   2369302   2368575  
  6450.000000   2367887   2367196   2366447   2365604   2364648  
  6440.000000   2363597   2362489   2361383   2360325   2359349  
  6430.000000   2358457   2357640   2356883   2356178   2355530  
  6420.000000   2354951   2354442   2353991   2353561   2353110  
  6410.000000   2352597   2352011   2351361   2350689   2350041  
  6400.000000   2349462   2348978   2348598   2348316   2348122  
  6390.000000   2348003   2347947   2347932   2347925   2347888  
  6380.000000   2347783   2347589   2347312   2346986   2346659  
  6370.000000   2346376   2346160   2346007   2345883   2345751  
  6360.000000   2345572   2345333   2345032   2344682   2344290  
  6350.000000   2343856   2343370   2342827   2342227   2341595  
  6340.000000   2340957   2340342   2339759   2339200   2338631  
  6330.000000   2338027   2337364   2336651   2335907   2335163  
  6320.000000   2334435   2333719   2332981   2332182   2331282  
  6310.000000   2330272   2329166   2328007   2326840   2325707  
  6300.000000   2324624   2323590   2322586   2321597   2320604  
  6290.000000   2319600   2318577   2317528   2316435   2315281  
  6280.000000   2314050   2312736   2311346   2309901   2308425  
  6270.000000   2306946   2305479   2304037   2302616   2301210  
  6260.000000   2299803   2298380   2296920   2295409   2293834  
  6250.000000   2292198   2290514   2288810   2287114   2285457  
  6240.000000   2283854   2282310   2280819   2279371   2277955  
  6230.000000   2276568   2275205   2273862   2272525   2271173  
  6220.000000   2269782   2268330   2266808   2265221   2263588  
  6210.000000   2261936   2260294   2258684   2257120   2255606  
  6200.000000   2254146   2252734   2251365   2250032   2248722  
  6190.000000   2247426   2246138   2244864   2243619   2242427  
  6180.000000   2241311   2240285   2239348   2238473   2237625  
  6170.000000   2236755   2235824   2234798   2233669   2232442  
  6160.000000   2231143   2229813   2228499   2227253   2226113  
  6150.000000   2225103   2224218   2223429   2222686   2221931  
  6140.000000   2221117   2220218   2219236   2218191   2217112  
  6130.000000   2216022   2214934   2213842   2212745   2211640  
  6120.000000   2210547   2209492   2208511   2207631   2206867  
  6110.000000   2206211   2205644   2205142   2204690   2204274  
  6100.000000   2203901   2203568   2203285   2203042   2202843  
  6090.000000   2202681   2202565   2202497   2202489   2202535  
  6080.000000   2202630   2202751   2202889   2203033   2203199  
  6070.000000   2203406   2203691   2204073   2204564   2205146  
  6060.000000   2205797   2206478   2207171   2207857   2208548  
  6050.000000   2209257   2210017   2210850   2211793   2212862  
  6040.000000   2214087   2215470   2217017   2218698   2220484  
  6030.000000   2222322   2224180   2226027   2227869   2229721  
  6020.000000   2231621   2233592   2235652   2237788   2239981  
  6010.000000   2242191   2244395   2246566   2248702   2250793  
  6000.000000   2252848   2254863   2256852   2258826   2260815  
  5990.000000   2262847   2264962   2267175   2269496   2271910  
  5980.000000   2274397   2276933   2279514   2282141   2284839  
  5970.000000   2287620   2290500   2293464   2296500   2299577  
  5960.000000   2302687   2305818   2308985   2312193   2315458  
  5950.000000   2318769   2322120   2325493   2328886   2332307  
  5940.000000   2335785   2339357   2343054   2346893   2350868  
  5930.000000   2354948   2359085   2363221   2367301   2371278  
  5920.000000   2375112   2378782   2382274   2385590   2388736  
  5910.000000   2391729   2394584   2397316   2399932   2402450  
  5900.000000   2404881   2407261   2409622   2412017   2414477  
  5890.000000   2417034   2419681   2422403   2425158   2427913  
  5880.000000   2430632   2433291   2435867   2438334   2440658  
  5870.000000   2442802   2444740   2446466   2448011   2449436  
  5860.000000   2450824   2452252   2453776   2455419   2457174  
  5850.000000   2459028   2460961   2462975   2465079   2467288  
  5840.000000   2469598   2471984   2474397   2476777   2479076  
  5830.000000   2481263   2483344   2485342   2487296   2489237  
  5820.000000   2491185   2493147   2495124   2497119   2499136  
  5810.000000   2501184   2503263   2505372   2507488   2509604  
  5800.000000   2511698   2513790   2515885   2518028   2520216  
  5790.000000   2522461   2524700   2526870   2528844   2530511  
  5780.000000   2531732   2532411   2532463   2531870   2530648  
  5770.000000   2528887   2526704   2524264   2521707   2519176  
  5760.000000   2516741   2514451   2512290   2510248   2508294  
  5750.000000   2506436   2504676   2503042   2501545   2500189  
  5740.000000   2498956   2497818   2496751   2495727   2494740  
  5730.000000   2493776   2492833   2491897   2490961   2490016  
  5720.000000   2489069   2488130   2487225   2486365   2485563  
  5710.000000   2484807   2484085   2483381   2482690   2482018  
  5700.000000   2481382   2480795   2480260   2479765   2479287  
  5690.000000   2478808   2478313   2477816   2477331   2476886  
  5680.000000   2476482   2476113   2475736   2475303   2474752  
  5670.000000   2474036   2473108   2471943   2470515   2468819  
  5660.000000   2466859   2464668   2462300   2459838   2457366  
  5650.000000   2454966   2452684   2450540   2448514   2446579  
  5640.000000   2444705   2442876   2441094   2439370   2437716  
  5630.000000   2436134   2434622   2433166   2431763   2430408  
  5620.000000   2429113   2427879   2426707   2425580   2424482  
  5610.000000   2423390   2422301   2421218   2420165   2419160  
  5600.000000   2418219   2417336   2416497   2415679   2414869  
  5590.000000   2414065   2413279   2412525   2411811   2411130  
  5580.000000   2410461   2409774   2409045   2408260   2407420  
  5570.000000   2406538   2405632   2404716   2403796   2402878  
  5560.000000   2401965   2401067   2400189   2399338   2398509  
  5550.000000   2397687   2396849   2395971   2395041   2394058  
  5540.000000   2393035   2391989   2390936   2389885   2388837  
  5530.000000   2387793   2386755   2385733   2384737   2383773  
  5520.000000   2382839   2381925   2381010   2380082   2379130  
  5510.000000   2378160   2377174   2376178   2375164   2374121  
  5500.000000   2373032   2371897   2370725   2369551   2368403  
  5490.000000   2367305   2366249   2365200   2364103   2362910  
  5480.000000   2361590   2360147   2358611   2357035   2355459  
  5470.000000   2353914   2352396   2350893   2349381   2347849  
  5460.000000   2346286   2344698   2343082   2341434   2339746  
  5450.000000   2338011   2336231   2334422   2332608   2330812  
  5440.000000   2329049   2327318   2325617   2323940   2322298  
  5430.000000   2320706   2319192   2317764   2316422   2315137  
  5420.000000   2313884   2312637   2311405   2310208   2309099  
  5410.000000   2308109   2307262   2306533   2305896   2305304  
  5400.000000   2304750   2304235   2303808   2303504   2303374  
  5390.000000   2303418   2303636   2303989   2304470   2305066  
  5380.000000   2305806   2306700   2307778   2309017   2310411  
  5370.000000   2311905   2313488   2315127   2316853   2318662  
  5360.000000   2320609   2322691   2324961   2327416   2330125  
  5350.000000   2333105   2336445   2340157   2344304   2348845  
  5340.000000   2353798   2359089   2364747   2370728   2377102  
  5330.000000   2383844   2391029   2398608   2406631   2415037  
  5320.000000   2423893   2433173   2442993   2453351   2464372  
  5310.000000   2476025   2488390   2501391   2515083   2529392  
  5300.000000   2544401   2560078   2576544   2593796   2611955  
  5290.000000   2630989   2650955   2671737   2693297   2715459  
  5280.000000   2738169   2761310   2784932   2809042   2833778  
  5270.000000   2859173   2885276   2911975   2939127   2966507  
  5260.000000   2993937   3021304   3048588   3075847   3103126  
  5250.000000   3130449   3157707   3184754   3211334   3237289  
  5240.000000   3262445   3286827   3310436   3333435   3355865  
  5230.000000   3377848   3399319   3420279   3440562   3460134  
  5220.000000   3478859   3496795   3513915   3530377   3546209  
  5210.000000   3561566   3576407   3590774   3604510   3617583  
  5200.000000   3629834   3641304   3651946   3661910   3671212  
  5190.000000   3679992   3688209   3695912   3702988   3709459  
  5180.000000   3715233   3720383   3724879   3728825   3732196  
  5170.000000   3735075   3737413   3739274   3740618   3741518  
  5160.000000   3741941   3741950   3741497   3740623   3739277  
  5150.000000   3737517   3735335   3732821   3729993   3726925  
  5140.000000   3723601   3720051   3716230   3712164   3707837  
  5130.000000   3703308   3698591   3693748   3688776   3683699  
  5120.000000   3678491   3673161   3667700   3662142   3656505  
  5110.000000   3650827   3645115   3639380   3633606   3627795  
  5100.000000   3621939   3616064   3610189   3604348   3598555  
  5090.000000   3592822   3587139   3581494   3575868   3570253  
  5080.000000   3564636   3559019   3553393   3547756   3542100  
  5070.000000   3536424   3530724   3525005   3519264   3513503  
  5060.000000   3507709   3501874   3495979   3490019   3483986  
  5050.000000   3477894   3471748   3465565   3459350   3453107  
  5040.000000   3446831   3440523   3434181   3427813   3421432  
  5030.000000   3415050   3408678   3402324   3395990   3389676  
  5020.000000   3383387   3377126   3370913   3364759   3358694  
  5010.000000   3352732   3346901   3341208   3335670   3330278  
  5000.000000   3325043   3319945   3314993   3310172   3305506  
  4990.000000   3300991   3296668   3292535   3288632   3284944  
  4980.000000   3281497   3278260   3275257   3272465   3269927  
  4970.000000   3267641   3265665   3264000   3262698   3261735  
  4960.000000   3261141   3260870   3260943   3261313   3262009  
  4950.000000   3262996   3264315   3265937   3267912   3270214  
  4940.000000   3272896   3275933   3279378   3283194   3287416  
  4930.000000   3291993   3296942   3302211   3307825   3313752  
  4920.000000   3320038   3326666   3333682   3341057   3348811  
  4910.000000   3356896   3365308   3373995   3382947   3392119  
  4900.000000   3401495   3411031   3420695   3430444   3440236  
  4890.000000   3450035   3459796   3469494   3479074   3488509  
  4880.000000   3497730   3506708   3515364   3523675   3531565  
  4870.000000   3539022   3545971   3552409   3558270   3563569  
  4860.000000   3568261   3572390   3575940   3578976   3581498  
  4850.000000   3583578   3585224   3586512   3587460   3588152  
  4840.000000   3588617   3588940   3589155   3589333   3589495  
  4830.000000   3589690   3589921   3590208   3590535   3590897  
  4820.000000   3591274   3591657   3592040   3592434   3592858  
  4810.000000   3593336   3593892   3594536   3595276   3596097  
  4800.000000   3596996   3597959   3598996   3600113   3601329  
  4790.000000   3602651   3604089   3605630   3607260   3608956  
  4780.000000   3610706   3612497   3614327   3616190   3618080  
  4770.000000   3619980   3621872   3623733   3625548   3627310  
  4760.000000   3629022   3630692   3632323   3633919   3635471  
  4750.000000   3636968   3638398   3639755   3641038   3642258  
  4740.000000   3643426   3644560   3645671   3646775   3647878  
  4730.000000   3648983   3650089   3651186   3652261   3653294  
  4720.000000   3654271   3655182   3656037   3656851   3657663  
  4710.000000   3658508   3659436   3660476   3661662   3663005  
  4700.000000   3664522   3666212   3668081   3670120   3672327  
  4690.000000   3674685   3677183   3679795   3682508   3685294  
  4680.000000   3688138   3691002   3693863   3696673   3699403  
  4670.000000   3702010   3704491   3706839   3709094   3711294  
  4660.000000   3713506   3715786   3718201   3720794   3723605  
  4650.000000   3726655   3729952   3733490   3737244   3741181  
  4640.000000   3745254   3749415   3753606   3757783   3761894  
  4630.000000   3765902   3769762   3773442   3776903   3780128  
  4620.000000   3783088   3785782   3788192   3790326   3792167  
  4610.000000   3793726   3794987   3795979   3796709   3797235  
  4600.000000   3797589   3797850   3798045   3798229   3798395  
  4590.000000   3798555   3798662   3798696   3798598   3798345  
  4580.000000   3797888   3797218   3796309   3795177   3793820  
  4570.000000   3792275   3790559   3788715   3786757   3784717  
  4560.000000   3782596   3780411   3778160   3775859   3773513  
  4550.000000   3771142   3768753   3766359   3763953   3761535  
  4540.000000   3759090   3756613   3754102   3751563   3749008  
  4530.000000   3746451   3743910   3741387   3738895   3736427  
  4520.000000   3733995   3731585   3729223   3726901   3724661  
  4510.000000   3722505   3720502   3718670   3717102   3715823  
  4500.000000   3714938   3714459   3714478   3714981   3716049  
  4490.000000   3717655   3719885   3722722   3726265   3730499  
  4480.000000   3735516   3741281   3747861   3755190   3763310  
  4470.000000   3772138   3781701   3791905   3802763   3814177  
  4460.000000   3826151   3838589   3851490   3864764   3878404  
  4450.000000   3892326   3906512   3920886   3935431   3950094  
  4440.000000   3964862   3979707   3994604   4009527   4024423  
  4430.000000   4039257   4053955   4068488   4082781   4096825  
  4420.000000   4110543   4123929   4136888   4149394   4161332  
  4410.000000   4172662   4183264   4193117   4202132   4210332  
  4400.000000   4217689   4224287   4230160   4235447   4240226  
  4390.000000   4244658   4248831   4252892   4256901   4260956  
  4380.000000   4265070   4269286   4273580   4277962   4282408  
  4370.000000   4286934   4291541   4296256   4301095   4306081  
  4360.000000   4311213   4316492   4321884   4327376   4332899  
  4350.000000   4338442   4343916   4349330   4354602   4359782  
  4340.000000   4364819   4369762   4374516   4378993   4382896  
  4330.000000   4385878   4387433   4387104   4384491   4379454  
  4320.000000   4372114   4362931   4352569   4341838   4331476  
  4310.000000   4322094   4314030   4307415   4302156   4298074  
  4300.000000   4294948   4292593   4290883   4289728   4289096  
  4290.000000   4288923   4289194   4289838   4290851   4292180  
  4280.000000   4293834   4295778   4297994   4300437   4303047  
  4270.000000   4305772   4308534   4311266   4313840   4316100  
  4260.000000   4317799   4318668   4318406   4316798   4313726  
  4250.000000   4309263   4303626   4297196   4290382   4283620  
  4240.000000   4277223   4271421   4266272   4261762   4257768  
  4230.000000   4254167   4250814   4247595   4244423   4241235  
  4220.000000   4238019   4234769   4231552   4228413   4225471  
  4210.000000   4222791   4220479   4218567   4217105   4216071  
  4200.000000   4215468   4215244   4215382   4215820   4216532  
  4190.000000   4217443   4218525   4219700   4220956   4222235  
  4180.000000   4223559   4224903   4226316   4227796   4229409  
  4170.000000   4231167   4233150   4235383   4237950   4240871  
  4160.000000   4244214   4247967   4252165   4256766   4261787  
  4150.000000   4267179   4272966   4279104   4285632   4292510  
  4140.000000   4299784   4307418   4315463   4323884   4332734  
  4130.000000   4341973   4351647   4361712   4372211   4383106  
  4120.000000   4394445   4406207   4418444   4431138   4444333  
  4110.000000   4458003   4472177   4486818   4501937   4517480  
  4100.000000   4533428   4549702   4566251   4582990   4599869  
  4090.000000   4616834   4633859   4650934   4668051   4685219  
  4080.000000   4702418   4719648   4736858   4754025   4771055  
  4070.000000   4787896   4804412   4820535   4836126   4851150  
  4060.000000   4865512   4879240   4892289   4904732   4916543  
  4050.000000   4927814   4938525   4948785   4958572   4967983  
  4040.000000   4976958   4985545   4993627   5001213   5008183  
  4030.000000   5014568   5020288   5025404   5029864   5033720  
  4020.000000   5036895   5039444   5041361   5042724   5043505  
  4010.000000   5043826   5043753   5043279   5042182   5040490  
  4000.000000   5038496  
##END= 
