##TITLE= Sample 023 By ssteindl date Dienstag, November 20 2018
##JCAMP-DX= 4.24
##DATA TYPE= INFRARED SPECTRUM
##ORIGIN= Exported PE Spectrum Data File
##OWNER= Sandra Steindl
##DATE= 18/11/20
##TIME= 17:17:10.00
##SPECTROMETER/DATA SYSTEM= PERKIN-ELMER Frontier FT-IR/NIR IR
##INSTRUMENT PARAMETERS=
  APODIZATION=stark
  DETECTOR=INGAAS
##RESOLUTION= 16.000000
##DELTAX= -2.000000
##XUNITS= 1/CM
##YUNITS= A
##XFACTOR= 1.00
##YFACTOR= 0.00000011920928955078
##FIRSTX= 10000.00
##LASTX= 4000.00
##NPOINTS= 3001
##FIRSTY= 0.220828
##MAXY= 0.631156
##MINY= 0.188747
##XYDATA= (X++(Y..Y))
 10000.000000   1852439   1848910   1845550   1842949   1841849  
  9990.000000   1842437   1844059   1845598   1846212   1845636  
  9980.000000   1844073   1841997   1839992   1838563   1837980  
  9970.000000   1838317   1839462   1841180   1843041   1844491  
  9960.000000   1844977   1844084   1841730   1838171   1833914  
  9950.000000   1829457   1825080   1820685   1815973   1810642  
  9940.000000   1804764   1798868   1793838   1790587   1789605  
  9930.000000   1790776   1793351   1796347   1798946   1800874  
  9920.000000   1802434   1804251   1806857   1810273   1813947  
  9910.000000   1816891   1818196   1817369   1814613   1810628  
  9900.000000   1806313   1802324   1798882   1795811   1792799  
  9890.000000   1789731   1786812   1784534   1783355   1783470  
  9880.000000   1784579   1786095   1787318   1787889   1787871  
  9870.000000   1787743   1788101   1789283   1791214   1793308  
  9860.000000   1794801   1794930   1793308   1789888   1784981  
  9850.000000   1779019   1772467   1765811   1759576   1754477  
  9840.000000   1751269   1750673   1752997   1758004   1764809  
  9830.000000   1772099   1778479   1782841   1784651   1783928  
  9820.000000   1781175   1777024   1772162   1767125   1762433  
  9810.000000   1758556   1755953   1754965   1755640   1757696  
  9800.000000   1760480   1763263   1765414   1766713   1767330  
  9790.000000   1767728   1768357   1769382   1770615   1771560  
  9780.000000   1771773   1771033   1769553   1767820   1766360  
  9770.000000   1765466   1764988   1764486   1763409   1761521  
  9760.000000   1759042   1756674   1755292   1755556   1757582  
  9750.000000   1760812   1764192   1766505   1766804   1764687  
  9740.000000   1760441   1754894   1749168   1744339   1741181  
  9730.000000   1740038   1740834   1743146   1746377   1749827  
  9720.000000   1752867   1754980   1755865   1755482   1754016  
  9710.000000   1751868   1749523   1747518   1746369   1746532  
  9700.000000   1748337   1751889   1756931   1762811   1768491  
  9690.000000   1772779   1774603   1773354   1769105   1762634  
  9680.000000   1755247   1748375   1743171   1740192   1739302  
  9670.000000   1739845   1740933   1741803   1742011   1741515  
  9660.000000   1740535   1739403   1738376   1737577   1737012  
  9650.000000   1736633   1736432   1736430   1736690   1737257  
  9640.000000   1738136   1739304   1740683   1742180   1743637  
  9630.000000   1744838   1745520   1745398   1744287   1742127  
  9620.000000   1739074   1735435   1731613   1727975   1724780  
  9610.000000   1722154   1720129   1718744   1718064   1718220  
  9600.000000   1719260   1721104   1723426   1725761   1727638  
  9590.000000   1728773   1729183   1729146   1729048   1729146  
  9580.000000   1729420   1729546   1729061   1727600   1725103  
  9570.000000   1721898   1718555   1715667   1713574   1712239  
  9560.000000   1711293   1710223   1708620   1706337   1703517  
  9550.000000   1700475   1697524   1694873   1692609   1690808  
  9540.000000   1689631   1689348   1690242   1692417   1695676  
  9530.000000   1699427   1702876   1705212   1705952   1705054  
  9520.000000   1702940   1700273   1697702   1695661   1694280  
  9510.000000   1693528   1693308   1693667   1694712   1696576  
  9500.000000   1699142   1702030   1704528   1705853   1705363  
  9490.000000   1702810   1698457   1692921   1687016   1681374  
  9480.000000   1676363   1671969   1667984   1664138   1660307  
  9470.000000   1656572   1653213   1650629   1649167   1649097  
  9460.000000   1650469   1653194   1657020   1661592   1666526  
  9450.000000   1671404   1675908   1679760   1682790   1684813  
  9440.000000   1685626   1684969   1682664   1678736   1673591  
  9430.000000   1667997   1662966   1659472   1658107   1658887  
  9420.000000   1661127   1663695   1665336   1665209   1663159  
  9410.000000   1659809   1656254   1653635   1652709   1653613  
  9400.000000   1655908   1658798   1661460   1663305   1664098  
  9390.000000   1663917   1663000   1661604   1659942   1658193  
  9380.000000   1656567   1655272   1654443   1653993   1653585  
  9370.000000   1652708   1650919   1648101   1644608   1641213  
  9360.000000   1638827   1638149   1639345   1641948   1645022  
  9350.000000   1647544   1648822   1648752   1647778   1646642  
  9340.000000   1645986   1646114   1646882   1647875   1648658  
  9330.000000   1649017   1649036   1648928   1648839   1648639  
  9320.000000   1647969   1646372   1643564   1639615   1634994  
  9310.000000   1630406   1626523   1623776   1622249   1621802  
  9300.000000   1622216   1623401   1625391   1628250   1631852  
  9290.000000   1635755   1639248   1641540   1642108   1640877  
  9280.000000   1638335   1635293   1632604   1630797   1629923  
  9270.000000   1629648   1629481   1629107   1628491   1627923  
  9260.000000   1627759   1628229   1629218   1630324   1631007  
  9250.000000   1630833   1629659   1627664   1625287   1622961  
  9240.000000   1620999   1619461   1618281   1617327   1616537  
  9230.000000   1615904   1615465   1615207   1615047   1614858  
  9220.000000   1614571   1614296   1614329   1615084   1616885  
  9210.000000   1619815   1623610   1627748   1631604   1634668  
  9200.000000   1636692   1637687   1637870   1637451   1636556  
  9190.000000   1635131   1633038   1630195   1626687   1622849  
  9180.000000   1619149   1616129   1614200   1613636   1614450  
  9170.000000   1616485   1619355   1622579   1625565   1627706  
  9160.000000   1628475   1627564   1625061   1621406   1617342  
  9150.000000   1613643   1610929   1609401   1608809   1608576  
  9140.000000   1608068   1606891   1605025   1602866   1601013  
  9130.000000   1600037   1600206   1601405   1603208   1605041  
  9120.000000   1606433   1607121   1607136   1606676   1606000  
  9110.000000   1605302   1604664   1604108   1603634   1603296  
  9100.000000   1603190   1603436   1604098   1605137   1606356  
  9090.000000   1607476   1608175   1608200   1607408   1605802  
  9080.000000   1603559   1600949   1598327   1595988   1594143  
  9070.000000   1592823   1591891   1591108   1590231   1589160  
  9060.000000   1587992   1587069   1586844   1587742   1589948  
  9050.000000   1593323   1597406   1601516   1604957   1607193  
  9040.000000   1608015   1607508   1606007   1603934   1601736  
  9030.000000   1599749   1598199   1597184   1596701   1596659  
  9020.000000   1596845   1597018   1596920   1596452   1595670  
  9010.000000   1594867   1594435   1594761   1596022   1598065  
  9000.000000   1600400   1602346   1603282   1602837   1601028  
  8990.000000   1598238   1595089   1592201   1589995   1588592  
  8980.000000   1587847   1587463   1587129   1586635   1585930  
  8970.000000   1585091   1584275   1583644   1583325   1583386  
  8960.000000   1583821   1584552   1585438   1586298   1586978  
  8950.000000   1587397   1587619   1587836   1588331   1589327  
  8940.000000   1590878   1592762   1594525   1595585   1595471  
  8930.000000   1594007   1591455   1588435   1585763   1584172  
  8920.000000   1584086   1585489   1587931   1590732   1593196  
  8910.000000   1594875   1595646   1595744   1595604   1595706  
  8900.000000   1596382   1597717   1599537   1601448   1603010  
  8890.000000   1603808   1603636   1602479   1600555   1598225  
  8880.000000   1595887   1593907   1592480   1591702   1591549  
  8870.000000   1592007   1593074   1594811   1597267   1600406  
  8860.000000   1603991   1607560   1610494   1612166   1612157  
  8850.000000   1610373   1607147   1603139   1599207   1596129  
  8840.000000   1594403   1594125   1595011   1596535   1598093  
  8830.000000   1599204   1599626   1599398   1598777   1598123  
  8820.000000   1597785   1597976   1598751   1599982   1601453  
  8810.000000   1602907   1604160   1605148   1605942   1606721  
  8800.000000   1607672   1608924   1610475   1612177   1613788  
  8790.000000   1615031   1615711   1615737   1615151   1614088  
  8780.000000   1612715   1611203   1609690   1608321   1607249  
  8770.000000   1606663   1606734   1607560   1609074   1611032  
  8760.000000   1613038   1614652   1615533   1615538   1614804  
  8750.000000   1613665   1612587   1611953   1612000   1612707  
  8740.000000   1613883   1615222   1616473   1617489   1618293  
  8730.000000   1619021   1619865   1620991   1622479   1624331  
  8720.000000   1626485   1628863   1631398   1634051   1636806  
  8710.000000   1639646   1642521   1645327   1647903   1650046  
  8700.000000   1651562   1652307   1652258   1651522   1650345  
  8690.000000   1649057   1647994   1647429   1647497   1648179  
  8680.000000   1649317   1650692   1652098   1653408   1654582  
  8670.000000   1655662   1656728   1657857   1659109   1660515  
  8660.000000   1662106   1663909   1665953   1668243   1670735  
  8650.000000   1673326   1675857   1678170   1680153   1681785  
  8640.000000   1683131   1684307   1685421   1686518   1687554  
  8630.000000   1688426   1689022   1689302   1689327   1689272  
  8620.000000   1689363   1689819   1690758   1692170   1693904  
  8610.000000   1695724   1697369   1698631   1699405   1699710  
  8600.000000   1699676   1699505   1699422   1699616   1700207  
  8590.000000   1701202   1702528   1704030   1705542   1706908  
  8580.000000   1708034   1708886   1709484   1709897   1710224  
  8570.000000   1710596   1711169   1712118   1713600   1715711  
  8560.000000   1718415   1721539   1724758   1727692   1729984  
  8550.000000   1731432   1732044   1732035   1731743   1731491  
  8540.000000   1731484   1731736   1732108   1732391   1732428  
  8530.000000   1732178   1731731   1731262   1730933   1730847  
  8520.000000   1731000   1731352   1731877   1732623   1733706  
  8510.000000   1735243   1737277   1739698   1742250   1744587  
  8500.000000   1746403   1747531   1748024   1748095   1748059  
  8490.000000   1748181   1748605   1749322   1750223   1751177  
  8480.000000   1752106   1753013   1753960   1755012   1756189  
  8470.000000   1757449   1758710   1759912   1761042   1762156  
  8460.000000   1763338   1764667   1766159   1767777   1769439  
  8450.000000   1771080   1772677   1774244   1775791   1777278  
  8440.000000   1778592   1779548   1779956   1779703   1778832  
  8430.000000   1777545   1776165   1775043   1774465   1774575  
  8420.000000   1775347   1776626   1778185   1779804   1781297  
  8410.000000   1782552   1783525   1784241   1784786   1785287  
  8400.000000   1785907   1786774   1787952   1789380   1790882  
  8390.000000   1792206   1793105   1793452   1793288   1792844  
  8380.000000   1792450   1792432   1792985   1794111   1795618  
  8370.000000   1797180   1798454   1799176   1799241   1798696  
  8360.000000   1797703   1796495   1795314   1794406   1793959  
  8350.000000   1794124   1794952   1796412   1798335   1800469  
  8340.000000   1802497   1804128   1805165   1805539   1805303  
  8330.000000   1804566   1803452   1802032   1800354   1798444  
  8320.000000   1796394   1794377   1792655   1791505   1791124  
  8310.000000   1791560   1792663   1794152   1795683   1796982  
  8300.000000   1797916   1798539   1799042   1799659   1800565  
  8290.000000   1801798   1803257   1804733   1805986   1806814  
  8280.000000   1807111   1806884   1806222   1805272   1804166  
  8270.000000   1803019   1801875   1800756   1799640   1798519  
  8260.000000   1797385   1796261   1795177   1794174   1793258  
  8250.000000   1792418   1791594   1790725   1789757   1788678  
  8240.000000   1787535   1786413   1785415   1784612   1784012  
  8230.000000   1783544   1783088   1782517   1781759   1780826  
  8220.000000   1779812   1778861   1778100   1777605   1777354  
  8210.000000   1777258   1777183   1777018   1776697   1776226  
  8200.000000   1775643   1774999   1774317   1773582   1772750  
  8190.000000   1771760   1770577   1769177   1767562   1765746  
  8180.000000   1763744   1761593   1759343   1757106   1755022  
  8170.000000   1753285   1752066   1751485   1751537   1752083  
  8160.000000   1752865   1753555   1753841   1753489   1752409  
  8150.000000   1750650   1748404   1745939   1743545   1741470  
  8140.000000   1739872   1738814   1738247   1738053   1738056  
  8130.000000   1738076   1737947   1737553   1736825   1735745  
  8120.000000   1734337   1732650   1730765   1728771   1726783  
  8110.000000   1724910   1723258   1721894   1720840   1720067  
  8100.000000   1719497   1719042   1718617   1718176   1717703  
  8090.000000   1717210   1716706   1716176   1715584   1714874  
  8080.000000   1714014   1712999   1711877   1710720   1709600  
  8070.000000   1708555   1707570   1706594   1705559   1704426  
  8060.000000   1703206   1701967   1700799   1699783   1698944  
  8050.000000   1698250   1697624   1696994   1696328   1695654  
  8040.000000   1695049   1694591   1694317   1694183   1694075  
  8030.000000   1693844   1693369   1692612   1691640   1690605  
  8020.000000   1689691   1689039   1688698   1688604   1688601  
  8010.000000   1688505   1688157   1687484   1686505   1685328  
  8000.000000   1684099   1682964   1682017   1681290   1680741  
  7990.000000   1680283   1679804   1679203   1678410   1677406  
  7980.000000   1676227   1674943   1673650   1672427   1671329  
  7970.000000   1670360   1669490   1668661   1667828   1666972  
  7960.000000   1666123   1665348   1664736   1664362   1664266  
  7950.000000   1664435   1664804   1665275   1665745   1666124  
  7940.000000   1666361   1666433   1666353   1666141   1665827  
  7930.000000   1665417   1664917   1664306   1663576   1662718  
  7920.000000   1661754   1660738   1659751   1658909   1658314  
  7910.000000   1658057   1658167   1658622   1659329   1660157  
  7900.000000   1660960   1661607   1662014   1662133   1661969  
  7890.000000   1661537   1660871   1660002   1658966   1657820  
  7880.000000   1656642   1655544   1654646   1654061   1653851  
  7870.000000   1654016   1654466   1655047   1655560   1655811  
  7860.000000   1655649   1655008   1653918   1652509   1650977  
  7850.000000   1649554   1648448   1647811   1647699   1648065  
  7840.000000   1648764   1649594   1650323   1650753   1650741  
  7830.000000   1650233   1649264   1647937   1646402   1644817  
  7820.000000   1643325   1642023   1640966   1640157   1639561  
  7810.000000   1639126   1638779   1638464   1638122   1637728  
  7800.000000   1637270   1636758   1636214   1635662   1635122  
  7790.000000   1634592   1634060   1633494   1632860   1632133  
  7780.000000   1631316   1630437   1629556   1628737   1628034  
  7770.000000   1627465   1627002   1626579   1626115   1625548  
  7760.000000   1624858   1624086   1623322   1622676   1622241  
  7750.000000   1622058   1622097   1622268   1622446   1622506  
  7740.000000   1622366   1621994   1621410   1620662   1619810  
  7730.000000   1618894   1617939   1616959   1615969   1615006  
  7720.000000   1614122   1613387   1612853   1612550   1612452  
  7710.000000   1612495   1612572   1612573   1612397   1611981  
  7700.000000   1611313   1610418   1609358   1608197   1606994  
  7690.000000   1605781   1604569   1603352   1602129   1600915  
  7680.000000   1599752   1598708   1597851   1597241   1596895  
  7670.000000   1596791   1596864   1597021   1597169   1597218  
  7660.000000   1597112   1596813   1596323   1595660   1594884  
  7650.000000   1594070   1593325   1592749   1592429   1592404  
  7640.000000   1592651   1593086   1593590   1594044   1594370  
  7630.000000   1594558   1594662   1594770   1594968   1595290  
  7620.000000   1595715   1596168   1596567   1596848   1596998  
  7610.000000   1597045   1597043   1597035   1597034   1597017  
  7600.000000   1596951   1596816   1596630   1596445   1596336  
  7590.000000   1596365   1596559   1596895   1597320   1597770  
  7580.000000   1598207   1598620   1599036   1599482   1599984  
  7570.000000   1600542   1601146   1601779   1602443   1603145  
  7560.000000   1603903   1604714   1605558   1606391   1607173  
  7550.000000   1607886   1608555   1609228   1609964   1610776  
  7540.000000   1611633   1612440   1613101   1613549   1613807  
  7530.000000   1613986   1614270   1614833   1615787   1617122  
  7520.000000   1618726   1620415   1622024   1623458   1624741  
  7510.000000   1625980   1627329   1628902   1630749   1632819  
  7500.000000   1635008   1637186   1639261   1641192   1643006  
  7490.000000   1644756   1646513   1648325   1650214   1652163  
  7480.000000   1654143   1656095   1657975   1659732   1661354  
  7470.000000   1662850   1664284   1665747   1667347   1669177  
  7460.000000   1671288   1673671   1676275   1679011   1681809  
  7450.000000   1684618   1687434   1690262   1693113   1695963  
  7440.000000   1698767   1701469   1704041   1706497   1708915  
  7430.000000   1711411   1714102   1717069   1720315   1723770  
  7420.000000   1727302   1730765   1734022   1736981   1739607  
  7410.000000   1741917   1743969   1745844   1747640   1749448  
  7400.000000   1751342   1753362   1755509   1757748   1760023  
  7390.000000   1762292   1764546   1766826   1769202   1771754  
  7380.000000   1774527   1777505   1780610   1783723   1786736  
  7370.000000   1789578   1792243   1794774   1797242   1799708  
  7360.000000   1802198   1804706   1807203   1809663   1812078  
  7350.000000   1814457   1816812   1819144   1821432   1823642  
  7340.000000   1825744   1827746   1829685   1831639   1833679  
  7330.000000   1835865   1838209   1840699   1843287   1845935  
  7320.000000   1848602   1851264   1853873   1856365   1858642  
  7310.000000   1860608   1862199   1863421   1864362   1865173  
  7300.000000   1866011   1866995   1868153   1869433   1870714  
  7290.000000   1871879   1872846   1873620   1874270   1874908  
  7280.000000   1875630   1876492   1877488   1878559   1879622  
  7270.000000   1880592   1881414   1882066   1882576   1882998  
  7260.000000   1883423   1883946   1884670   1885664   1886957  
  7250.000000   1888508   1890233   1892001   1893706   1895272  
  7240.000000   1896713   1898091   1899524   1901095   1902862  
  7230.000000   1904794   1906838   1908911   1910987   1913067  
  7220.000000   1915224   1917519   1920016   1922714   1925589  
  7210.000000   1928577   1931651   1934800   1938081   1941552  
  7200.000000   1945282   1949275   1953503   1957869   1962284  
  7190.000000   1966643   1970907   1975046   1979089   1983052  
  7180.000000   1986978   1990879   1994798   1998762   2002841  
  7170.000000   2007086   2011570   2016312   2021323   2026555  
  7160.000000   2031958   2037464   2043046   2048682   2054407  
  7150.000000   2060249   2066271   2072500   2078969   2085651  
  7140.000000   2092517   2099476   2106461   2113379   2120204  
  7130.000000   2126928   2133626   2140384   2147327   2154536  
  7120.000000   2162067   2169894   2177967   2186190   2194502  
  7110.000000   2202852   2211245   2219684   2228191   2236747  
  7100.000000   2245329   2253883   2262395   2270856   2279320  
  7090.000000   2287844   2296503   2305330   2314330   2323459  
  7080.000000   2332662   2341875   2351066   2360225   2369382  
  7070.000000   2378571   2387837   2397201   2406674   2416233  
  7060.000000   2425843   2435445   2444981   2454386   2463622  
  7050.000000   2472673   2481560   2490334   2499056   2507789  
  7040.000000   2516568   2525411   2534305   2543238   2552186  
  7030.000000   2561145   2570095   2579022   2587877   2596610  
  7020.000000   2605151   2613459   2621509   2629324   2636935  
  7010.000000   2644393   2651712   2658904   2665934   2672793  
  7000.000000   2679459   2685962   2692326   2698604   2704800  
  6990.000000   2710922   2716919   2722766   2728416   2733884  
  6980.000000   2739180   2744361   2749446   2754466   2759400  
  6970.000000   2764238   2768943   2773516   2777943   2782236  
  6960.000000   2786378   2790358   2794129   2797672   2800968  
  6950.000000   2804056   2806985   2809849   2812713   2815644  
  6940.000000   2818643   2821697   2824740   2827710   2830529  
  6930.000000   2833147   2835512   2837615   2839457   2841083  
  6920.000000   2842544   2843922   2845285   2846695   2848176  
  6910.000000   2849731   2851328   2852937   2854513   2856033  
  6900.000000   2857472   2858823   2860074   2861232   2862303  
  6890.000000   2863319   2864310   2865321   2866376   2867487  
  6880.000000   2868636   2869791   2870915   2871983   2872980  
  6870.000000   2873909   2874768   2875554   2876255   2876864  
  6860.000000   2877388   2877864   2878355   2878930   2879637  
  6850.000000   2880483   2881418   2882357   2883207   2883908  
  6840.000000   2884449   2884884   2885293   2885760   2886330  
  6830.000000   2887004   2887735   2888462   2889126   2889694  
  6820.000000   2890158   2890528   2890814   2891026   2891157  
  6810.000000   2891211   2891188   2891109   2890987   2890842  
  6800.000000   2890672   2890477   2890248   2889998   2889740  
  6790.000000   2889504   2889304   2889132   2888950   2888702  
  6780.000000   2888334   2887821   2887176   2886454   2885720  
  6770.000000   2885036   2884423   2883879   2883366   2882860  
  6760.000000   2882338   2881808   2881276   2880745   2880184  
  6750.000000   2879541   2878748   2877757   2876546   2875145  
  6740.000000   2873610   2872022   2870448   2868950   2867557  
  6730.000000   2866292   2865154   2864135   2863196   2862281  
  6720.000000   2861307   2860198   2858898   2857403   2855758  
  6710.000000   2854047   2852356   2850746   2849228   2847772  
  6700.000000   2846321   2844833   2843287   2841708   2840128  
  6690.000000   2838583   2837076   2835590   2834091   2832561  
  6680.000000   2831000   2829435   2827897   2826397   2824910  
  6670.000000   2823383   2821748   2819964   2818029   2815996  
  6660.000000   2813940   2811940   2810039   2808242   2806516  
  6650.000000   2804819   2803113   2801382   2799614   2797799  
  6640.000000   2795905   2793897   2791744   2789450   2787060  
  6630.000000   2784661   2782343   2780176   2778166   2776268  
  6620.000000   2774393   2772460   2770417   2768270   2766059  
  6610.000000   2763838   2761639   2759452   2757238   2754949  
  6600.000000   2752560   2750086   2747582   2745115   2742741  
  6590.000000   2740485   2738335   2736263   2734238   2732243  
  6580.000000   2730276   2728342   2726440   2724555   2722673  
  6570.000000   2720779   2718886   2717016   2715204   2713466  
  6560.000000   2711797   2710159   2708505   2706800   2705050  
  6550.000000   2703300   2701624   2700093   2698742   2697552  
  6540.000000   2696460   2695376   2694223   2692946   2691537  
  6530.000000   2690005   2688380   2686686   2684952   2683211  
  6520.000000   2681516   2679938   2678547   2677393   2676480  
  6510.000000   2675760   2675143   2674524   2673816   2672970  
  6500.000000   2671983   2670881   2669704   2668479   2667222  
  6490.000000   2665936   2664631   2663326   2662058   2660858  
  6480.000000   2659748   2658726   2657768   2656846   2655930  
  6470.000000   2655014   2654101   2653204   2652328   2651471  
  6460.000000   2650620   2649764   2648905   2648055   2647230  
  6450.000000   2646433   2645648   2644833   2643940   2642929  
  6440.000000   2641801   2640590   2639368   2638205   2637155  
  6430.000000   2636227   2635394   2634603   2633806   2632978  
  6420.000000   2632121   2631266   2630444   2629679   2628973  
  6410.000000   2628313   2627678   2627048   2626411   2625757  
  6400.000000   2625078   2624364   2623607   2622807   2621977  
  6390.000000   2621135   2620301   2619481   2618659   2617801  
  6380.000000   2616870   2615846   2614741   2613608   2612515  
  6370.000000   2611534   2610699   2610009   2609413   2608849  
  6360.000000   2608255   2607601   2606885   2606132   2605365  
  6350.000000   2604596   2603815   2603001   2602128   2601183  
  6340.000000   2600167   2599093   2597971   2596814   2595625  
  6330.000000   2594411   2593178   2591951   2590748   2589588  
  6320.000000   2588469   2587375   2586266   2585110   2583878  
  6310.000000   2582568   2581183   2579743   2578252   2576713  
  6300.000000   2575109   2573437   2571694   2569903   2568081  
  6290.000000   2566252   2564409   2562536   2560590   2558544  
  6280.000000   2556377   2554110   2551772   2549410   2547049  
  6270.000000   2544697   2542326   2539906   2537397   2534791  
  6260.000000   2532090   2529327   2526531   2523734   2520951  
  6250.000000   2518196   2515468   2512775   2510113   2507481  
  6240.000000   2504860   2502233   2499572   2496867   2494115  
  6230.000000   2491340   2488564   2485808   2483070   2480329  
  6220.000000   2477545   2474679   2471705   2468625   2465458  
  6210.000000   2462245   2459019   2455811   2452639   2449518  
  6200.000000   2446462   2443490   2440620   2437857   2435186  
  6190.000000   2432570   2429961   2427311   2424594   2421808  
  6180.000000   2418985   2416170   2413412   2410744   2408187  
  6170.000000   2405735   2403380   2401100   2398876   2396680  
  6160.000000   2394489   2392273   2390017   2387716   2385387  
  6150.000000   2383064   2380788   2378589   2376482   2374451  
  6140.000000   2372468   2370495   2368512   2366511   2364509  
  6130.000000   2362524   2360578   2358675   2356813   2354978  
  6120.000000   2353168   2351384   2349648   2347977   2346394  
  6110.000000   2344901   2343495   2342157   2340877   2339642  
  6100.000000   2338455   2337317   2336239   2335214   2334242  
  6090.000000   2333309   2332413   2331543   2330707   2329901  
  6080.000000   2329136   2328408   2327731   2327105   2326550  
  6070.000000   2326078   2325709   2325445   2325290   2325223  
  6060.000000   2325238   2325313   2325456   2325666   2325970  
  6050.000000   2326370   2326884   2327497   2328207   2328993  
  6040.000000   2329856   2330783   2331785   2332854   2333992  
  6030.000000   2335186   2336431   2337724   2339075   2340497  
  6020.000000   2342003   2343591   2345243   2346920   2348576  
  6010.000000   2350168   2351671   2353079   2354409   2355677  
  6000.000000   2356906   2358101   2359264   2360394   2361498  
  5990.000000   2362595   2363715   2364888   2366142   2367484  
  5980.000000   2368910   2370406   2371955   2373547   2375181  
  5970.000000   2376859   2378589   2380368   2382199   2384072  
  5960.000000   2385983   2387918   2389869   2391814   2393733  
  5950.000000   2395595   2397385   2399090   2400729   2402328  
  5940.000000   2403936   2405595   2407346   2409207   2411187  
  5930.000000   2413281   2415481   2417772   2420141   2422566  
  5920.000000   2425023   2427474   2429894   2432257   2434560  
  5910.000000   2436807   2439020   2441211   2443390   2445555  
  5900.000000   2447702   2449831   2451953   2454096   2456291  
  5890.000000   2458565   2460926   2463361   2465838   2468315  
  5880.000000   2470753   2473125   2475414   2477612   2479714  
  5870.000000   2481709   2483598   2485383   2487091   2488760  
  5860.000000   2490447   2492201   2494063   2496047   2498151  
  5850.000000   2500362   2502669   2505069   2507571   2510183  
  5840.000000   2512905   2515722   2518605   2521515   2524419  
  5830.000000   2527295   2530137   2532948   2535730   2538482  
  5820.000000   2541181   2543807   2546323   2548714   2550955  
  5810.000000   2553047   2554975   2556746   2558343   2559774  
  5800.000000   2561027   2562122   2563052   2563840   2564466  
  5790.000000   2564936   2565220   2565317   2565207   2564905  
  5780.000000   2564408   2563732   2562869   2561824   2560587  
  5770.000000   2559180   2557629   2555996   2554347   2552749  
  5760.000000   2551249   2549870   2548611   2547459   2546406  
  5750.000000   2545453   2544614   2543907   2543344   2542919  
  5740.000000   2542618   2542409   2542275   2542191   2542161  
  5730.000000   2542174   2542235   2542327   2542442   2542559  
  5720.000000   2542684   2542823   2543011   2543274   2543641  
  5710.000000   2544118   2544700   2545359   2546073   2546819  
  5700.000000   2547587   2548372   2549176   2549992   2550812  
  5690.000000   2551628   2552428   2553212   2553979   2554732  
  5680.000000   2555464   2556167   2556816   2557394   2557878  
  5670.000000   2558264   2558545   2558724   2558794   2558753  
  5660.000000   2558588   2558301   2557897   2557406   2556861  
  5650.000000   2556307   2555772   2555280   2554829   2554417  
  5640.000000   2554033   2553671   2553323   2552986   2552647  
  5630.000000   2552293   2551906   2551478   2551011   2550519  
  5620.000000   2550022   2549539   2549077   2548630   2548180  
  5610.000000   2547711   2547211   2546685   2546141   2545590  
  5600.000000   2545031   2544451   2543823   2543124   2542333  
  5590.000000   2541452   2540492   2539476   2538421   2537340  
  5580.000000   2536230   2535094   2533926   2532738   2531540  
  5570.000000   2530347   2529165   2527995   2526826   2525649  
  5560.000000   2524455   2523244   2522016   2520775   2519514  
  5550.000000   2518228   2516908   2515561   2514201   2512858  
  5540.000000   2511561   2510329   2509162   2508038   2506925  
  5530.000000   2505791   2504620   2503415   2502193   2500975  
  5520.000000   2499771   2498579   2497385   2496171   2494932  
  5510.000000   2493671   2492404   2491148   2489910   2488689  
  5500.000000   2487476   2486266   2485062   2483881   2482737  
  5490.000000   2481642   2480574   2479500   2478361   2477112  
  5480.000000   2475721   2474191   2472543   2470819   2469047  
  5470.000000   2467245   2465404   2463515   2461556   2459529  
  5460.000000   2457433   2455286   2453089   2450849   2448557  
  5450.000000   2446219   2443841   2441447   2439064   2436717  
  5440.000000   2434412   2432141   2429889   2427642   2425406  
  5430.000000   2423193   2421028   2418913   2416845   2414792  
  5420.000000   2412738   2410672   2408639   2406705   2404969  
  5410.000000   2403494   2402321   2401411   2400708   2400125  
  5400.000000   2399618   2399154   2398764   2398470   2398323  
  5390.000000   2398324   2398486   2398781   2399219   2399793  
  5380.000000   2400544   2401475   2402615   2403926   2405394  
  5370.000000   2406956   2408614   2410343   2412199   2414194  
  5360.000000   2416402   2418822   2421511   2424453   2427717  
  5350.000000   2431306   2435315   2439751   2444689   2450084  
  5340.000000   2455970   2462270   2469029   2476197   2483855  
  5330.000000   2491964   2500597   2509684   2519277   2529301  
  5320.000000   2539844   2550887   2562584   2574949   2588141  
  5310.000000   2602134   2617027   2632730   2649300   2666642  
  5300.000000   2684834   2703823   2723731   2744545   2766401  
  5290.000000   2789272   2813234   2838177   2864065   2890708  
  5280.000000   2918034   2945902   2974343   3003355   3033062  
  5270.000000   3063490   3094651   3126396   3158506   3190702  
  5260.000000   3222735   3254473   3285878   3317035   3347991  
  5250.000000   3378800   3409322   3439411   3468755   3497192  
  5240.000000   3524504   3550746   3575904   3600190   3623637  
  5230.000000   3646414   3668439   3689751   3710158   3729654  
  5220.000000   3748075   3765502   3781881   3797392   3812042  
  5210.000000   3826018   3839268   3851875   3863681   3874690  
  5200.000000   3884734   3893875   3902046   3909401   3915926  
  5190.000000   3921766   3926860   3931281   3934927   3937865  
  5180.000000   3940039   3941566   3942434   3942758   3942491  
  5170.000000   3941692   3940279   3938304   3935730   3932665  
  5160.000000   3929128   3925240   3920996   3916456   3911561  
  5150.000000   3906329   3900705   3894732   3888400   3881781  
  5140.000000   3874884   3867775   3860454   3852975   3845342  
  5130.000000   3837611   3829788   3821915   3813980   3805995  
  5120.000000   3797926   3789780   3781538   3773228   3764857  
  5110.000000   3756466   3748064   3739676   3731299   3722942  
  5100.000000   3714598   3706274   3697960   3689658   3681351  
  5090.000000   3673030   3664676   3656290   3647872   3639444  
  5080.000000   3631024   3622639   3614299   3606011   3597765  
  5070.000000   3589551   3581351   3573157   3564959   3556759  
  5060.000000   3548552   3540341   3532123   3523900   3515674  
  5050.000000   3507448   3499231   3491028   3482850   3474701  
  5040.000000   3466591   3458522   3450508   3442551   3434667  
  5030.000000   3426860   3419151   3411544   3404062   3396712  
  5020.000000   3389520   3382486   3375630   3368939   3362419  
  5010.000000   3356043   3349817   3343715   3337760   3331947  
  5000.000000   3326325   3320904   3315748   3310864   3306304  
  4990.000000   3302058   3298160   3294579   3291342   3288411  
  4980.000000   3285816   3283525   3281583   3279970   3278741  
  4970.000000   3277878   3277436   3277383   3277757   3278505  
  4960.000000   3279655   3281151   3283026   3285240   3287841  
  4950.000000   3290800   3294166   3297899   3302032   3306514  
  4940.000000   3311365   3316533   3322044   3327850   3333977  
  4930.000000   3340377   3347070   3354011   3361220   3368664  
  4920.000000   3376373   3384320   3392527   3400960   3409623  
  4910.000000   3418474   3427516   3436721   3446104   3455657  
  4900.000000   3465396   3475309   3485391   3495610   3505939  
  4890.000000   3516338   3526775   3537215   3547626   3557981  
  4880.000000   3568248   3578407   3588428   3598301   3608003  
  4870.000000   3617530   3626860   3635994   3644911   3653625  
  4860.000000   3662129   3670454   3678597   3686591   3694420  
  4850.000000   3702097   3709589   3716902   3724005   3730921  
  4840.000000   3737636   3744184   3750556   3756778   3762827  
  4830.000000   3768715   3774415   3779935   3785249   3790371  
  4820.000000   3795278   3799985   3804476   3808775   3812880  
  4810.000000   3816825   3820614   3824278   3827809   3831222  
  4800.000000   3834499   3837651   3840665   3843563   3846342  
  4790.000000   3849029   3851614   3854114   3856511   3858813  
  4780.000000   3861004   3863097   3865079   3866965   3868734  
  4770.000000   3870394   3871920   3873322   3874579   3875706  
  4760.000000   3876684   3877521   3878185   3878675   3878954  
  4750.000000   3879033   3878897   3878579   3878079   3877426  
  4740.000000   3876599   3875598   3874379   3872935   3871241  
  4730.000000   3869325   3867206   3864946   3862577   3860146  
  4720.000000   3857657   3855120   3852512   3849832   3847063  
  4710.000000   3844221   3841313   3838366   3835390   3832406  
  4700.000000   3829413   3826416   3823405   3820379   3817328  
  4690.000000   3814257   3811164   3808060   3804951   3801846  
  4680.000000   3798746   3795642   3792517   3789344   3786100  
  4670.000000   3782766   3779345   3775856   3772342   3768846  
  4660.000000   3765423   3762106   3758923   3755880   3752986  
  4650.000000   3750239   3747648   3745216   3742955   3740859  
  4640.000000   3738925   3737125   3735441   3733843   3732320  
  4630.000000   3730851   3729439   3728072   3726751   3725463  
  4620.000000   3724208   3722976   3721773   3720597   3719453  
  4610.000000   3718330   3717218   3716093   3714940   3713753  
  4600.000000   3712544   3711342   3710188   3709123   3708174  
  4590.000000   3707350   3706637   3706009   3705430   3704870  
  4580.000000   3704299   3703698   3703047   3702335   3701546  
  4570.000000   3700675   3699717   3698677   3697561   3696378  
  4560.000000   3695133   3693831   3692468   3691048   3689576  
  4550.000000   3688063   3686526   3684977   3683428   3681878  
  4540.000000   3680330   3678778   3677240   3675728   3674283  
  4530.000000   3672926   3671704   3670620   3669712   3668966  
  4520.000000   3668425   3668082   3668001   3668185   3668709  
  4510.000000   3669564   3670821   3672458   3674554   3677098  
  4500.000000   3680191   3683834   3688136   3693079   3698750  
  4490.000000   3705106   3712211   3720014   3728578   3737852  
  4480.000000   3747892   3758634   3770108   3782225   3794989  
  4470.000000   3808300   3822150   3836447   3851179   3866262  
  4460.000000   3881679   3897350   3913243   3929277   3945403  
  4450.000000   3961540   3977630   3993610   4009432   4025074  
  4440.000000   4040507   4055747   4070771   4085604   4100204  
  4430.000000   4114588   4128686   4142514   4155983   4169115  
  4420.000000   4181801   4194056   4205746   4216868   4227269  
  4410.000000   4236933   4245707   4253582   4260423   4266247  
  4400.000000   4270957   4274609   4277159   4278712   4279287  
  4390.000000   4279028   4278004   4276378   4274241   4271750  
  4380.000000   4268996   4266115   4263199   4260368   4257728  
  4370.000000   4255396   4253489   4252109   4251362   4251306  
  4360.000000   4252004   4253449   4255639   4258504   4261987  
  4350.000000   4265981   4270414   4275195   4280286   4285651  
  4340.000000   4291293   4297191   4303314   4309560   4315777  
  4330.000000   4321734   4327178   4331861   4335600   4338320  
  4320.000000   4340076   4341056   4341517   4341777   4342086  
  4310.000000   4342662   4343575   4344852   4346392   4348111  
  4300.000000   4349865   4351576   4353144   4354533   4355691  
  4290.000000   4356607   4357258   4357648   4357776   4357667  
  4280.000000   4357340   4356840   4356196   4355471   4354701  
  4270.000000   4353954   4353255   4352639   4352073   4351511  
  4260.000000   4350839   4349946   4348697   4347010   4344839  
  4250.000000   4342219   4339231   4336012   4332700   4329435  
  4240.000000   4326315   4323411   4320743   4318316   4316101  
  4230.000000   4314068   4312173   4310366   4308593   4306794  
  4220.000000   4304923   4302937   4300829   4298602   4296302  
  4210.000000   4293974   4291692   4289510   4287493   4285676  
  4200.000000   4284098   4282763   4281679   4280814   4280150  
  4190.000000   4279626   4279213   4278845   4278520   4278201  
  4180.000000   4277936   4277730   4277675   4277801   4278226  
  4170.000000   4278995   4280239   4282003   4284412   4287485  
  4160.000000   4291304   4295827   4301079   4306965   4313483  
  4150.000000   4320532   4328125   4336183   4344745   4353753  
  4140.000000   4363261   4373221   4383691   4394631   4406096  
  4130.000000   4418039   4430496   4443399   4456757   4470492  
  4120.000000   4484607   4499042   4513820   4528911   4544357  
  4110.000000   4560139   4576291   4592779   4609607   4626717  
  4100.000000   4644090   4661667   4679436   4697376   4715504  
  4090.000000   4733835   4752393   4771191   4790217   4809449  
  4080.000000   4828836   4848338   4867891   4887466   4906999  
  4070.000000   4926461   4945771   4964896   4983747   5002315  
  4060.000000   5020536   5038442   5055983   5073200   5090021  
  4050.000000   5106479   5122484   5138086   5153207   5167915  
  4040.000000   5182110   5195829   5208913   5221357   5232980  
  4030.000000   5243793   5253646   5262580   5270472   5277349  
  4020.000000   5283052   5287619   5290987   5293250   5294359  
  4010.000000   5294517   5293847   5292437   5290074   5286888  
  4000.000000   5283289  
##END= 
