##TITLE= Sample 016 By ssteindl date Dienstag, November 20 2018
##JCAMP-DX= 4.24
##DATA TYPE= INFRARED SPECTRUM
##ORIGIN= Exported PE Spectrum Data File
##OWNER= Sandra Steindl
##DATE= 18/11/20
##TIME= 17:09:45.00
##SPECTROMETER/DATA SYSTEM= PERKIN-ELMER Frontier FT-IR/NIR IR
##INSTRUMENT PARAMETERS=
  APODIZATION=stark
  DETECTOR=INGAAS
##RESOLUTION= 16.000000
##DELTAX= -2.000000
##XUNITS= 1/CM
##YUNITS= A
##XFACTOR= 1.00
##YFACTOR= 0.00000011920928955078
##FIRSTX= 10000.00
##LASTX= 4000.00
##NPOINTS= 3001
##FIRSTY= 0.208511
##MAXY= 0.652243
##MINY= 0.174417
##XYDATA= (X++(Y..Y))
 10000.000000   1749114   1747786   1748315   1752618   1759822  
  9990.000000   1767026   1771759   1772718   1769328   1762003  
  9980.000000   1752604   1743967   1738752   1738743   1744445  
  9970.000000   1754980   1768155   1781154   1791241   1796512  
  9960.000000   1796323   1791415   1783579   1775091   1768032  
  9950.000000   1763711   1762396   1763328   1765110   1766240  
  9940.000000   1765579   1762758   1758104   1752583   1747309  
  9930.000000   1743272   1741008   1740488   1741239   1742425  
  9920.000000   1743217   1742895   1741128   1737984   1733955  
  9910.000000   1729851   1726604   1725055   1725722   1728631  
  9900.000000   1733313   1738908   1744427   1749028   1752195  
  9890.000000   1753850   1754207   1753672   1752629   1751365  
  9880.000000   1750072   1748867   1747853   1747054   1746347  
  9870.000000   1745395   1743662   1740589   1735840   1729546  
  9860.000000   1722417   1715572   1710220   1707185   1706628  
  9850.000000   1707974   1710190   1712233   1713453   1713884  
  9840.000000   1714101   1714988   1717237   1721103   1726286  
  9830.000000   1732065   1737651   1742329   1745711   1747524  
  9820.000000   1747618   1745752   1741726   1735536   1727574  
  9810.000000   1718806   1710560   1704334   1701234   1701773  
  9800.000000   1705613   1711842   1719158   1726304   1732197  
  9790.000000   1736059   1737372   1735852   1731533   1724791  
  9780.000000   1716513   1707945   1700533   1695447   1693220  
  9770.000000   1693507   1695196   1696833   1697155   1695580  
  9760.000000   1692345   1688356   1684716   1682255   1681213  
  9750.000000   1681255   1681776   1682291   1682751   1683547  
  9740.000000   1685264   1688286   1692450   1697014   1700854  
  9730.000000   1702896   1702550   1699856   1695524   1690521  
  9720.000000   1685804   1681918   1678937   1676557   1674325  
  9710.000000   1671956   1669451   1667165   1665628   1665384  
  9700.000000   1666751   1669750   1674013   1678904   1683585  
  9690.000000   1687256   1689304   1689509   1688099   1685719  
  9680.000000   1683272   1681603   1681252   1682170   1683732  
  9670.000000   1684845   1684310   1681217   1675260   1666932  
  9660.000000   1657395   1648248   1641038   1636937   1636367  
  9650.000000   1639003   1643798   1649354   1654245   1657420  
  9640.000000   1658426   1657430   1655095   1652222   1649532  
  9630.000000   1647313   1645516   1643696   1641411   1638336  
  9620.000000   1634513   1630340   1626410   1623370   1621652  
  9610.000000   1621477   1622794   1625426   1629085   1633430  
  9600.000000   1637993   1642191   1645348   1646862   1646431  
  9590.000000   1644202   1640843   1637312   1634554   1633075  
  9580.000000   1632727   1632729   1631994   1629608   1625236  
  9570.000000   1619327   1612944   1607392   1603690   1602220  
  9560.000000   1602631   1604044   1605497   1606277   1606201  
  9550.000000   1605512   1604689   1604143   1604062   1604397  
  9540.000000   1605021   1605864   1607029   1608712   1611084  
  9530.000000   1614100   1617412   1620449   1622577   1623393  
  9520.000000   1622855   1621319   1619363   1617556   1616247  
  9510.000000   1615489   1615063   1614644   1613892   1612612  
  9500.000000   1610729   1608351   1605655   1602916   1600392  
  9490.000000   1598341   1596926   1596183   1595965   1595933  
  9480.000000   1595659   1594720   1592881   1590155   1586815  
  9470.000000   1583289   1580009   1577292   1575281   1573983  
  9460.000000   1573359   1573372   1574011   1575202   1576754  
  9450.000000   1578291   1579341   1579432   1578296   1575950  
  9440.000000   1572760   1569304   1566251   1564122   1563202  
  9430.000000   1563476   1564702   1566536   1568581   1570494  
  9420.000000   1571930   1572641   1572486   1571549   1570165  
  9410.000000   1568839   1568114   1568292   1569328   1570708  
  9400.000000   1571634   1571245   1568990   1564881   1559545  
  9390.000000   1554084   1549653   1547149   1546877   1548611  
  9380.000000   1551693   1555349   1558898   1561895   1564127  
  9370.000000   1565491   1565903   1565218   1563345   1560284  
  9360.000000   1556299   1551827   1547475   1543774   1541089  
  9350.000000   1539499   1538827   1538785   1539077   1539553  
  9340.000000   1540170   1540982   1542036   1543327   1544792  
  9330.000000   1546323   1547840   1549293   1550682   1551989  
  9320.000000   1553137   1553981   1554344   1554135   1553406  
  9310.000000   1552385   1551381   1550673   1550373   1550351  
  9300.000000   1550251   1549598   1547980   1545222   1541496  
  9290.000000   1537285   1533239   1529991   1527965   1527300  
  9280.000000   1527819   1529155   1530865   1532606   1534180  
  9270.000000   1535542   1536705   1537667   1538375   1538703  
  9260.000000   1538548   1537834   1536634   1535089   1533410  
  9250.000000   1531741   1530117   1528461   1526646   1524632  
  9240.000000   1522528   1520631   1519313   1518918   1519567  
  9230.000000   1521102   1523065   1524882   1526054   1526321  
  9220.000000   1525750   1524638   1523409   1522366   1521609  
  9210.000000   1520984   1520229   1519101   1517521   1515638  
  9200.000000   1513761   1512269   1511409   1511287   1511805  
  9190.000000   1512780   1513967   1515143   1516092   1516613  
  9180.000000   1516502   1515576   1513742   1511059   1507798  
  9170.000000   1504353   1501156   1498492   1496433   1494796  
  9160.000000   1493250   1491479   1489333   1486920   1484560  
  9150.000000   1482665   1481590   1481488   1482300   1483760  
  9140.000000   1485545   1487328   1488884   1490065   1490824  
  9130.000000   1491172   1491218   1491140   1491210   1491700  
  9120.000000   1492819   1494567   1496691   1498730   1500141  
  9110.000000   1500528   1499751   1498089   1496111   1494527  
  9100.000000   1493894   1494452   1496060   1498207   1500191  
  9090.000000   1501312   1501109   1499395   1496279   1492127  
  9080.000000   1487517   1483142   1479674   1477696   1477572  
  9070.000000   1479378   1482788   1487177   1491706   1495592  
  9060.000000   1498239   1499424   1499290   1498249   1496811  
  9050.000000   1495363   1494095   1492921   1491617   1489909  
  9040.000000   1487637   1484807   1481599   1478325   1475325  
  9030.000000   1472911   1471253   1470394   1470219   1470520  
  9020.000000   1471058   1471629   1472153   1472668   1473346  
  9010.000000   1474364   1475829   1477650   1479549   1481101  
  9000.000000   1481911   1481765   1480767   1479339   1478084  
  8990.000000   1477578   1478131   1479685   1481822   1483907  
  8980.000000   1485313   1485625   1484779   1483019   1480769  
  8970.000000   1478485   1476510   1475048   1474136   1473761  
  8960.000000   1473889   1474516   1475609   1477101   1478845  
  8950.000000   1480613   1482125   1483102   1483358   1482783  
  8940.000000   1481392   1479274   1476642   1473769   1470996  
  8930.000000   1468693   1467195   1466760   1467442   1469125  
  8920.000000   1471483   1474123   1476611   1478632   1480013  
  8910.000000   1480740   1480924   1480697   1480204   1479499  
  8900.000000   1478593   1477424   1475942   1474106   1471950  
  8890.000000   1469589   1467235   1465185   1463731   1463115  
  8880.000000   1463410   1464511   1466126   1467882   1469453  
  8870.000000   1470666   1471576   1472393   1473372   1474648  
  8860.000000   1476142   1477545   1478461   1478571   1477851  
  8850.000000   1476587   1475317   1474585   1474734   1475727  
  8840.000000   1477157   1478404   1478906   1478398   1477039  
  8830.000000   1475359   1474046   1473703   1474618   1476715  
  8820.000000   1479623   1482834   1485896   1488507   1490549  
  8810.000000   1492021   1492948   1493345   1493233   1492700  
  8800.000000   1491972   1491364   1491240   1491819   1493094  
  8790.000000   1494765   1496314   1497196   1497022   1495777  
  8780.000000   1493831   1491889   1490739   1491018   1492986  
  8770.000000   1496455   1500834   1505298   1509027   1511391  
  8760.000000   1512133   1511362   1509514   1507184   1504966  
  8750.000000   1503321   1502500   1502543   1503330   1504655  
  8740.000000   1506305   1508109   1509937   1511690   1513253  
  8730.000000   1514495   1515278   1515506   1515197   1514499  
  8720.000000   1513713   1513199   1513317   1514284   1516118  
  8710.000000   1518601   1521340   1523868   1525790   1526879  
  8700.000000   1527166   1526885   1526442   1526253   1526666  
  8690.000000   1527823   1529658   1531925   1534301   1536511  
  8680.000000   1538417   1540083   1541731   1543674   1546172  
  8670.000000   1549326   1553016   1556907   1560549   1563491  
  8660.000000   1565427   1566276   1566192   1565529   1564716  
  8650.000000   1564175   1564208   1564973   1566459   1568508  
  8640.000000   1570856   1573176   1575141   1576463   1576971  
  8630.000000   1576645   1575676   1574416   1573329   1572854  
  8620.000000   1573316   1574837   1577328   1580537   1584127  
  8610.000000   1587790   1591309   1594585   1597600   1600359  
  8600.000000   1602842   1604977   1606667   1607837   1608500  
  8590.000000   1608773   1608866   1609044   1609530   1610480  
  8580.000000   1611886   1613628   1615457   1617109   1618346  
  8570.000000   1619022   1619110   1618696   1617959   1617110  
  8560.000000   1616339   1615778   1615485   1615474   1615728  
  8550.000000   1616266   1617136   1618424   1620186   1622413  
  8540.000000   1624981   1627639   1630063   1631910   1632964  
  8530.000000   1633145   1632595   1631579   1630467   1629587  
  8520.000000   1629182   1629343   1630046   1631191   1632657  
  8510.000000   1634355   1636228   1638264   1640454   1642787  
  8500.000000   1645227   1647715   1650189   1652579   1654832  
  8490.000000   1656889   1658712   1660269   1661562   1662636  
  8480.000000   1663577   1664501   1665503   1666643   1667900  
  8470.000000   1669197   1670402   1671402   1672134   1672627  
  8460.000000   1672986   1673346   1673819   1674439   1675148  
  8450.000000   1675824   1676331   1676604   1676682   1676733  
  8440.000000   1676985   1677674   1678948   1680812   1683107  
  8430.000000   1685556   1687850   1689718   1690997   1691645  
  8420.000000   1691750   1691471   1690998   1690507   1690156  
  8410.000000   1690074   1690357   1691061   1692171   1693610  
  8400.000000   1695216   1696801   1698177   1699232   1699962  
  8390.000000   1700467   1700905   1701404   1702004   1702622  
  8380.000000   1703096   1703255   1703027   1702500   1701917  
  8370.000000   1701610   1701844   1702741   1704178   1705866  
  8360.000000   1707419   1708529   1709062   1709109   1708914  
  8350.000000   1708758   1708812   1709070   1709345   1709373  
  8340.000000   1708942   1708000   1706699   1705339   1704246  
  8330.000000   1703643   1703548   1703793   1704083   1704146  
  8320.000000   1703833   1703188   1702424   1701845   1701726  
  8310.000000   1702196   1703199   1704502   1705782   1706706  
  8300.000000   1707042   1706698   1705766   1704482   1703163  
  8290.000000   1702131   1701625   1701759   1702476   1703577  
  8280.000000   1704759   1705728   1706266   1706316   1705968  
  8270.000000   1705436   1704951   1704685   1704677   1704817  
  8260.000000   1704906   1704734   1704179   1703253   1702086  
  8250.000000   1700877   1699793   1698924   1698238   1697640  
  8240.000000   1697017   1696322   1695592   1694942   1694496  
  8230.000000   1694331   1694414   1694617   1694748   1694636  
  8220.000000   1694191   1693430   1692459   1691425   1690439  
  8210.000000   1689554   1688742   1687944   1687099   1686195  
  8200.000000   1685259   1684345   1683481   1682653   1681782  
  8190.000000   1680766   1679517   1678015   1676321   1674574  
  8180.000000   1672933   1671534   1670443   1669643   1669047  
  8170.000000   1668530   1667963   1667234   1666265   1665010  
  8160.000000   1663467   1661678   1659741   1657805   1656046  
  8150.000000   1654641   1653704   1653258   1653197   1653328  
  8140.000000   1653407   1653217   1652621   1651591   1650200  
  8130.000000   1648576   1646860   1645148   1643487   1641865  
  8120.000000   1640250   1638614   1636948   1635285   1633673  
  8110.000000   1632192   1630907   1629890   1629169   1628738  
  8100.000000   1628525   1628399   1628181   1627673   1626718  
  8090.000000   1625234   1623265   1620953   1618513   1616162  
  8080.000000   1614060   1612275   1610779   1609487   1608300  
  8070.000000   1607158   1606048   1605005   1604077   1603296  
  8060.000000   1602657   1602121   1601636   1601156   1600660  
  8050.000000   1600149   1599641   1599144   1598654   1598146  
  8040.000000   1597594   1596972   1596271   1595478   1594587  
  8030.000000   1593576   1592427   1591130   1589710   1588233  
  8020.000000   1586804   1585545   1584558   1583900   1583561  
  8010.000000   1583469   1583515   1583574   1583544   1583343  
  8000.000000   1582930   1582286   1581424   1580384   1579245  
  7990.000000   1578127   1577175   1576539   1576331   1576594  
  7980.000000   1577275   1578232   1579253   1580105   1580576  
  7970.000000   1580520   1579883   1578701   1577101   1575264  
  7960.000000   1573405   1571721   1570361   1569396   1568800  
  7950.000000   1568475   1568272   1568054   1567724   1567265  
  7940.000000   1566719   1566168   1565683   1565287   1564950  
  7930.000000   1564593   1564148   1563569   1562884   1562160  
  7920.000000   1561499   1560973   1560611   1560384   1560230  
  7910.000000   1560088   1559930   1559780   1559696   1559743  
  7900.000000   1559960   1560332   1560796   1561254   1561601  
  7890.000000   1561757   1561679   1561368   1560866   1560239  
  7880.000000   1559578   1558977   1558523   1558272   1558232  
  7870.000000   1558344   1558493   1558529   1558315   1557780  
  7860.000000   1556944   1555940   1554963   1554234   1553922  
  7850.000000   1554103   1554739   1555693   1556772   1557769  
  7840.000000   1558508   1558873   1558813   1558348   1557558  
  7830.000000   1556576   1555565   1554692   1554088   1553820  
  7820.000000   1553854   1554080   1554318   1554391   1554161  
  7810.000000   1553586   1552705   1551632   1550494   1549390  
  7800.000000   1548363   1547393   1546425   1545403   1544302  
  7790.000000   1543135   1541947   1540793   1539712   1538730  
  7780.000000   1537853   1537098   1536487   1536060   1535841  
  7770.000000   1535829   1535973   1536176   1536321   1536294  
  7760.000000   1536027   1535499   1534742   1533810   1532759  
  7750.000000   1531628   1530450   1529252   1528083   1527008  
  7740.000000   1526094   1525386   1524866   1524458   1524036  
  7730.000000   1523486   1522744   1521847   1520923   1520152  
  7720.000000   1519696   1519621   1519869   1520254   1520538  
  7710.000000   1520495   1520006   1519083   1517864   1516566  
  7700.000000   1515402   1514530   1514009   1513806   1513818  
  7690.000000   1513916   1513978   1513910   1513655   1513188  
  7680.000000   1512520   1511685   1510750   1509788   1508880  
  7670.000000   1508077   1507409   1506862   1506410   1506028  
  7660.000000   1505717   1505510   1505454   1505586   1505901  
  7650.000000   1506338   1506802   1507189   1507440   1507560  
  7640.000000   1507628   1507757   1508044   1508528   1509161  
  7630.000000   1509823   1510371   1510687   1510725   1510517  
  7620.000000   1510148   1509712   1509271   1508841   1508402  
  7610.000000   1507931   1507437   1506978   1506647   1506540  
  7600.000000   1506715   1507168   1507834   1508608   1509389  
  7590.000000   1510099   1510715   1511244   1511720   1512166  
  7580.000000   1512597   1513011   1513415   1513829   1514300  
  7570.000000   1514870   1515572   1516385   1517249   1518060  
  7560.000000   1518723   1519170   1519407   1519496   1519560  
  7550.000000   1519727   1520112   1520774   1521718   1522894  
  7540.000000   1524242   1525693   1527205   1528751   1530319  
  7530.000000   1531900   1533481   1535040   1536559   1538025  
  7520.000000   1539458   1540882   1542344   1543863   1545437  
  7510.000000   1547011   1548505   1549820   1550885   1551686  
  7500.000000   1552294   1552852   1553557   1554594   1556092  
  7490.000000   1558077   1560472   1563110   1565792   1568330  
  7480.000000   1570621   1572647   1574492   1576281   1578164  
  7470.000000   1580249   1582597   1585192   1587981   1590869  
  7460.000000   1593772   1596614   1599358   1601996   1604557  
  7450.000000   1607085   1609636   1612258   1614987   1617825  
  7440.000000   1620753   1623722   1626681   1629580   1632391  
  7430.000000   1635118   1637791   1640468   1643212   1646084  
  7420.000000   1649122   1652336   1655699   1659149   1662597  
  7410.000000   1665938   1669076   1671938   1674498   1676781  
  7400.000000   1678865   1680858   1682880   1685030   1687372  
  7390.000000   1689924   1692663   1695537   1698486   1701456  
  7380.000000   1704404   1707309   1710162   1712977   1715776  
  7370.000000   1718601   1721493   1724494   1727623   1730871  
  7360.000000   1734195   1737517   1740742   1743777   1746555  
  7350.000000   1749044   1751256   1753240   1755073   1756840  
  7340.000000   1758614   1760458   1762413   1764518   1766789  
  7330.000000   1769248   1771889   1774708   1777663   1780708  
  7320.000000   1783769   1786783   1789682   1792422   1794970  
  7310.000000   1797319   1799472   1801444   1803243   1804880  
  7300.000000   1806352   1807669   1808843   1809910   1810910  
  7290.000000   1811897   1812896   1813918   1814930   1815895  
  7280.000000   1816768   1817543   1818247   1818956   1819756  
  7270.000000   1820722   1821880   1823195   1824575   1825901  
  7260.000000   1827073   1828036   1828809   1829466   1830124  
  7250.000000   1830890   1831851   1833031   1834418   1835951  
  7240.000000   1837572   1839214   1840851   1842471   1844107  
  7230.000000   1845801   1847630   1849650   1851923   1854458  
  7220.000000   1857240   1860193   1863236   1866268   1869239  
  7210.000000   1872128   1874993   1877911   1880992   1884297  
  7200.000000   1887862   1891647   1895599   1899634   1903713  
  7190.000000   1907803   1911934   1916126   1920428   1924847  
  7180.000000   1929393   1934036   1938757   1943515   1948300  
  7170.000000   1953088   1957893   1962720   1967613   1972595  
  7160.000000   1977718   1982986   1988406   1993934   1999538  
  7150.000000   2005171   2010839   2016571   2022458   2028578  
  7140.000000   2035011   2041757   2048779   2055970   2063251  
  7130.000000   2070543   2077858   2085216   2092688   2100285  
  7120.000000   2108001   2115747   2123452   2131047   2138561  
  7110.000000   2146074   2153738   2161680   2169991   2178652  
  7100.000000   2187585   2196646   2205723   2214732   2223680  
  7090.000000   2232601   2241565   2250605   2259734   2268924  
  7080.000000   2278156   2287413   2296719   2306104   2315600  
  7070.000000   2325208   2334897   2344611   2354295   2363911  
  7060.000000   2373456   2382948   2392414   2401870   2411312  
  7050.000000   2420720   2430067   2439339   2448529   2457651  
  7040.000000   2466710   2475722   2484690   2493626   2502542  
  7030.000000   2511461   2520382   2529292   2538123   2546791  
  7020.000000   2555197   2563294   2571088   2578677   2586196  
  7010.000000   2593804   2601586   2609554   2617607   2625598  
  7000.000000   2633350   2640758   2647775   2654462   2660906  
  6990.000000   2667236   2673530   2679851   2686191   2692537  
  6980.000000   2698836   2705052   2711116   2716980   2722571  
  6970.000000   2727859   2732815   2737481   2741909   2746206  
  6960.000000   2750445   2754697   2758966   2763236   2767440  
  6950.000000   2771527   2775434   2779143   2782632   2785922  
  6940.000000   2789026   2791988   2794839   2797629   2800384  
  6930.000000   2803129   2805850   2808533   2811144   2813678  
  6920.000000   2816140   2818578   2821032   2823543   2826093  
  6910.000000   2828634   2831069   2833309   2835282   2836985  
  6900.000000   2838462   2839807   2841115   2842461   2843869  
  6890.000000   2845328   2846792   2848226   2849603   2850934  
  6880.000000   2852241   2853559   2854904   2856278   2857656  
  6870.000000   2859005   2860289   2861481   2862573   2863578  
  6860.000000   2864529   2865472   2866455   2867516   2868664  
  6850.000000   2869887   2871141   2872377   2873552   2874651  
  6840.000000   2875685   2876695   2877718   2878782   2879877  
  6830.000000   2880967   2881999   2882925   2883718   2884387  
  6820.000000   2884955   2885456   2885908   2886320   2886680  
  6810.000000   2886989   2887249   2887489   2887739   2888031  
  6800.000000   2888371   2888750   2889128   2889469   2889733  
  6790.000000   2889900   2889954   2889895   2889719   2889435  
  6780.000000   2889054   2888614   2888159   2887745   2887406  
  6770.000000   2887158   2886968   2886791   2886566   2886257  
  6760.000000   2885849   2885361   2884813   2884220   2883573  
  6750.000000   2882849   2882031   2881128   2880184   2879276  
  6740.000000   2878472   2877820   2877305   2876875   2876441  
  6730.000000   2875935   2875323   2874622   2873874   2873126  
  6720.000000   2872386   2871625   2870780   2869794   2868637  
  6710.000000   2867331   2865930   2864506   2863107   2861753  
  6700.000000   2860425   2859103   2857766   2856432   2855127  
  6690.000000   2853889   2852724   2851614   2850508   2849360  
  6680.000000   2848130   2846819   2845446   2844041   2842613  
  6670.000000   2841145   2839596   2837930   2836131   2834228  
  6660.000000   2832274   2830341   2828471   2826678   2824930  
  6650.000000   2823187   2821408   2819590   2817754   2815941  
  6640.000000   2814176   2812463   2810764   2809032   2807219  
  6630.000000   2805310   2803319   2801290   2799268   2797287  
  6620.000000   2795345   2793421   2791474   2789469   2787381  
  6610.000000   2785203   2782945   2780624   2778268   2775911  
  6600.000000   2773595   2771367   2769261   2767292   2765445  
  6590.000000   2763677   2761932   2760159   2758331   2756455  
  6580.000000   2754562   2752690   2750872   2749114   2747408  
  6570.000000   2745735   2744080   2742441   2740823   2739228  
  6560.000000   2737647   2736050   2734403   2732676   2730870  
  6550.000000   2729015   2727170   2725401   2723759   2722262  
  6540.000000   2720896   2719624   2718407   2717211   2716027  
  6530.000000   2714849   2713685   2712530   2711382   2710234  
  6520.000000   2709090   2707964   2706879   2705850   2704886  
  6510.000000   2703973   2703088   2702207   2701314   2700409  
  6500.000000   2699504   2698613   2697741   2696879   2696009  
  6490.000000   2695114   2694186   2693235   2692277   2691327  
  6480.000000   2690385   2689436   2688457   2687428   2686347  
  6470.000000   2685231   2684112   2683017   2681961   2680934  
  6460.000000   2679917   2678891   2677851   2676817   2675820  
  6450.000000   2674892   2674043   2673257   2672498   2671724  
  6440.000000   2670910   2670053   2669177   2668310   2667475  
  6430.000000   2666672   2665885   2665088   2664268   2663431  
  6420.000000   2662610   2661847   2661181   2660628   2660183  
  6410.000000   2659818   2659501   2659199   2658886   2658538  
  6400.000000   2658136   2657658   2657089   2656428   2655700  
  6390.000000   2654947   2654222   2653568   2653000   2652501  
  6380.000000   2652024   2651517   2650941   2650292   2649599  
  6370.000000   2648911   2648271   2647698   2647179   2646669  
  6360.000000   2646115   2645479   2644747   2643942   2643109  
  6350.000000   2642305   2641575   2640946   2640418   2639974  
  6340.000000   2639575   2639177   2638735   2638213   2637588  
  6330.000000   2636856   2636025   2635119   2634158   2633167  
  6320.000000   2632151   2631119   2630067   2629003   2627927  
  6310.000000   2626852   2625773   2624683   2623548   2622342  
  6300.000000   2621028   2619598   2618049   2616406   2614681  
  6290.000000   2612892   2611025   2609067   2606997   2604822  
  6280.000000   2602560   2600268   2597988   2595764   2593594  
  6270.000000   2591452   2589279   2587029   2584659   2582171  
  6260.000000   2579586   2576949   2574299   2571668   2569065  
  6250.000000   2566497   2563952   2561430   2558919   2556413  
  6240.000000   2553892   2551341   2548738   2546081   2543370  
  6230.000000   2540622   2537848   2535054   2532231   2529370  
  6220.000000   2526464   2523525   2520587   2517696   2514896  
  6210.000000   2512209   2509625   2507108   2504611   2502100  
  6200.000000   2499564   2497026   2494519   2492071   2489689  
  6190.000000   2487348   2485008   2482626   2480185   2477691  
  6180.000000   2475174   2472670   2470207   2467791   2465413  
  6170.000000   2463058   2460717   2458393   2456098   2453840  
  6160.000000   2451617   2449412   2447205   2444981   2442745  
  6150.000000   2440521   2438348   2436254   2434251   2432319  
  6140.000000   2430423   2428522   2426593   2424631   2422660  
  6130.000000   2420704   2418789   2416916   2415083   2413274  
  6120.000000   2411493   2409751   2408080   2406504   2405044  
  6110.000000   2403688   2402416   2401187   2399973   2398754  
  6100.000000   2397532   2396313   2395116   2393944   2392807  
  6090.000000   2391707   2390662   2389684   2388798   2388006  
  6080.000000   2387305   2386662   2386045   2385417   2384774  
  6070.000000   2384128   2383523   2382997   2382588   2382297  
  6060.000000   2382116   2382011   2381966   2381968   2382039  
  6050.000000   2382202   2382491   2382914   2383475   2384148  
  6040.000000   2384912   2385738   2386623   2387559   2388557  
  6030.000000   2389613   2390731   2391897   2393107   2394348  
  6020.000000   2395620   2396912   2398219   2399521   2400803  
  6010.000000   2402043   2403236   2404384   2405508   2406629  
  6000.000000   2407776   2408963   2410203   2411497   2412846  
  5990.000000   2414246   2415698   2417191   2418723   2420276  
  5980.000000   2421850   2423439   2425064   2426746   2428521  
  5970.000000   2430409   2432427   2434559   2436786   2439072  
  5960.000000   2441396   2443736   2446091   2448455   2450834  
  5950.000000   2453218   2455605   2457988   2460378   2462789  
  5940.000000   2465248   2467778   2470397   2473104   2475887  
  5930.000000   2478723   2481591   2484472   2487353   2490219  
  5920.000000   2493056   2495839   2498548   2501162   2503681  
  5910.000000   2506113   2508483   2510813   2513123   2515422  
  5900.000000   2517710   2519991   2522274   2524584   2526952  
  5890.000000   2529415   2531992   2534691   2537496   2540380  
  5880.000000   2543307   2546239   2549139   2551966   2554685  
  5870.000000   2557254   2559650   2561864   2563924   2565877  
  5860.000000   2567795   2569742   2571770   2573897   2576119  
  5850.000000   2578418   2580776   2583190   2585672   2588242  
  5840.000000   2590915   2593694   2596560   2599483   2602425  
  5830.000000   2605358   2608259   2611118   2613925   2616672  
  5820.000000   2619344   2621935   2624436   2626855   2629194  
  5810.000000   2631465   2633655   2635754   2637722   2639547  
  5800.000000   2641202   2642711   2644083   2645367   2646571  
  5790.000000   2647716   2648766   2649697   2650441   2650958  
  5780.000000   2651184   2651090   2650634   2649814   2648631  
  5770.000000   2647134   2645392   2643510   2641590   2639733  
  5760.000000   2638000   2636425   2635002   2633720   2632561  
  5750.000000   2631529   2630636   2629894   2629309   2628861  
  5740.000000   2628519   2628238   2627993   2627767   2627574  
  5730.000000   2627426   2627351   2627345   2627410   2627519  
  5720.000000   2627665   2627833   2628036   2628278   2628575  
  5710.000000   2628920   2629314   2629745   2630216   2630734  
  5700.000000   2631318   2631981   2632722   2633524   2634352  
  5690.000000   2635172   2635958   2636712   2637451   2638203  
  5680.000000   2638981   2639779   2640557   2641266   2641843  
  5670.000000   2642250   2642459   2642475   2642306   2641974  
  5660.000000   2641488   2640870   2640134   2639314   2638442  
  5650.000000   2637559   2636687   2635844   2635018   2634200  
  5640.000000   2633370   2632530   2631682   2630845   2630029  
  5630.000000   2629241   2628475   2627726   2626988   2626267  
  5620.000000   2625574   2624925   2624323   2623758   2623207  
  5610.000000   2622642   2622040   2621393   2620707   2620003  
  5600.000000   2619293   2618587   2617874   2617143   2616374  
  5590.000000   2615564   2614709   2613820   2612899   2611950  
  5580.000000   2610961   2609928   2608843   2607717   2606563  
  5570.000000   2605402   2604242   2603084   2601914   2600716  
  5560.000000   2599474   2598186   2596856   2595502   2594134  
  5550.000000   2592764   2591394   2590027   2588672   2587340  
  5540.000000   2586046   2584800   2583597   2582421   2581246  
  5530.000000   2580053   2578832   2577596   2576367   2575173  
  5520.000000   2574029   2572935   2571873   2570819   2569748  
  5510.000000   2568648   2567514   2566350   2565154   2563924  
  5500.000000   2562652   2561340   2559995   2558644   2557310  
  5490.000000   2556010   2554735   2553459   2552131   2550715  
  5480.000000   2549181   2547541   2545820   2544064   2542301  
  5470.000000   2540548   2538787   2536992   2535129   2533182  
  5460.000000   2531142   2529017   2526811   2524531   2522173  
  5450.000000   2519749   2517278   2514796   2512347   2509971  
  5440.000000   2507684   2505481   2503336   2501219   2499111  
  5430.000000   2497008   2494924   2492862   2490827   2488796  
  5420.000000   2486762   2484713   2482690   2480747   2478975  
  5410.000000   2477435   2476170   2475149   2474323   2473610  
  5400.000000   2472967   2472361   2471822   2471375   2471074  
  5390.000000   2470925   2470942   2471096   2471393   2471827  
  5380.000000   2472445   2473262   2474323   2475604   2477098  
  5370.000000   2478736   2480504   2482354   2484320   2486399  
  5360.000000   2488655   2491087   2493750   2496629   2499784  
  5350.000000   2503215   2507011   2511184   2515821   2520902  
  5340.000000   2526479   2532492   2538986   2545903   2553305  
  5330.000000   2561142   2569477   2578249   2587513   2597213  
  5320.000000   2607438   2618171   2629548   2641568   2654371  
  5310.000000   2667921   2682311   2697458   2713428   2730137  
  5300.000000   2747669   2765975   2785178   2805261   2826360  
  5290.000000   2848448   2871611   2895749   2920842   2946714  
  5280.000000   2973305   3000480   3028270   3056666   3085787  
  5270.000000   3115654   3146285   3177536   3209206   3241029  
  5260.000000   3272773   3304303   3335582   3366678   3397636  
  5250.000000   3428495   3459125   3489380   3518965   3547720  
  5240.000000   3575441   3602176   3627915   3652861   3677048  
  5230.000000   3700634   3723534   3745769   3767137   3787611  
  5220.000000   3807014   3825417   3842767   3859252   3874894  
  5210.000000   3889892   3904210   3917930   3930886   3943067  
  5200.000000   3954285   3964582   3973882   3982331   3989929  
  5190.000000   3996827   4002983   4008482   4013229   4017288  
  5180.000000   4020592   4023249   4025238   4026680   4027545  
  5170.000000   4027920   4027752   4027118   4025982   4024431  
  5160.000000   4022439   4020071   4017266   4014049   4010348  
  5150.000000   4006202   4001588   3996598   3991253   3985643  
  5140.000000   3979770   3973680   3967340   3960781   3953985  
  5130.000000   3947004   3939849   3932576   3925192   3917733  
  5120.000000   3910189   3902587   3894924   3887232   3879512  
  5110.000000   3871782   3864026   3856245   3848418   3840555  
  5100.000000   3832659   3824757   3816861   3808982   3801103  
  5090.000000   3793203   3785252   3777238   3769160   3761047  
  5080.000000   3752930   3744844   3736803   3728811   3720847  
  5070.000000   3712892   3704925   3696945   3688957   3680977  
  5060.000000   3673020   3665096   3657204   3649340   3641494  
  5050.000000   3633659   3625832   3618013   3610205   3602405  
  5040.000000   3594619   3586844   3579089   3571358   3563666  
  5030.000000   3556019   3548439   3540935   3533529   3526234  
  5020.000000   3519076   3512062   3505212   3498515   3491973  
  5010.000000   3485558   3479271   3473087   3467035   3461119  
  5000.000000   3455396   3449886   3444650   3439686   3435032  
  4990.000000   3430657   3426582   3422766   3419237   3415968  
  4980.000000   3413004   3410329   3408000   3406002   3404394  
  4970.000000   3403158   3402345   3401926   3401940   3402340  
  4960.000000   3403158   3404343   3405930   3407883   3410250  
  4950.000000   3412997   3416171   3419724   3423683   3427991  
  4940.000000   3432670   3437674   3443040   3448736   3454805  
  4930.000000   3461205   3467960   3475011   3482366   3489966  
  4920.000000   3497825   3505904   3514229   3522773   3531562  
  4910.000000   3540571   3549820   3559290   3568995   3578911  
  4900.000000   3589036   3599332   3609774   3620317   3630932  
  4890.000000   3641587   3652267   3662959   3673646   3684308  
  4880.000000   3694908   3705410   3715763   3725936   3735890  
  4870.000000   3745619   3755101   3764347   3773342   3782106  
  4860.000000   3790625   3798928   3807007   3814895   3822579  
  4850.000000   3830086   3837389   3844506   3851406   3858112  
  4840.000000   3864606   3870923   3877054   3883035   3888853  
  4830.000000   3894528   3900033   3905373   3910515   3915464  
  4820.000000   3920193   3924718   3929032   3933166   3937125  
  4810.000000   3940948   3944635   3948214   3951672   3955019  
  4800.000000   3958238   3961337   3964308   3967174   3969937  
  4790.000000   3972628   3975251   3977832   3980365   3982866  
  4780.000000   3985323   3987741   3990099   3992392   3994588  
  4770.000000   3996680   3998636   4000457   4002122   4003644  
  4760.000000   4005009   4006231   4007291   4008197   4008924  
  4750.000000   4009479   4009840   4010022   4010009   4009818  
  4740.000000   4009434   4008872   4008114   4007176   4006043  
  4730.000000   4004733   4003237   4001575   3999743   3997766  
  4720.000000   3995649   3993422   3991098   3988709   3986263  
  4710.000000   3983783   3981267   3978729   3976165   3973588  
  4700.000000   3970997   3968405   3965812   3963226   3960645  
  4690.000000   3958074   3955516   3952981   3950474   3948001  
  4680.000000   3945554   3943112   3940644   3938110   3935475  
  4670.000000   3932714   3929832   3926847   3923807   3920764  
  4660.000000   3917778   3914894   3912155   3909580   3907188  
  4650.000000   3904975   3902946   3901091   3899406   3897876  
  4640.000000   3896497   3895252   3894138   3893140   3892256  
  4630.000000   3891468   3890768   3890128   3889533   3888952  
  4620.000000   3888367   3887752   3887098   3886388   3885615  
  4610.000000   3884770   3883853   3882866   3881824   3880752  
  4600.000000   3879681   3878648   3877682   3876803   3876012  
  4590.000000   3875297   3874628   3873974   3873299   3872576  
  4580.000000   3871785   3870922   3869989   3869002   3867980  
  4570.000000   3866944   3865910   3864890   3863876   3862856  
  4560.000000   3861800   3860682   3859469   3858147   3856705  
  4550.000000   3855151   3853498   3851763   3849968   3848131  
  4540.000000   3846279   3844434   3842631   3840895   3839267  
  4530.000000   3837759   3836399   3835176   3834112   3833185  
  4520.000000   3832428   3831831   3831447   3831271   3831371  
  4510.000000   3831740   3832452   3833503   3834987   3836906  
  4500.000000   3839368   3842371   3846008   3850248   3855163  
  4490.000000   3860698   3866917   3873771   3881333   3889564  
  4480.000000   3898543   3908229   3918683   3929852   3941772  
  4470.000000   3954369   3967649   3981511   3995924   4010770  
  4460.000000   4025995   4041481   4057176   4072984   4088864  
  4450.000000   4104745   4120588   4136343   4151978   4167468  
  4440.000000   4182789   4197946   4212915   4227714   4242305  
  4430.000000   4256709   4270868   4284805   4298439   4311787  
  4420.000000   4324742   4337305   4349343   4360842   4371658  
  4410.000000   4381776   4391056   4399492   4406953   4413448  
  4400.000000   4418874   4423274   4426606   4428970   4430400  
  4390.000000   4431048   4430998   4430417   4429399   4428093  
  4380.000000   4426583   4424994   4423410   4421949   4420710  
  4370.000000   4419808   4419348   4419418   4420100   4421427  
  4360.000000   4423432   4426085   4429363   4433187   4437494  
  4350.000000   4442193   4447213   4452495   4458007   4463734  
  4340.000000   4469675   4475816   4482100   4488403   4494527  
  4330.000000   4500201   4505122   4509012   4511671   4513047  
  4320.000000   4513239   4512515   4511221   4509766   4508478  
  4310.000000   4507627   4507313   4507569   4508294   4509395  
  4300.000000   4510729   4512216   4513759   4515312   4516812  
  4290.000000   4518209   4519452   4520504   4521343   4521981  
  4280.000000   4522440   4522774   4523025   4523257   4523496  
  4270.000000   4523793   4524140   4524536   4524904   4525156  
  4260.000000   4525129   4524670   4523609   4521847   4519346  
  4250.000000   4516181   4512493   4508500   4504419   4500463  
  4240.000000   4496767   4493423   4490436   4487783   4485393  
  4230.000000   4483203   4481133   4479118   4477087   4474975  
  4220.000000   4472736   4470330   4467766   4465067   4462310  
  4210.000000   4459568   4456946   4454507   4452322   4450403  
  4200.000000   4448767   4447381   4446234   4445277   4444498  
  4190.000000   4443849   4443334   4442914   4442616   4442419  
  4180.000000   4442384   4442508   4442875   4443494   4444461  
  4170.000000   4445795   4447599   4449894   4452779   4456256  
  4160.000000   4460393   4465141   4470526   4476456   4482936  
  4150.000000   4489876   4497297   4505134   4513436   4522164  
  4140.000000   4531390   4541090   4551347   4562144   4573558  
  4130.000000   4585550   4598158   4611302   4624971   4639057  
  4120.000000   4653537   4668324   4683430   4698818   4714542  
  4110.000000   4730601   4747052   4763884   4781116   4798695  
  4100.000000   4816595   4834737   4853082   4871574   4890199  
  4090.000000   4908945   4927825   4946854   4966042   4985400  
  4080.000000   5004916   5024590   5044389   5064300   5084259  
  4070.000000   5104229   5124106   5143840   5163323   5182536  
  4060.000000   5201400   5219936   5238072   5255829   5273106  
  4050.000000   5289916   5306152   5321867   5336987   5351600  
  4040.000000   5365621   5379102   5391891   5403987   5415206  
  4030.000000   5425565   5434916   5443311   5450637   5456940  
  4020.000000   5462074   5466093   5468943   5470729   5471406  
  4010.000000   5471175   5470145   5468400   5465729   5462264  
  4000.000000   5458398  
##END= 
