##TITLE= Sample 030 By ssteindl date Dienstag, November 20 2018
##JCAMP-DX= 4.24
##DATA TYPE= INFRARED SPECTRUM
##ORIGIN= Exported PE Spectrum Data File
##OWNER= Sandra Steindl
##DATE= 18/11/20
##TIME= 17:28:19.00
##SPECTROMETER/DATA SYSTEM= PERKIN-ELMER Frontier FT-IR/NIR IR
##INSTRUMENT PARAMETERS=
  APODIZATION=stark
  DETECTOR=INGAAS
##RESOLUTION= 16.000000
##DELTAX= -2.000000
##XUNITS= 1/CM
##YUNITS= A
##XFACTOR= 1.00
##YFACTOR= 0.00000011920928955078
##FIRSTX= 10000.00
##LASTX= 4000.00
##NPOINTS= 3001
##FIRSTY= 0.261897
##MAXY= 0.612188
##MINY= 0.210260
##XYDATA= (X++(Y..Y))
 10000.000000   2196950   2197627   2198468   2199661   2200927  
  9990.000000   2201719   2201435   2199787   2196864   2193198  
  9980.000000   2189573   2186634   2184517   2182662   2180073  
  9970.000000   2175687   2168943   2160058   2150039   2140362  
  9960.000000   2132422   2127170   2124841   2125117   2127364  
  9950.000000   2130969   2135515   2140709   2146236   2151515  
  9940.000000   2155722   2157922   2157475   2154311   2149131  
  9930.000000   2143173   2137892   2134418   2133291   2134291  
  9920.000000   2136655   2139342   2141392   2142132   2141239  
  9910.000000   2138697   2134703   2129661   2124189   2119159  
  9900.000000   2115602   2114494   2116461   2121505   2128905  
  9890.000000   2137371   2145335   2151435   2154805   2155318  
  9880.000000   2153492   2150276   2146735   2143744   2141824  
  9870.000000   2141079   2141247   2141827   2142161   2141614  
  9860.000000   2139651   2136039   2130903   2124802   2118568  
  9850.000000   2113088   2109007   2106495   2105240   2104570  
  9840.000000   2103796   2102497   2100707   2098876   2097634  
  9830.000000   2097506   2098671   2100897   2103668   2106390  
  9820.000000   2108641   2110260   2111318   2111970   2112288  
  9810.000000   2112199   2111561   2110275   2108484   2106500  
  9800.000000   2104751   2103461   2102505   2101348   2099231  
  9790.000000   2095563   2090245   2083940   2077926   2073776  
  9780.000000   2072763   2075442   2081330   2089076   2096830  
  9770.000000   2102834   2105972   2105978   2103476   2099532  
  9760.000000   2095336   2091703   2088986   2087014   2085369  
  9750.000000   2083621   2081571   2079383   2077470   2076441  
  9740.000000   2076765   2078747   2082292   2087028   2092284  
  9730.000000   2097263   2101164   2103336   2103427   2101461  
  9720.000000   2097859   2093321   2088635   2084449   2081086  
  9710.000000   2078469   2076207   2073752   2070669   2066766  
  9700.000000   2062211   2057412   2052895   2049086   2046203  
  9690.000000   2044238   2043045   2042510   2042645   2043667  
  9680.000000   2045891   2049623   2054967   2061700   2069263  
  9670.000000   2076795   2083359   2088057   2090284   2089750  
  9660.000000   2086611   2081379   2074880   2068105   2062029  
  9650.000000   2057465   2054849   2054236   2055217   2057157  
  9640.000000   2059245   2060821   2061391   2060816   2059212  
  9630.000000   2056910   2054333   2051831   2049681   2047960  
  9620.000000   2046651   2045582   2044535   2043250   2041520  
  9610.000000   2039289   2036687   2034077   2031927   2030710  
  9600.000000   2030705   2031890   2033928   2036226   2038160  
  9590.000000   2039213   2039158   2038046   2036148   2033806  
  9580.000000   2031317   2028880   2026636   2024721   2023341  
  9570.000000   2022728   2023073   2024390   2026420   2028634  
  9560.000000   2030352   2030965   2030168   2028090   2025277  
  9550.000000   2022517   2020557   2019893   2020587   2022355  
  9540.000000   2024647   2026904   2028697   2029818   2030284  
  9530.000000   2030193   2029646   2028585   2026814   2024043  
  9520.000000   2020063   2014897   2008932   2002920   1997833  
  9510.000000   1994659   1994054   1996197   2000604   2006288  
  9500.000000   2011957   2016376   2018749   2018869   2017193  
  9490.000000   2014536   2011794   2009555   2007999   2006909  
  9480.000000   2005937   2004835   2003639   2002687   2002430  
  9470.000000   2003245   2005128   2007703   2010245   2012009  
  9460.000000   2012490   2011593   2009683   2007322   2005110  
  9450.000000   2003360   2002103   2001069   1999903   1998321  
  9440.000000   1996266   1993957   1991815   1990372   1990070  
  9430.000000   1991213   1993841   1997794   2002660   2007868  
  9420.000000   2012732   2016589   2018971   2019705   2019001  
  9410.000000   2017316   2015207   2013099   2011143   2009200  
  9400.000000   2006934   2004061   2000513   1996635   1993027  
  9390.000000   1990408   1989198   1989404   1990503   1991698  
  9380.000000   1992154   1991287   1988951   1985403   1981258  
  9370.000000   1977149   1973617   1970850   1968806   1967228  
  9360.000000   1965845   1964450   1962947   1961417   1960063  
  9350.000000   1959288   1959524   1961212   1964562   1969479  
  9340.000000   1975464   1981644   1986941   1990263   1990840  
  9330.000000   1988398   1983301   1976391   1968781   1961542  
  9320.000000   1955460   1950928   1947904   1946092   1945043  
  9310.000000   1944402   1943905   1943460   1943028   1942613  
  9300.000000   1942202   1941724   1941083   1940114   1938720  
  9290.000000   1936840   1934583   1932159   1929913   1928227  
  9280.000000   1927446   1927754   1929092   1931149   1933445  
  9270.000000   1935464   1936791   1937202   1936709   1935518  
  9260.000000   1933984   1932460   1931270   1930605   1930565  
  9250.000000   1931101   1932023   1933025   1933735   1933889  
  9240.000000   1933392   1932445   1931475   1931089   1931829  
  9230.000000   1933959   1937269   1941084   1944476   1946533  
  9220.000000   1946689   1944862   1941500   1937376   1933332  
  9210.000000   1929982   1927575   1926027   1925075   1924480  
  9200.000000   1924119   1924048   1924366   1925160   1926338  
  9190.000000   1927697   1928964   1929944   1930608   1931045  
  9180.000000   1931425   1931817   1932160   1932205   1931649  
  9170.000000   1930262   1928054   1925291   1922444   1920031  
  9160.000000   1918455   1917897   1918238   1919190   1920349  
  9150.000000   1921402   1922134   1922536   1922725   1922894  
  9140.000000   1923201   1923707   1924348   1924892   1924996  
  9130.000000   1924246   1922330   1919102   1914704   1909549  
  9120.000000   1904278   1899596   1896088   1894061   1893483  
  9110.000000   1894015   1895156   1896396   1897374   1897956  
  9100.000000   1898218   1898364   1898606   1899109   1899971  
  9090.000000   1901215   1902832   1904776   1907008   1909396  
  9080.000000   1911727   1913683   1914934   1915186   1914265  
  9070.000000   1912202   1909252   1905853   1902507   1899708  
  9060.000000   1897826   1897072   1897412   1898639   1900374  
  9050.000000   1902192   1903660   1904471   1904476   1903728  
  9040.000000   1902428   1900866   1899339   1898062   1897149  
  9030.000000   1896592   1896321   1896219   1896169   1896046  
  9020.000000   1895714   1895038   1893881   1892180   1889976  
  9010.000000   1887474   1885010   1882979   1881739   1881470  
  9000.000000   1882135   1883447   1884977   1886213   1886724  
  8990.000000   1886236   1884740   1882441   1879745   1877163  
  8980.000000   1875260   1874514   1875198   1877320   1880586  
  8970.000000   1884475   1888304   1891456   1893532   1894474  
  8960.000000   1894545   1894195   1893880   1893832   1893982  
  8950.000000   1893954   1893279   1891597   1888887   1885517  
  8940.000000   1882146   1879517   1878142   1878174   1879308  
  8930.000000   1880962   1882477   1883397   1883623   1883405  
  8920.000000   1883198   1883429   1884295   1885677   1887174  
  8910.000000   1888298   1888671   1888186   1887057   1885725  
  8900.000000   1884695   1884334   1884722   1885627   1886575  
  8890.000000   1887018   1886509   1884841   1882118   1878725  
  8880.000000   1875222   1872200   1870116   1869212   1869475  
  8870.000000   1870659   1872377   1874180   1875696   1876660  
  8860.000000   1876983   1876694   1875934   1874888   1873774  
  8850.000000   1872790   1872130   1871953   1872397   1873550  
  8840.000000   1875406   1877853   1880638   1883427   1885839  
  8830.000000   1887557   1888389   1888328   1887552   1886354  
  8820.000000   1885066   1883940   1883123   1882596   1882234  
  8810.000000   1881850   1881275   1880432   1879325   1878084  
  8800.000000   1876874   1875922   1875421   1875547   1876399  
  8790.000000   1877988   1880220   1882855   1885558   1887892  
  8780.000000   1889442   1889859   1888998   1886945   1884064  
  8770.000000   1880904   1878088   1876167   1875490   1876151  
  8760.000000   1877961   1880534   1883369   1885990   1888039  
  8750.000000   1889332   1889864   1889759   1889230   1888501  
  8740.000000   1887783   1887240   1886996   1887145   1887734  
  8730.000000   1888792   1890272   1892093   1894072   1895993  
  8720.000000   1897601   1898682   1899101   1898810   1897869  
  8710.000000   1896384   1894514   1892377   1890087   1887710  
  8700.000000   1885343   1883109   1881177   1879749   1879005  
  8690.000000   1879076   1879970   1881603   1883805   1886376  
  8680.000000   1889146   1891978   1894808   1897571   1900197  
  8670.000000   1902549   1904469   1905800   1906478   1906559  
  8660.000000   1906248   1905843   1905666   1905950   1906762  
  8650.000000   1907986   1909347   1910516   1911196   1911243  
  8640.000000   1910689   1909764   1908800   1908185   1908230  
  8630.000000   1909120   1910844   1913213   1915921   1918598  
  8620.000000   1920913   1922606   1923559   1923773   1923370  
  8610.000000   1922528   1921452   1920349   1919412   1918827  
  8600.000000   1918757   1919335   1920620   1922568   1924991  
  8590.000000   1927579   1929947   1931712   1932599   1932498  
  8580.000000   1931527   1929981   1928286   1926871   1926092  
  8570.000000   1926160   1927127   1928902   1931276   1933984  
  8560.000000   1936726   1939226   1941240   1942603   1943251  
  8550.000000   1943232   1942716   1941952   1941234   1940810  
  8540.000000   1940826   1941295   1942097   1943039   1943896  
  8530.000000   1944504   1944780   1944754   1944525   1944232  
  8520.000000   1943982   1943839   1943806   1943846   1943919  
  8510.000000   1944006   1944138   1944366   1944744   1945277  
  8500.000000   1945899   1946488   1946885   1946974   1946739  
  8490.000000   1946288   1945856   1945721   1946133   1947188  
  8480.000000   1948785   1950631   1952332   1953506   1953925  
  8470.000000   1953590   1952766   1951878   1951384   1951615  
  8460.000000   1952683   1954447   1956574   1958658   1960363  
  8450.000000   1961515   1962140   1962435   1962667   1963086  
  8440.000000   1963823   1964873   1966113   1967359   1968437  
  8430.000000   1969227   1969703   1969912   1969932   1969852  
  8420.000000   1969715   1969547   1969339   1969101   1968863  
  8410.000000   1968700   1968693   1968913   1969366   1969993  
  8400.000000   1970651   1971163   1971354   1971121   1970460  
  8390.000000   1969474   1968339   1967259   1966409   1965887  
  8380.000000   1965691   1965726   1965849   1965906   1965774  
  8370.000000   1965379   1964715   1963842   1962859   1961891  
  8360.000000   1961054   1960457   1960175   1960254   1960688  
  8350.000000   1961435   1962410   1963505   1964574   1965459  
  8340.000000   1965997   1966048   1965531   1964432   1962846  
  8330.000000   1960929   1958905   1956970   1955268   1953847  
  8320.000000   1952663   1951633   1950664   1949754   1948987  
  8310.000000   1948550   1948637   1949393   1950823   1952780  
  8300.000000   1954985   1957075   1958702   1959596   1959631  
  8290.000000   1958816   1957288   1955260   1952992   1950751  
  8280.000000   1948774   1947230   1946174   1945554   1945198  
  8270.000000   1944885   1944385   1943569   1942437   1941146  
  8260.000000   1939928   1939008   1938503   1938377   1938457  
  8250.000000   1938495   1938280   1937711   1936838   1935810  
  8240.000000   1934804   1933925   1933169   1932424   1931534  
  8230.000000   1930374   1928913   1927233   1925487   1923853  
  8220.000000   1922449   1921333   1920489   1919878   1919466  
  8210.000000   1919225   1919116   1919045   1918851   1918331  
  8200.000000   1917296   1915655   1913470   1910978   1908523  
  8190.000000   1906471   1905070   1904390   1904282   1904455  
  8180.000000   1904561   1904307   1903528   1902195   1900398  
  8170.000000   1898269   1895944   1893513   1891041   1888572  
  8160.000000   1886179   1883953   1882012   1880464   1879375  
  8150.000000   1878758   1878550   1878641   1878881   1879119  
  8140.000000   1879227   1879121   1878781   1878233   1877564  
  8130.000000   1876858   1876197   1875597   1875019   1874353  
  8120.000000   1873477   1872286   1870761   1868991   1867157  
  8110.000000   1865500   1864229   1863488   1863283   1863524  
  8100.000000   1864022   1864581   1865019   1865234   1865180  
  8090.000000   1864864   1864307   1863510   1862465   1861140  
  8080.000000   1859528   1857634   1855509   1853222   1850863  
  8070.000000   1848525   1846293   1844266   1842532   1841198  
  8060.000000   1840349   1840044   1840281   1840967   1841932  
  8050.000000   1842927   1843697   1844010   1843739   1842869  
  8040.000000   1841526   1839930   1838353   1837058   1836235  
  8030.000000   1835976   1836252   1836946   1837873   1838829  
  8020.000000   1839619   1840083   1840101   1839596   1838541  
  8010.000000   1836966   1834977   1832752   1830541   1828621  
  8000.000000   1827243   1826571   1826619   1827254   1828198  
  7990.000000   1829124   1829725   1829817   1829375   1828529  
  7980.000000   1827507   1826543   1825798   1825302   1824965  
  7970.000000   1824619   1824109   1823350   1822369   1821287  
  7960.000000   1820267   1819449   1818889   1818547   1818297  
  7950.000000   1817995   1817531   1816880   1816118   1815391  
  7940.000000   1814878   1814714   1814953   1815532   1816292  
  7930.000000   1817001   1817429   1817398   1816839   1815816  
  7920.000000   1814514   1813203   1812158   1811594   1811591  
  7910.000000   1812080   1812854   1813638   1814165   1814254  
  7900.000000   1813855   1813041   1811973   1810831   1809766  
  7890.000000   1808860   1808144   1807604   1807232   1807032  
  7880.000000   1807017   1807196   1807542   1807999   1808482  
  7870.000000   1808925   1809295   1809617   1809951   1810363  
  7860.000000   1810876   1811451   1811993   1812380   1812517  
  7850.000000   1812367   1811964   1811388   1810720   1810010  
  7840.000000   1809254   1808417   1807470   1806433   1805389  
  7830.000000   1804476   1803831   1803551   1803633   1803988  
  7820.000000   1804451   1804855   1805064   1805021   1804742  
  7810.000000   1804299   1803781   1803261   1802785   1802361  
  7800.000000   1801978   1801601   1801185   1800676   1800021  
  7790.000000   1799182   1798155   1796985   1795765   1794630  
  7780.000000   1793712   1793115   1792873   1792948   1793236  
  7770.000000   1793608   1793942   1794160   1794239   1794202  
  7760.000000   1794104   1793990   1793892   1793797   1793669  
  7750.000000   1793444   1793064   1792491   1791729   1790833  
  7740.000000   1789898   1789047   1788387   1787991   1787855  
  7730.000000   1787921   1788071   1788188   1788184   1788027  
  7720.000000   1787740   1787371   1786960   1786503   1785952  
  7710.000000   1785238   1784310   1783173   1781906   1780640  
  7700.000000   1779516   1778640   1778037   1777658   1777398  
  7690.000000   1777147   1776825   1776408   1775915   1775383  
  7680.000000   1774844   1774301   1773746   1773172   1772593  
  7670.000000   1772048   1771588   1771243   1771013   1770851  
  7660.000000   1770691   1770472   1770166   1769789   1769387  
  7650.000000   1769006   1768674   1768373   1768072   1767732  
  7640.000000   1767346   1766940   1766568   1766284   1766116  
  7630.000000   1766052   1766056   1766093   1766157   1766277  
  7620.000000   1766506   1766880   1767390   1767958   1768464  
  7610.000000   1768778   1768823   1768597   1768186   1767720  
  7600.000000   1767320   1767060   1766943   1766927   1766954  
  7590.000000   1766993   1767052   1767167   1767363   1767616  
  7580.000000   1767841   1767908   1767697   1767150   1766312  
  7570.000000   1765340   1764459   1763892   1763789   1764174  
  7560.000000   1764944   1765907   1766841   1767556   1767948  
  7550.000000   1768003   1767797   1767449   1767090   1766813  
  7540.000000   1766665   1766642   1766718   1766856   1767046  
  7530.000000   1767305   1767676   1768204   1768914   1769779  
  7520.000000   1770720   1771610   1772320   1772749   1772882  
  7510.000000   1772782   1772595   1772491   1772627   1773092  
  7500.000000   1773890   1774946   1776134   1777323   1778420  
  7490.000000   1779381   1780214   1780955   1781652   1782334  
  7480.000000   1783015   1783682   1784325   1784929   1785504  
  7470.000000   1786070   1786660   1787305   1788030   1788837  
  7460.000000   1789716   1790636   1791565   1792473   1793351  
  7450.000000   1794209   1795077   1795990   1796981   1798062  
  7440.000000   1799228   1800454   1801718   1803000   1804308  
  7430.000000   1805655   1807065   1808543   1810082   1811646  
  7420.000000   1813199   1814710   1816177   1817621   1819086  
  7410.000000   1820610   1822215   1823893   1825610   1827327  
  7400.000000   1829008   1830641   1832229   1833788   1835324  
  7390.000000   1836826   1838262   1839593   1840782   1841810  
  7380.000000   1842682   1843430   1844103   1844758   1845451  
  7370.000000   1846239   1847164   1848259   1849524   1850929  
  7360.000000   1852413   1853894   1855293   1856560   1857691  
  7350.000000   1858727   1859742   1860810   1861981   1863262  
  7340.000000   1864631   1866047   1867484   1868937   1870420  
  7330.000000   1871944   1873501   1875046   1876513   1877832  
  7320.000000   1878970   1879935   1880789   1881615   1882493  
  7310.000000   1883474   1884559   1885724   1886927   1888151  
  7300.000000   1889400   1890702   1892079   1893528   1895009  
  7290.000000   1896452   1897781   1898941   1899917   1900741  
  7280.000000   1901471   1902179   1902926   1903763   1904716  
  7270.000000   1905802   1907021   1908352   1909743   1911113  
  7260.000000   1912358   1913375   1914103   1914529   1914727  
  7250.000000   1914812   1914942   1915245   1915814   1916667  
  7240.000000   1917785   1919109   1920599   1922220   1923976  
  7230.000000   1925862   1927880   1929995   1932178   1934382  
  7220.000000   1936603   1938846   1941163   1943591   1946173  
  7210.000000   1948895   1951723   1954576   1957379   1960068  
  7200.000000   1962628   1965082   1967502   1969966   1972559  
  7190.000000   1975332   1978304   1981443   1984687   1987943  
  7180.000000   1991131   1994182   1997082   1999853   2002562  
  7170.000000   2005281   2008085   2011008   2014065   2017223  
  7160.000000   2020457   2023736   2027070   2030479   2034011  
  7150.000000   2037699   2041569   2045604   2049775   2054023  
  7140.000000   2058307   2062585   2066855   2071115   2075396  
  7130.000000   2079714   2084109   2088594   2093202   2097938  
  7120.000000   2102812   2107796   2112861   2117950   2123024  
  7110.000000   2128051   2133045   2138038   2143100   2148289  
  7100.000000   2153651   2159182   2164845   2170556   2176234  
  7090.000000   2181804   2187240   2192555   2197812   2203087  
  7080.000000   2208461   2213983   2219666   2225475   2231348  
  7070.000000   2237204   2242977   2248619   2254118   2259486  
  7060.000000   2264751   2269944   2275098   2280241   2285405  
  7050.000000   2290623   2295927   2301340   2306863   2312470  
  7040.000000   2318103   2323696   2329180   2334521   2339714  
  7030.000000   2344797   2349822   2354844   2359891   2364964  
  7020.000000   2370027   2375034   2379937   2384711   2389342  
  7010.000000   2393847   2398243   2402563   2406828   2411074  
  7000.000000   2415321   2419601   2423916   2428259   2432588  
  6990.000000   2436846   2440957   2444867   2448534   2451969  
  6980.000000   2455201   2458297   2461318   2464331   2467372  
  6970.000000   2470472   2473624   2476816   2479998   2483120  
  6960.000000   2486107   2488907   2491473   2493814   2495960  
  6950.000000   2497989   2499978   2502003   2504100   2506280  
  6940.000000   2508511   2510754   2512953   2515071   2517064  
  6930.000000   2518915   2520604   2522145   2523564   2524920  
  6920.000000   2526278   2527704   2529221   2530810   2532399  
  6910.000000   2533897   2535222   2536349   2537311   2538203  
  6900.000000   2539132   2540176   2541345   2542575   2543755  
  6890.000000   2544772   2545562   2546140   2546594   2547054  
  6880.000000   2547640   2548433   2549442   2550626   2551908  
  6870.000000   2553208   2554458   2555614   2556649   2557551  
  6860.000000   2558320   2558974   2559553   2560120   2560737  
  6850.000000   2561451   2562269   2563154   2564031   2564824  
  6840.000000   2565478   2565990   2566401   2566788   2567218  
  6830.000000   2567732   2568321   2568942   2569534   2570052  
  6820.000000   2570477   2570827   2571133   2571432   2571737  
  6810.000000   2572044   2572329   2572574   2572761   2572901  
  6800.000000   2573010   2573117   2573244   2573400   2573575  
  6790.000000   2573744   2573868   2573907   2573827   2573615  
  6780.000000   2573284   2572884   2572484   2572166   2571991  
  6770.000000   2571986   2572126   2572352   2572587   2572767  
  6760.000000   2572862   2572883   2572871   2572872   2572916  
  6750.000000   2572993   2573071   2573100   2573047   2572905  
  6740.000000   2572702   2572487   2572314   2572227   2572246  
  6730.000000   2572373   2572596   2572898   2573261   2573658  
  6720.000000   2574056   2574409   2574671   2574807   2574803  
  6710.000000   2574672   2574449   2574180   2573903   2573642  
  6700.000000   2573406   2573200   2573025   2572896   2572816  
  6690.000000   2572790   2572790   2572781   2572706   2572530  
  6680.000000   2572239   2571859   2571442   2571047   2570709  
  6670.000000   2570430   2570164   2569849   2569415   2568824  
  6660.000000   2568068   2567182   2566213   2565213   2564217  
  6650.000000   2563246   2562299   2561375   2560462   2559551  
  6640.000000   2558620   2557651   2556616   2555502   2554309  
  6630.000000   2553063   2551800   2550566   2549392   2548288  
  6620.000000   2547238   2546211   2545170   2544094   2542970  
  6610.000000   2541803   2540596   2539352   2538056   2536693  
  6600.000000   2535246   2533712   2532104   2530448   2528773  
  6590.000000   2527104   2525453   2523826   2522217   2520627  
  6580.000000   2519061   2517529   2516043   2514615   2513243  
  6570.000000   2511921   2510633   2509357   2508072   2506757  
  6560.000000   2505396   2503978   2502506   2500989   2499448  
  6550.000000   2497908   2496393   2494914   2493474   2492063  
  6540.000000   2490663   2489261   2487847   2486417   2484971  
  6530.000000   2483510   2482033   2480544   2479057   2477597  
  6520.000000   2476199   2474895   2473697   2472593   2471533  
  6510.000000   2470455   2469294   2468015   2466622   2465162  
  6500.000000   2463707   2462326   2461059   2459905   2458820  
  6490.000000   2457741   2456603   2455365   2454015   2452569  
  6480.000000   2451055   2449503   2447934   2446360   2444786  
  6470.000000   2443221   2441677   2440171   2438721   2437338  
  6460.000000   2436023   2434769   2433557   2432363   2431159  
  6450.000000   2429912   2428604   2427219   2425772   2424291  
  6440.000000   2422832   2421450   2420195   2419087   2418119  
  6430.000000   2417248   2416424   2415600   2414756   2413892  
  6420.000000   2413036   2412217   2411457   2410759   2410118  
  6410.000000   2409517   2408959   2408450   2408012   2407659  
  6400.000000   2407392   2407188   2407013   2406827   2406611  
  6390.000000   2406369   2406131   2405938   2405826   2405803  
  6380.000000   2405848   2405911   2405929   2405846   2405626  
  6370.000000   2405262   2404775   2404204   2403594   2402991  
  6360.000000   2402423   2401909   2401443   2401010   2400581  
  6350.000000   2400127   2399618   2399046   2398413   2397746  
  6340.000000   2397075   2396436   2395851   2395329   2394857  
  6330.000000   2394413   2393961   2393472   2392918   2392283  
  6320.000000   2391561   2390762   2389901   2389007   2388103  
  6310.000000   2387210   2386325   2385437   2384513   2383523  
  6300.000000   2382442   2381276   2380046   2378798   2377573  
  6290.000000   2376401   2375280   2374188   2373081   2371922  
  6280.000000   2370685   2369377   2368021   2366656   2365318  
  6270.000000   2364025   2362775   2361547   2360304   2359010  
  6260.000000   2357636   2356167   2354608   2352983   2351333  
  6250.000000   2349707   2348150   2346697   2345354   2344107  
  6240.000000   2342917   2341740   2340539   2339296   2338012  
  6230.000000   2336705   2335393   2334083   2332771   2331439  
  6220.000000   2330070   2328655   2327204   2325733   2324267  
  6210.000000   2322817   2321384   2319954   2318518   2317073  
  6200.000000   2315637   2314239   2312913   2311680   2310540  
  6190.000000   2309472   2308447   2307436   2306432   2305442  
  6180.000000   2304487   2303583   2302735   2301921   2301114  
  6170.000000   2300279   2299399   2298474   2297525   2296582  
  6160.000000   2295671   2294806   2293983   2293190   2292407  
  6150.000000   2291618   2290811   2289981   2289125   2288244  
  6140.000000   2287343   2286433   2285532   2284659   2283834  
  6130.000000   2283063   2282341   2281648   2280960   2280256  
  6120.000000   2279528   2278780   2278032   2277303   2276614  
  6110.000000   2275975   2275394   2274868   2274404   2274004  
  6100.000000   2273677   2273422   2273239   2273114   2273039  
  6090.000000   2272994   2272976   2272974   2272993   2273023  
  6080.000000   2273070   2273126   2273200   2273299   2273450  
  6070.000000   2273668   2273977   2274374   2274856   2275394  
  6060.000000   2275970   2276564   2277186   2277847   2278584  
  6050.000000   2279419   2280377   2281455   2282653   2283948  
  6040.000000   2285337   2286804   2288357   2289992   2291722  
  6030.000000   2293544   2295470   2297499   2299643   2301896  
  6020.000000   2304255   2306687   2309160   2311619   2314027  
  6010.000000   2316347   2318578   2320729   2322844   2324958  
  6000.000000   2327120   2329359   2331708   2334177   2336785  
  5990.000000   2339529   2342406   2345391   2348460   2351572  
  5980.000000   2354708   2357853   2361024   2364242   2367545  
  5970.000000   2370951   2374473   2378089   2381782   2385516  
  5960.000000   2389280   2393061   2396867   2400695   2404553  
  5950.000000   2408431   2412329   2416250   2420215   2424257  
  5940.000000   2428414   2432714   2437165   2441749   2446418  
  5930.000000   2451119   2455790   2460382   2464852   2469168  
  5920.000000   2473299   2477220   2480910   2484366   2487605  
  5910.000000   2490665   2493594   2496446   2499256   2502051  
  5900.000000   2504835   2507621   2510408   2513222   2516076  
  5890.000000   2518993   2521964   2524975   2527984   2530958  
  5880.000000   2533859   2536675   2539395   2542016   2544521  
  5870.000000   2546883   2549062   2551028   2552775   2554329  
  5860.000000   2555752   2557125   2558530   2560031   2561664  
  5850.000000   2563440   2565348   2567375   2569503   2571718  
  5840.000000   2574005   2576342   2578706   2581072   2583421  
  5830.000000   2585737   2588023   2590273   2592493   2594674  
  5820.000000   2596815   2598914   2600987   2603063   2605179  
  5810.000000   2607373   2609666   2612063   2614534   2617056  
  5800.000000   2619586   2622119   2624636   2627164   2629688  
  5790.000000   2632215   2634688   2637058   2639213   2641060  
  5780.000000   2642469   2643344   2643581   2643139   2641997  
  5770.000000   2640219   2637901   2635213   2632317   2629397  
  5760.000000   2626570   2623930   2621490   2619254   2617180  
  5750.000000   2615251   2613439   2611744   2610159   2608683  
  5740.000000   2607306   2606017   2604806   2603660   2602573  
  5730.000000   2601521   2600484   2599424   2598314   2597125  
  5720.000000   2595859   2594532   2593185   2591853   2590571  
  5710.000000   2589352   2588197   2587096   2586045   2585047  
  5700.000000   2584108   2583240   2582441   2581703   2581005  
  5690.000000   2580333   2579673   2579036   2578429   2577865  
  5680.000000   2577331   2576800   2576209   2575495   2574587  
  5670.000000   2573435   2572004   2570290   2568295   2566049  
  5660.000000   2563584   2560956   2558227   2555476   2552768  
  5650.000000   2550162   2547680   2545325   2543066   2540878  
  5640.000000   2538737   2536640   2534601   2532641   2530779  
  5630.000000   2529018   2527352   2525760   2524233   2522753  
  5620.000000   2521324   2519939   2518599   2517288   2515998  
  5610.000000   2514715   2513448   2512210   2511032   2509934  
  5600.000000   2508933   2508022   2507180   2506377   2505589  
  5590.000000   2504801   2504013   2503234   2502470   2501724  
  5580.000000   2500987   2500249   2499498   2498730   2497948  
  5570.000000   2497154   2496348   2495519   2494653   2493737  
  5560.000000   2492760   2491726   2490645   2489534   2488410  
  5550.000000   2487287   2486175   2485086   2484031   2483025  
  5540.000000   2482073   2481178   2480321   2479481   2478628  
  5530.000000   2477743   2476821   2475873   2474917   2473969  
  5520.000000   2473032   2472095   2471140   2470148   2469114  
  5510.000000   2468047   2466966   2465892   2464835   2463797  
  5500.000000   2462770   2461749   2460731   2459726   2458739  
  5490.000000   2457771   2456802   2455801   2454726   2453549  
  5480.000000   2452262   2450886   2449455   2448012   2446578  
  5470.000000   2445157   2443724   2442249   2440703   2439078  
  5460.000000   2437379   2435625   2433832   2432013   2430172  
  5450.000000   2428318   2426462   2424629   2422847   2421137  
  5440.000000   2419511   2417963   2416477   2415039   2413644  
  5430.000000   2412293   2410994   2409735   2408501   2407250  
  5420.000000   2405960   2404608   2403227   2401864   2400604  
  5410.000000   2399506   2398613   2397910   2397366   2396926  
  5400.000000   2396566   2396272   2396070   2395979   2396026  
  5390.000000   2396200   2396497   2396881   2397364   2397946  
  5380.000000   2398681   2399590   2400709   2402012   2403482  
  5370.000000   2405052   2406709   2408418   2410223   2412136  
  5360.000000   2414230   2416515   2419049   2421817   2424873  
  5350.000000   2428206   2431883   2435892   2440291   2445041  
  5340.000000   2450179   2455654   2461521   2467753   2474432  
  5330.000000   2481533   2489127   2497154   2505660   2514578  
  5320.000000   2523981   2533847   2544300   2555341   2567100  
  5310.000000   2579544   2592754   2606651   2621289   2636592  
  5300.000000   2652637   2669380   2686932   2705274   2724519  
  5290.000000   2744627   2765657   2787496   2810106   2833313  
  5280.000000   2857051   2881194   2905775   2930799   2956396  
  5270.000000   2982611   3009494   3036950   3064828   3092903  
  5260.000000   3120982   3148940   3176746   3204459   3232126  
  5250.000000   3259785   3287334   3314644   3341462   3367641  
  5240.000000   3393010   3417610   3441451   3464711   3487435  
  5230.000000   3509743   3531550   3552831   3573386   3593158  
  5220.000000   3612001   3629982   3647097   3663537   3679358  
  5210.000000   3694733   3709623   3724057   3737857   3750970  
  5200.000000   3763222   3774653   3785224   3795100   3804315  
  5190.000000   3813027   3821207   3828914   3836043   3842613  
  5180.000000   3848532   3853860   3858548   3862680   3866208  
  5170.000000   3869198   3871601   3873492   3874857   3875799  
  5160.000000   3876317   3876491   3876276   3875701   3874695  
  5150.000000   3873288   3871447   3869247   3866692   3863853  
  5140.000000   3860712   3857303   3853586   3849594   3845319  
  5130.000000   3840830   3836153   3831355   3826442   3821442  
  5120.000000   3816334   3811132   3805831   3800467   3795055  
  5110.000000   3789629   3784189   3778739   3773259   3767750  
  5100.000000   3762215   3756682   3751176   3745732   3740357  
  5090.000000   3735052   3729796   3724573   3719366   3714178  
  5080.000000   3709010   3703869   3698743   3693619   3688461  
  5070.000000   3683246   3677946   3672559   3667086   3661546  
  5060.000000   3655947   3650301   3644602   3638852   3633037  
  5050.000000   3627159   3621209   3615193   3609103   3602940  
  5040.000000   3596697   3590381   3583999   3577572   3571120  
  5030.000000   3564668   3558233   3551822   3545437   3539072  
  5020.000000   3532723   3526388   3520077   3513799   3507579  
  5010.000000   3501433   3495395   3489480   3483720   3478122  
  5000.000000   3472704   3467449   3462358   3457398   3452567  
  4990.000000   3447839   3443239   3438767   3434471   3430363  
  4980.000000   3426495   3422859   3419491   3416368   3413515  
  4970.000000   3410907   3408577   3406501   3404719   3403208  
  4960.000000   3402006   3401095   3400523   3400276   3400410  
  4950.000000   3400907   3401809   3403071   3404713   3406673  
  4940.000000   3408970   3411554   3414467   3417685   3421267  
  4930.000000   3425189   3429505   3434182   3439261   3444707  
  4920.000000   3450560   3456791   3463434   3470454   3477867  
  4910.000000   3485628   3493739   3502153   3510869   3519845  
  4900.000000   3529070   3538499   3548099   3557819   3567605  
  4890.000000   3577409   3587167   3596836   3606341   3615643  
  4880.000000   3624659   3633356   3641655   3649538   3656929  
  4870.000000   3663818   3670119   3675824   3680847   3685201  
  4860.000000   3688832   3691797   3694091   3695805   3696949  
  4850.000000   3697615   3697801   3697580   3696950   3695983  
  4840.000000   3694697   3693182   3691480   3689681   3687826  
  4830.000000   3685987   3684187   3682468   3680839   3679316  
  4820.000000   3677900   3676594   3675398   3674309   3673335  
  4810.000000   3672478   3671756   3671172   3670746   3670471  
  4800.000000   3670356   3670382   3670549   3670833   3671237  
  4790.000000   3671742   3672355   3673067   3673890   3674821  
  4780.000000   3675874   3677046   3678348   3679766   3681296  
  4770.000000   3682911   3684592   3686308   3688042   3689773  
  4760.000000   3691496   3693204   3694895   3696564   3698207  
  4750.000000   3699816   3701392   3702934   3704452   3705953  
  4740.000000   3707446   3708936   3710420   3711889   3713336  
  4730.000000   3714752   3716137   3717492   3718833   3720168  
  4720.000000   3721516   3722883   3724289   3725736   3727246  
  4710.000000   3728823   3730496   3732272   3734186   3736249  
  4700.000000   3738497   3740944   3743621   3746536   3749711  
  4690.000000   3753139   3756824   3760742   3764877   3769183  
  4680.000000   3773624   3778128   3782644   3787095   3791438  
  4670.000000   3795626   3799661   3803551   3807352   3811111  
  4660.000000   3814902   3818773   3822777   3826942   3831293  
  4650.000000   3835838   3840581   3845518   3850631   3855899  
  4640.000000   3861281   3866745   3872246   3877761   3883257  
  4630.000000   3888722   3894121   3899433   3904600   3909575  
  4620.000000   3914279   3918660   3922650   3926229   3929368  
  4610.000000   3932097   3934430   3936437   3938153   3939661  
  4600.000000   3940990   3942209   3943323   3944374   3945332  
  4590.000000   3946208   3946944   3947523   3947872   3947966  
  4580.000000   3947743   3947201   3946317   3945130   3943662  
  4570.000000   3941982   3940124   3938147   3936063   3933899  
  4560.000000   3931642   3929304   3926879   3924390   3921847  
  4550.000000   3919281   3916699   3914110   3911500   3908857  
  4540.000000   3906163   3903416   3900628   3897824   3895041  
  4530.000000   3892309   3889656   3887080   3884582   3882130  
  4520.000000   3879713   3877297   3874895   3872495   3870148  
  4510.000000   3867870   3865746   3863813   3862177   3860871  
  4500.000000   3859998   3859564   3859645   3860215   3861335  
  4490.000000   3862973   3865209   3868028   3871535   3875724  
  4480.000000   3880691   3886398   3892905   3900134   3908115  
  4470.000000   3916758   3926088   3936024   3946593   3957717  
  4460.000000   3969419   3981620   3994326   4007455   4020994  
  4450.000000   4034852   4048996   4063335   4077829   4092409  
  4440.000000   4107054   4121733   4136440   4151170   4165904  
  4430.000000   4180631   4195301   4209889   4224318   4238566  
  4420.000000   4252550   4266259   4279607   4292581   4305079  
  4410.000000   4317065   4328418   4339092   4348977   4358058  
  4400.000000   4366282   4373707   4380361   4386377   4391847  
  4390.000000   4396945   4401784   4406534   4411282   4416148  
  4380.000000   4421156   4426351   4431693   4437170   4442723  
  4370.000000   4448335   4453972   4459642   4465342   4471090  
  4360.000000   4476882   4482730   4488605   4494516   4500402  
  4350.000000   4506276   4512052   4517750   4523279   4528685  
  4340.000000   4533897   4538962   4543767   4548218   4552000  
  4330.000000   4554748   4555922   4555035   4551660   4545650  
  4320.000000   4537145   4526648   4514889   4502751   4491039  
  4310.000000   4480413   4471245   4463677   4457617   4452880  
  4300.000000   4449237   4446492   4444511   4443185   4442464  
  4290.000000   4442258   4442538   4443212   4444276   4445675  
  4280.000000   4447432   4449518   4451929   4454620   4457533  
  4270.000000   4460609   4463761   4466907   4469898   4472552  
  4260.000000   4474595   4475730   4475637   4474089   4470974  
  4250.000000   4466383   4460557   4453907   4446863   4439878  
  4240.000000   4433263   4427246   4421872   4417116   4412850  
  4230.000000   4408950   4405277   4401730   4398237   4394744  
  4220.000000   4391250   4387750   4384309   4380969   4377845  
  4210.000000   4375004   4372560   4370555   4369048   4368023  
  4200.000000   4367474   4367332   4367550   4368033   4368725  
  4190.000000   4369531   4370413   4371300   4372193   4373056  
  4180.000000   4373925   4374787   4375695   4376648   4377712  
  4170.000000   4378904   4380308   4381960   4383954   4386316  
  4160.000000   4389114   4392335   4396005   4400077   4404564  
  4150.000000   4409418   4414672   4420291   4426320   4432723  
  4140.000000   4439544   4446736   4454341   4462314   4470701  
  4130.000000   4479463   4488650   4498222   4508227   4518629  
  4120.000000   4529482   4540768   4552556   4564848   4577716  
  4110.000000   4591157   4605210   4619832   4635003   4650625  
  4100.000000   4666628   4682889   4699328   4715851   4732413  
  4090.000000   4748978   4765537   4782091   4798637   4815186  
  4080.000000   4831720   4848250   4864735   4881175   4897488  
  4070.000000   4913634   4929469   4944915   4959805   4974078  
  4060.000000   4987610   5000410   5012414   5023692   5034219  
  4050.000000   5044102   5053345   5062085   5070334   5078216  
  4040.000000   5085691   5092814   5099465   5105643   5111215  
  4030.000000   5116201   5120525   5124256   5127370   5129942  
  4020.000000   5131938   5133442   5134480   5135141   5135401  
  4010.000000   5135363   5135067   5134468   5133310   5131585  
  4000.000000   5129569  
##END= 
