##TITLE= Sample 002 By ssteindl date Dienstag, November 20 2018
##JCAMP-DX= 4.24
##DATA TYPE= INFRARED SPECTRUM
##ORIGIN= Exported PE Spectrum Data File
##OWNER= Sandra Steindl
##DATE= 18/11/20
##TIME= 16:53:53.00
##SPECTROMETER/DATA SYSTEM= PERKIN-ELMER Frontier FT-IR/NIR IR
##INSTRUMENT PARAMETERS=
  APODIZATION=stark
  DETECTOR=INGAAS
##RESOLUTION= 16.000000
##DELTAX= -2.000000
##XUNITS= 1/CM
##YUNITS= A
##XFACTOR= 1.00
##YFACTOR= 0.00000011920928955078
##FIRSTX= 10000.00
##LASTX= 4000.00
##NPOINTS= 3001
##FIRSTY= 0.226386
##MAXY= 0.652920
##MINY= 0.190014
##XYDATA= (X++(Y..Y))
 10000.000000   1899060   1890233   1882244   1876010   1871566  
  9990.000000   1868517   1867054   1867839   1871283   1877167  
  9980.000000   1884785   1892977   1900363   1905687   1908353  
  9970.000000   1908409   1906513   1903442   1899982   1896495  
  9960.000000   1893125   1889775   1886366   1882897   1879393  
  9950.000000   1875955   1872595   1869478   1866875   1865392  
  9940.000000   1865778   1868731   1874477   1882432   1891166  
  9930.000000   1898639   1902885   1902612   1897805   1889704  
  9920.000000   1880505   1872526   1867515   1866065   1867657  
  9910.000000   1871003   1874642   1877503   1879038   1879327  
  9900.000000   1878653   1877492   1876228   1875333   1875330  
  9890.000000   1876761   1880006   1884889   1890570   1895463  
  9880.000000   1897728   1895801   1889100   1878323   1865377  
  9870.000000   1852777   1842855   1837042   1835533   1837482  
  9860.000000   1841422   1845971   1850112   1853503   1856156  
  9850.000000   1858346   1860246   1861948   1863481   1864870  
  9840.000000   1866213   1867438   1868289   1868082   1865980  
  9830.000000   1861180   1853421   1843207   1831835   1821052  
  9820.000000   1812471   1807069   1804876   1805152   1806755  
  9810.000000   1808723   1810562   1812382   1814588   1817586  
  9800.000000   1821417   1825719   1829870   1833253   1835563  
  9790.000000   1836793   1837227   1837066   1836346   1834786  
  9780.000000   1832007   1827731   1822032   1815381   1808546  
  9770.000000   1802328   1797329   1793828   1791780   1790987  
  9760.000000   1791195   1792228   1793949   1796228   1798910  
  9750.000000   1801799   1804762   1807734   1810774   1813927  
  9740.000000   1817189   1820333   1823011   1824804   1825488  
  9730.000000   1825147   1824211   1823305   1822945   1823346  
  9720.000000   1824265   1825193   1825567   1825128   1824021  
  9710.000000   1822791   1822034   1822136   1822951   1823900  
  9700.000000   1824163   1823121   1820664   1817270   1813814  
  9690.000000   1811145   1809681   1809220   1809015   1808156  
  9680.000000   1805986   1802445   1798099   1793938   1790927  
  9670.000000   1789671   1790145   1791791   1793748   1795185  
  9660.000000   1795630   1794984   1793534   1791642   1789606  
  9650.000000   1787478   1785113   1782303   1778985   1775380  
  9640.000000   1772031   1769672   1768983   1770357   1773655  
  9630.000000   1778247   1783084   1787063   1789295   1789406  
  9620.000000   1787586   1784511   1781057   1777999   1775765  
  9610.000000   1774309   1773252   1772003   1770103   1767288  
  9600.000000   1763612   1759286   1754560   1749604   1744499  
  9590.000000   1739388   1734605   1730781   1728734   1729240  
  9580.000000   1732677   1738820   1746767   1755182   1762647  
  9570.000000   1768070   1770986   1771565   1770507   1768635  
  9560.000000   1766640   1764808   1763064   1761112   1758700  
  9550.000000   1755807   1752678   1749751   1747403   1745867  
  9540.000000   1745042   1744662   1744307   1743638   1742468  
  9530.000000   1740822   1738952   1737188   1735900   1735279  
  9520.000000   1735353   1735875   1736472   1736674   1736151  
  9510.000000   1734773   1732755   1730609   1729015   1728663  
  9500.000000   1729956   1732981   1737365   1742531   1747767  
  9490.000000   1752549   1756544   1759679   1761960   1763346  
  9480.000000   1763671   1762598   1759807   1755060   1748412  
  9470.000000   1740194   1730984   1721495   1712403   1704340  
  9460.000000   1697808   1693256   1690983   1691112   1693430  
  9450.000000   1697370   1701994   1706191   1708928   1709561  
  9440.000000   1708124   1705318   1702412   1700709   1701174  
  9430.000000   1703969   1708448   1713308   1717053   1718460  
  9420.000000   1717000   1713009   1707555   1702084   1697883  
  9410.000000   1695726   1695628   1696999   1698882   1700368  
  9400.000000   1700864   1700275   1698927   1697400   1696221  
  9390.000000   1695633   1695526   1695448   1694915   1693510  
  9380.000000   1691152   1687998   1684433   1680907   1677824  
  9370.000000   1675536   1674305   1674381   1675957   1679154  
  9360.000000   1683881   1689776   1696100   1701891   1706127  
  9350.000000   1708109   1707682   1705316   1701969   1698708  
  9340.000000   1696386   1695294   1695098   1694919   1693696  
  9330.000000   1690599   1685386   1678512   1670961   1663945  
  9320.000000   1658520   1655355   1654563   1655771   1658266  
  9310.000000   1661261   1664121   1666488   1668299   1669720  
  9300.000000   1671051   1672586   1674513   1676778   1679135  
  9290.000000   1681124   1682304   1682297   1681008   1678610  
  9280.000000   1675546   1672400   1669709   1667841   1666880  
  9270.000000   1666714   1667089   1667804   1668726   1669885  
  9260.000000   1671327   1673101   1675093   1677075   1678738  
  9250.000000   1679802   1680133   1679740   1678785   1677431  
  9240.000000   1675799   1673872   1671563   1668765   1665490  
  9230.000000   1661924   1658433   1655454   1653349   1652311  
  9220.000000   1652294   1653076   1654311   1655708   1657077  
  9210.000000   1658400   1659750   1661250   1662982   1664948  
  9200.000000   1667051   1669091   1670810   1671909   1672107  
  9190.000000   1671166   1668969   1665570   1661256   1656502  
  9180.000000   1651889   1647956   1645046   1643223   1642235  
  9170.000000   1641654   1641032   1640111   1638916   1637753  
  9160.000000   1637056   1637192   1638269   1640064   1642094  
  9150.000000   1643775   1644689   1644706   1644077   1643253  
  9140.000000   1642705   1642686   1643123   1643641   1643720  
  9130.000000   1642960   1641276   1638959   1636560   1634695  
  9120.000000   1633788   1633922   1634782   1635816   1636465  
  9110.000000   1636345   1635383   1633764   1631862   1630050  
  9100.000000   1628577   1627528   1626865   1626529   1626501  
  9090.000000   1626831   1627591   1628834   1630511   1632487  
  9080.000000   1634539   1636443   1638012   1639116   1639674  
  9070.000000   1639596   1638817   1637281   1635054   1632308  
  9060.000000   1629376   1626645   1624466   1623021   1622231  
  9050.000000   1621838   1621491   1620990   1620351   1619880  
  9040.000000   1620014   1621158   1623436   1626589   1629987  
  9030.000000   1632818   1634382   1634283   1632593   1629753  
  9020.000000   1626457   1623358   1620898   1619184   1618045  
  9010.000000   1617155   1616201   1615009   1613600   1612168  
  9000.000000   1610980   1610290   1610234   1610826   1611948  
  8990.000000   1613393   1614921   1616297   1617379   1618126  
  8980.000000   1618625   1619038   1619551   1620289   1621259  
  8970.000000   1622316   1623220   1623698   1623573   1622820  
  8960.000000   1621597   1620186   1618875   1617875   1617217  
  8950.000000   1616807   1616448   1616012   1615454   1614913  
  8940.000000   1614598   1614738   1615440   1616636   1618088  
  8930.000000   1619403   1620189   1620074   1618873   1616528  
  8920.000000   1613180   1609099   1604687   1600445   1596911  
  8910.000000   1594614   1593956   1595159   1598172   1602665  
  8900.000000   1608041   1613559   1618458   1622095   1624069  
  8890.000000   1624280   1623004   1620752   1618209   1616015  
  8880.000000   1614675   1614405   1615078   1616293   1617472  
  8870.000000   1618114   1617909   1616893   1615401   1613943  
  8860.000000   1613000   1612818   1613323   1614112   1614645  
  8850.000000   1614426   1613253   1611311   1609151   1607506  
  8840.000000   1607044   1608154   1610828   1614663   1618989  
  8830.000000   1623048   1626210   1628107   1628687   1628179  
  8820.000000   1627004   1625672   1624682   1624409   1625053  
  8810.000000   1626561   1628657   1630884   1632709   1633689  
  8800.000000   1633572   1632421   1630559   1628531   1626913  
  8790.000000   1626171   1626513   1627843   1629829   1631995  
  8780.000000   1633895   1635191   1635740   1635572   1634866  
  8770.000000   1633858   1632809   1631936   1631424   1631395  
  8760.000000   1631924   1633016   1634626   1636654   1638983  
  8750.000000   1641480   1644028   1646497   1648765   1650687  
  8740.000000   1652139   1653021   1653341   1653233   1652991  
  8730.000000   1653003   1653659   1655224   1657729   1660960  
  8720.000000   1664471   1667750   1670326   1671937   1672575  
  8710.000000   1672484   1672060   1671710   1671734   1672227  
  8700.000000   1673100   1674101   1674937   1675349   1675209  
  8690.000000   1674560   1673608   1672695   1672191   1672423  
  8680.000000   1673570   1675627   1678411   1681587   1684776  
  8670.000000   1687632   1689955   1691699   1692968   1693943  
  8660.000000   1694817   1695741   1696804   1698050   1699511  
  8650.000000   1701225   1703226   1705516   1708019   1710560  
  8640.000000   1712873   1714674   1715755   1716054   1715700  
  8630.000000   1714969   1714234   1713836   1714009   1714830  
  8620.000000   1716207   1717980   1719936   1721943   1723906  
  8610.000000   1725840   1727793   1729840   1732026   1734328  
  8600.000000   1736662   1738822   1740553   1741542   1741565  
  8590.000000   1740501   1738458   1735756   1732927   1730570  
  8580.000000   1729207   1729171   1730516   1733051   1736373  
  8570.000000   1740047   1743715   1747193   1750456   1753577  
  8560.000000   1756646   1759664   1762527   1765024   1766944  
  8550.000000   1768135   1768585   1768437   1767975   1767551  
  8540.000000   1767479   1767970   1769039   1770527   1772098  
  8530.000000   1773360   1773950   1773670   1772554   1770886  
  8520.000000   1769143   1767855   1767459   1768154   1769850  
  8510.000000   1772191   1774686   1776862   1778432   1779360  
  8500.000000   1779871   1780328   1781112   1782453   1784388  
  8490.000000   1786725   1789152   1791320   1792992   1794096  
  8480.000000   1794755   1795235   1795846   1796866   1798439  
  8470.000000   1800558   1803041   1805602   1807929   1809771  
  8460.000000   1811009   1811674   1811938   1812040   1812202  
  8450.000000   1812560   1813128   1813827   1814539   1815186  
  8440.000000   1815779   1816424   1817266   1818424   1819907  
  8430.000000   1821605   1823309   1824788   1825872   1826525  
  8420.000000   1826859   1827085   1827432   1828066   1829043  
  8410.000000   1830301   1831683   1833005   1834100   1834867  
  8400.000000   1835265   1835330   1835152   1834877   1834662  
  8390.000000   1834662   1834972   1835609   1836471   1837371  
  8380.000000   1838085   1838432   1838351   1837915   1837319  
  8370.000000   1836780   1836464   1836402   1836499   1836585  
  8360.000000   1836507   1836240   1835902   1835758   1836079  
  8350.000000   1837064   1838715   1840859   1843174   1845297  
  8340.000000   1846922   1847854   1848042   1847515   1846353  
  8330.000000   1844626   1842425   1839870   1837156   1834535  
  8320.000000   1832288   1830655   1829752   1829538   1829801  
  8310.000000   1830263   1830658   1830843   1830818   1830714  
  8300.000000   1830731   1831035   1831705   1832673   1833779  
  8290.000000   1834803   1835578   1835995   1836066   1835862  
  8280.000000   1835505   1835110   1834752   1834471   1834260  
  8270.000000   1834111   1834018   1834009   1834128   1834434  
  8260.000000   1834939   1835621   1836368   1837023   1837388  
  8250.000000   1837302   1836681   1835562   1834092   1832489  
  8240.000000   1830964   1829658   1828584   1827652   1826695  
  8230.000000   1825567   1824199   1822652   1821076   1819662  
  8220.000000   1818542   1817751   1817199   1816724   1816164  
  8210.000000   1815432   1814560   1813671   1812919   1812396  
  8200.000000   1812083   1811843   1811468   1810772   1809670  
  8190.000000   1808229   1806637   1805152   1803984   1803238  
  8180.000000   1802864   1802707   1802551   1802205   1801543  
  8170.000000   1800527   1799173   1797523   1795618   1793486  
  8160.000000   1791169   1788729   1786278   1783935   1781812  
  8150.000000   1779962   1778354   1776901   1775487   1774060  
  8140.000000   1772651   1771404   1770503   1770100   1770226  
  8130.000000   1770740   1771356   1771705   1771463   1770432  
  8120.000000   1768627   1766239   1763597   1761036   1758824  
  8110.000000   1757082   1755788   1754825   1754035   1753305  
  8100.000000   1752572   1751864   1751238   1750773   1750508  
  8090.000000   1750426   1750456   1750465   1750306   1749818  
  8080.000000   1748885   1747442   1745518   1743233   1740795  
  8070.000000   1738462   1736484   1735056   1734261   1734058  
  8060.000000   1734284   1734701   1735046   1735098   1734721  
  8050.000000   1733879   1732645   1731156   1729597   1728138  
  8040.000000   1726920   1726017   1725437   1725125   1724977  
  8030.000000   1724881   1724732   1724465   1724057   1723521  
  8020.000000   1722885   1722162   1721347   1720409   1719320  
  8010.000000   1718067   1716691   1715278   1713949   1712830  
  8000.000000   1712004   1711503   1711278   1711240   1711275  
  7990.000000   1711281   1711189   1710962   1710595   1710084  
  7980.000000   1709430   1708619   1707655   1706547   1705343  
  7970.000000   1704114   1702948   1701932   1701129   1700575  
  7960.000000   1700265   1700176   1700264   1700481   1700774  
  7950.000000   1701087   1701362   1701536   1701559   1701386  
  7940.000000   1701006   1700430   1699707   1698904   1698101  
  7930.000000   1697377   1696787   1696368   1696118   1696016  
  7920.000000   1696017   1696075   1696142   1696180   1696163  
  7910.000000   1696068   1695877   1695569   1695132   1694560  
  7900.000000   1693875   1693121   1692371   1691704   1691187  
  7890.000000   1690858   1690710   1690703   1690775   1690872  
  7880.000000   1690966   1691062   1691185   1691358   1691583  
  7870.000000   1691820   1692002   1692054   1691923   1691605  
  7860.000000   1691152   1690659   1690226   1689938   1689822  
  7850.000000   1689860   1689985   1690125   1690213   1690208  
  7840.000000   1690088   1689844   1689457   1688911   1688191  
  7830.000000   1687308   1686314   1685311   1684431   1683802  
  7820.000000   1683501   1683525   1683765   1684046   1684159  
  7810.000000   1683941   1683321   1682356   1681215   1680128  
  7800.000000   1679312   1678894   1678872   1679110   1679388  
  7790.000000   1679485   1679247   1678660   1677835   1676983  
  7780.000000   1676319   1675993   1676020   1676273   1676525  
  7770.000000   1676519   1676057   1675052   1673556   1671726  
  7760.000000   1669763   1667856   1666124   1664612   1663303  
  7750.000000   1662165   1661176   1660354   1659738   1659371  
  7740.000000   1659251   1659325   1659480   1659582   1659508  
  7730.000000   1659192   1658645   1657939   1657189   1656490  
  7720.000000   1655900   1655404   1654938   1654404   1653722  
  7710.000000   1652854   1651823   1650703   1649601   1648626  
  7700.000000   1647860   1647344   1647075   1647011   1647084  
  7690.000000   1647213   1647323   1647347   1647247   1647016  
  7680.000000   1646684   1646309   1645968   1645731   1645641  
  7670.000000   1645703   1645881   1646111   1646321   1646451  
  7660.000000   1646468   1646363   1646140   1645798   1645328  
  7650.000000   1644705   1643910   1642942   1641839   1640680  
  7640.000000   1639570   1638621   1637922   1637520   1637413  
  7630.000000   1637554   1637872   1638287   1638725   1639127  
  7620.000000   1639450   1639669   1639784   1639820   1639834  
  7610.000000   1639897   1640087   1640445   1640970   1641600  
  7600.000000   1642231   1642743   1643046   1643105   1642959  
  7590.000000   1642705   1642472   1642375   1642480   1642786  
  7580.000000   1643233   1643728   1644178   1644526   1644764  
  7570.000000   1644931   1645107   1645373   1645803   1646421  
  7560.000000   1647215   1648122   1649057   1649924   1650658  
  7550.000000   1651224   1651656   1652026   1652443   1653000  
  7540.000000   1653764   1654740   1655885   1657120   1658368  
  7530.000000   1659582   1660763   1661957   1663232   1664635  
  7520.000000   1666176   1667805   1669434   1670952   1672290  
  7510.000000   1673413   1674367   1675224   1676080   1677002  
  7500.000000   1678019   1679117   1680268   1681449   1682684  
  7490.000000   1684036   1685603   1687469   1689678   1692192  
  7480.000000   1694898   1697630   1700229   1702573   1704638  
  7470.000000   1706473   1708202   1709947   1711805   1713788  
  7460.000000   1715851   1717899   1719848   1721660   1723373  
  7450.000000   1725082   1726912   1728967   1731299   1733894  
  7440.000000   1736679   1739558   1742448   1745300   1748111  
  7430.000000   1750896   1753684   1756477   1759261   1761989  
  7420.000000   1764617   1767102   1769430   1771613   1773698  
  7410.000000   1775750   1777850   1780078   1782498   1785142  
  7400.000000   1787991   1790978   1793994   1796918   1799645  
  7390.000000   1802124   1804374   1806478   1808546   1810681  
  7380.000000   1812941   1815321   1817765   1820193   1822546  
  7370.000000   1824809   1827016   1829232   1831522   1833923  
  7360.000000   1836429   1839003   1841595   1844167   1846710  
  7350.000000   1849244   1851797   1854388   1857005   1859612  
  7340.000000   1862150   1864573   1866855   1869009   1871071  
  7330.000000   1873098   1875137   1877224   1879361   1881538  
  7320.000000   1883719   1885873   1887960   1889964   1891868  
  7310.000000   1893678   1895397   1897036   1898591   1900054  
  7300.000000   1901405   1902628   1903721   1904708   1905633  
  7290.000000   1906562   1907547   1908622   1909774   1910965  
  7280.000000   1912130   1913219   1914206   1915107   1915971  
  7270.000000   1916866   1917854   1918969   1920219   1921572  
  7260.000000   1922985   1924399   1925761   1927011   1928113  
  7250.000000   1929037   1929801   1930447   1931075   1931802  
  7240.000000   1932757   1934020   1935620   1937503   1939581  
  7230.000000   1941738   1943908   1946059   1948237   1950501  
  7220.000000   1952932   1955557   1958385   1961363   1964453  
  7210.000000   1967597   1970789   1974014   1977292   1980612  
  7200.000000   1983975   1987362   1990787   1994277   1997908  
  7190.000000   2001748   2005865   2010259   2014879   2019598  
  7180.000000   2024281   2028791   2033072   2037122   2041028  
  7170.000000   2044896   2048853   2052976   2057318   2061865  
  7160.000000   2066591   2071437   2076367   2081341   2086359  
  7150.000000   2091416   2096547   2101776   2107153   2112700  
  7140.000000   2118450   2124383   2130488   2136711   2143035  
  7130.000000   2149428   2155911   2162491   2169212   2176074  
  7120.000000   2183087   2190212   2197424   2204678   2211973  
  7110.000000   2219301   2226695   2234167   2241742   2249408  
  7100.000000   2257170   2265004   2272922   2280924   2289038  
  7090.000000   2297272   2305636   2314112   2322681   2331302  
  7080.000000   2339951   2348602   2357250   2365884   2374510  
  7070.000000   2383122   2391718   2400292   2408838   2417348  
  7060.000000   2425816   2434234   2442598   2450913   2459194  
  7050.000000   2467468   2475763   2484099   2492469   2500844  
  7040.000000   2509166   2517382   2525448   2533364   2541163  
  7030.000000   2548913   2556678   2564508   2572401   2580323  
  7020.000000   2588189   2595918   2603428   2610682   2617670  
  7010.000000   2624433   2631024   2637525   2643998   2650509  
  7000.000000   2657071   2663690   2670312   2676887   2683343  
  6990.000000   2689647   2695775   2701752   2707595   2713334  
  6980.000000   2718947   2724400   2729624   2734577   2739240  
  6970.000000   2743665   2747929   2752140   2756356   2760606  
  6960.000000   2764837   2768991   2772986   2776812   2780482  
  6950.000000   2784083   2787682   2791342   2795052   2798759  
  6940.000000   2802359   2805755   2808858   2811630   2814060  
  6930.000000   2816183   2818051   2819756   2821399   2823110  
  6920.000000   2824995   2827143   2829556   2832181   2834889  
  6910.000000   2837542   2840019   2842274   2844326   2846254  
  6900.000000   2848138   2850028   2851910   2853722   2855383  
  6890.000000   2856839   2858089   2859191   2860233   2861309  
  6880.000000   2862476   2863762   2865156   2866647   2868219  
  6870.000000   2869868   2871572   2873292   2874957   2876488  
  6860.000000   2877818   2878930   2879864   2880704   2881545  
  6850.000000   2882451   2883429   2884438   2885404   2886274  
  6840.000000   2887031   2887712   2888376   2889084   2889850  
  6830.000000   2890655   2891437   2892147   2892754   2893271  
  6820.000000   2893733   2894185   2894644   2895102   2895523  
  6810.000000   2895882   2896164   2896388   2896586   2896783  
  6800.000000   2896977   2897136   2897210   2897158   2896963  
  6790.000000   2896652   2896276   2895904   2895582   2895344  
  6780.000000   2895196   2895143   2895183   2895325   2895556  
  6770.000000   2895848   2896138   2896348   2896398   2896243  
  6760.000000   2895879   2895346   2894706   2894017   2893308  
  6750.000000   2892585   2891835   2891061   2890286   2889559  
  6740.000000   2888925   2888411   2887993   2887609   2887169  
  6730.000000   2886608   2885894   2885056   2884156   2883270  
  6720.000000   2882449   2881717   2881060   2880461   2879899  
  6710.000000   2879372   2878870   2878370   2877810   2877109  
  6700.000000   2876179   2874971   2873494   2871829   2870096  
  6690.000000   2868427   2866910   2865579   2864402   2863317  
  6680.000000   2862257   2861182   2860074   2858941   2857785  
  6670.000000   2856598   2855355   2854037   2852639   2851188  
  6660.000000   2849730   2848315   2846969   2845684   2844411  
  6650.000000   2843088   2841651   2840070   2838342   2836497  
  6640.000000   2834577   2832632   2830701   2828823   2827022  
  6630.000000   2825323   2823727   2822216   2820742   2819245  
  6620.000000   2817659   2815947   2814106   2812181   2810237  
  6610.000000   2808344   2806544   2804845   2803214   2801601  
  6600.000000   2799958   2798253   2796471   2794613   2792681  
  6590.000000   2790678   2788602   2786465   2784290   2782118  
  6580.000000   2780000   2777977   2776071   2774280   2772583  
  6570.000000   2770949   2769351   2767775   2766211   2764653  
  6560.000000   2763091   2761512   2759913   2758303   2756712  
  6550.000000   2755179   2753739   2752399   2751130   2749874  
  6540.000000   2748566   2747158   2745643   2744057   2742464  
  6530.000000   2740926   2739479   2738117   2736806   2735492  
  6520.000000   2734140   2732739   2731312   2729899   2728541  
  6510.000000   2727267   2726093   2725021   2724052   2723185  
  6500.000000   2722421   2721744   2721126   2720515   2719858  
  6490.000000   2719112   2718258   2717311   2716311   2715301  
  6480.000000   2714321   2713388   2712503   2711660   2710853  
  6470.000000   2710086   2709364   2708684   2708027   2707357  
  6460.000000   2706635   2705833   2704951   2704020   2703089  
  6450.000000   2702209   2701408   2700682   2699998   2699311  
  6440.000000   2698583   2697797   2696961   2696099   2695236  
  6430.000000   2694386   2693549   2692714   2691872   2691020  
  6420.000000   2690167   2689330   2688531   2687783   2687099  
  6410.000000   2686481   2685931   2685444   2685008   2684602  
  6400.000000   2684200   2683776   2683315   2682824   2682333  
  6390.000000   2681882   2681509   2681228   2681025   2680861  
  6380.000000   2680683   2680448   2680136   2679752   2679320  
  6370.000000   2678860   2678379   2677865   2677292   2676643  
  6360.000000   2675915   2675131   2674333   2673560   2672840  
  6350.000000   2672179   2671562   2670971   2670387   2669809  
  6340.000000   2669233   2668663   2668091   2667504   2666888  
  6330.000000   2666242   2665576   2664919   2664297   2663724  
  6320.000000   2663183   2662636   2662021   2661293   2660417  
  6310.000000   2659401   2658264   2657045   2655767   2654441  
  6300.000000   2653061   2651625   2650130   2648599   2647049  
  6290.000000   2645508   2643976   2642449   2640902   2639323  
  6280.000000   2637702   2636055   2634390   2632722   2631033  
  6270.000000   2629295   2627459   2625493   2623376   2621126  
  6260.000000   2618775   2616370   2613940   2611504   2609059  
  6250.000000   2606605   2604145   2601706   2599316   2597011  
  6240.000000   2594800   2592677   2590607   2588555   2586482  
  6230.000000   2584368   2582204   2579984   2577702   2575345  
  6220.000000   2572899   2570362   2567749   2565095   2562448  
  6210.000000   2559851   2557327   2554878   2552482   2550115  
  6200.000000   2547761   2545421   2543112   2540854   2538656  
  6190.000000   2536511   2534393   2532274   2530136   2527977  
  6180.000000   2525817   2523682   2521594   2519556   2517557  
  6170.000000   2515572   2513577   2511558   2509516   2507463  
  6160.000000   2505418   2503398   2501416   2499480   2497594  
  6150.000000   2495760   2493976   2492232   2490510   2488785  
  6140.000000   2487037   2485257   2483460   2481672   2479936  
  6130.000000   2478283   2476729   2475263   2473859   2472478  
  6120.000000   2471091   2469684   2468262   2466837   2465427  
  6110.000000   2464040   2462681   2461341   2460025   2458732  
  6100.000000   2457479   2456272   2455123   2454027   2452980  
  6090.000000   2451968   2450987   2450041   2449147   2448321  
  6080.000000   2447587   2446947   2446405   2445940   2445539  
  6070.000000   2445171   2444823   2444473   2444121   2443763  
  6060.000000   2443422   2443117   2442889   2442762   2442766  
  6050.000000   2442901   2443161   2443511   2443929   2444382  
  6040.000000   2444866   2445383   2445954   2446596   2447332  
  6030.000000   2448164   2449099   2450125   2451240   2452428  
  6020.000000   2453682   2454979   2456302   2457627   2458949  
  6010.000000   2460261   2461581   2462921   2464297   2465703  
  6000.000000   2467124   2468526   2469887   2471190   2472453  
  5990.000000   2473706   2474999   2476367   2477837   2479402  
  5980.000000   2481047   2482745   2484487   2486273   2488126  
  5970.000000   2490069   2492125   2494296   2496576   2498941  
  5960.000000   2501374   2503848   2506355   2508876   2511406  
  5950.000000   2513926   2516433   2518918   2521400   2523899  
  5940.000000   2526454   2529091   2531831   2534672   2537598  
  5930.000000   2540581   2543595   2546619   2549642   2552660  
  5920.000000   2555668   2558655   2561608   2564510   2567350  
  5910.000000   2570121   2572827   2575472   2578064   2580609  
  5900.000000   2583114   2585589   2588052   2590529   2593048  
  5890.000000   2595634   2598300   2601046   2603858   2606714  
  5880.000000   2609586   2612447   2615268   2618018   2620668  
  5870.000000   2623188   2625566   2627802   2629926   2631984  
  5860.000000   2634037   2636137   2638324   2640608   2642982  
  5850.000000   2645427   2647922   2650456   2653026   2655640  
  5840.000000   2658302   2661014   2663768   2666554   2669356  
  5830.000000   2672160   2674954   2677721   2680444   2683105  
  5820.000000   2685688   2688186   2690597   2692937   2695210  
  5810.000000   2697430   2699586   2701675   2703672   2705579  
  5800.000000   2707386   2709116   2710765   2712354   2713852  
  5790.000000   2715244   2716475   2717522   2718341   2718929  
  5780.000000   2719263   2719340   2719126   2718605   2717745  
  5770.000000   2716558   2715071   2713366   2711533   2709680  
  5760.000000   2707884   2706204   2704659   2703258   2701995  
  5750.000000   2700880   2699926   2699148   2698551   2698123  
  5740.000000   2697837   2697648   2697524   2697427   2697346  
  5730.000000   2697263   2697180   2697087   2696991   2696891  
  5720.000000   2696814   2696781   2696826   2696965   2697209  
  5710.000000   2697539   2697936   2698376   2698853   2699374  
  5700.000000   2699963   2700638   2701403   2702239   2703109  
  5690.000000   2703966   2704773   2705510   2706175   2706780  
  5680.000000   2707330   2707822   2708233   2708538   2708704  
  5670.000000   2708723   2708590   2708327   2707947   2707475  
  5660.000000   2706914   2706277   2705566   2704796   2703975  
  5650.000000   2703122   2702242   2701343   2700420   2699477  
  5640.000000   2698519   2697562   2696621   2695712   2694838  
  5630.000000   2693993   2693167   2692355   2691562   2690808  
  5620.000000   2690110   2689483   2688916   2688381   2687835  
  5610.000000   2687238   2686564   2685816   2685016   2684200  
  5600.000000   2683392   2682602   2681815   2681008   2680153  
  5590.000000   2679242   2678281   2677291   2676297   2675317  
  5580.000000   2674353   2673401   2672440   2671460   2670443  
  5570.000000   2669386   2668279   2667123   2665916   2664664  
  5560.000000   2663378   2662077   2660780   2659501   2658241  
  5550.000000   2656995   2655752   2654505   2653259   2652033  
  5540.000000   2650851   2649734   2648691   2647715   2646787  
  5530.000000   2645887   2644999   2644119   2643249   2642392  
  5520.000000   2641544   2640689   2639806   2638878   2637893  
  5510.000000   2636857   2635782   2634683   2633566   2632428  
  5500.000000   2631259   2630052   2628805   2627532   2626244  
  5490.000000   2624958   2623665   2622357   2621005   2619600  
  5480.000000   2618135   2616631   2615109   2613596   2612092  
  5470.000000   2610583   2609030   2607402   2605668   2603828  
  5460.000000   2601891   2599880   2597809   2595689   2593518  
  5450.000000   2591300   2589046   2586782   2584539   2582343  
  5440.000000   2580205   2578118   2576066   2574033   2572022  
  5430.000000   2570042   2568116   2566252   2564450   2562687  
  5420.000000   2560950   2559227   2557550   2555961   2554530  
  5410.000000   2553292   2552264   2551404   2550668   2549995  
  5400.000000   2549371   2548797   2548326   2547991   2547840  
  5390.000000   2547859   2548038   2548327   2548718   2549198  
  5380.000000   2549813   2550579   2551540   2552674   2553974  
  5370.000000   2555382   2556891   2558467   2560157   2561969  
  5360.000000   2563976   2566185   2568662   2571399   2574462  
  5350.000000   2577850   2581638   2585813   2590430   2595434  
  5340.000000   2600854   2606626   2612802   2619352   2626359  
  5330.000000   2633791   2641713   2650058   2658868   2668076  
  5320.000000   2677774   2687954   2698769   2710231   2722482  
  5310.000000   2735475   2749281   2763797   2779074   2795031  
  5300.000000   2811770   2829267   2847665   2866960   2887281  
  5290.000000   2908581   2930916   2954158   2978274   3003085  
  5280.000000   3028545   3054535   3081104   3108252   3136103  
  5270.000000   3164676   3193992   3223913   3254258   3284779  
  5260.000000   3315271   3345621   3375807   3405906   3435966  
  5250.000000   3466017   3495925   3525525   3554511   3582707  
  5240.000000   3609905   3636144   3661422   3685938   3709738  
  5230.000000   3732976   3755574   3777544   3798692   3818985  
  5220.000000   3838258   3856581   3873907   3890418   3906134  
  5210.000000   3921236   3935678   3949527   3962615   3974930  
  5200.000000   3986298   3996771   4006288   4015001   4022909  
  5190.000000   4030154   4036683   4042560   4047679   4052097  
  5180.000000   4055748   4058749   4061090   4062900   4064154  
  5170.000000   4064931   4065168   4064927   4064161   4062959  
  5160.000000   4061302   4059272   4056826   4054004   4050738  
  5150.000000   4047059   4042931   4038425   4033546   4028376  
  5140.000000   4022915   4017216   4011256   4005075   3998663  
  5130.000000   3992077   3985327   3978469   3971503   3964460  
  5120.000000   3957326   3950123   3942848   3935534   3928185  
  5110.000000   3920825   3913436   3906015   3898532   3890985  
  5100.000000   3883371   3875719   3868051   3860405   3852795  
  5090.000000   3845234   3837710   3830222   3822757   3815318  
  5080.000000   3807898   3800497   3793100   3785694   3778255  
  5070.000000   3770776   3763254   3755704   3748142   3740588  
  5060.000000   3733044   3725509   3717963   3710391   3702777  
  5050.000000   3695120   3687422   3679698   3671956   3664209  
  5040.000000   3656465   3648733   3641030   3633375   3625791  
  5030.000000   3618293   3610894   3603586   3596367   3589219  
  5020.000000   3582146   3575148   3568253   3561471   3554838  
  5010.000000   3548355   3542041   3535881   3529889   3524051  
  5000.000000   3518394   3512911   3507637   3502559   3497705  
  4990.000000   3493053   3488632   3484430   3480497   3476831  
  4980.000000   3473489   3470463   3467791   3465440   3463437  
  4970.000000   3461741   3460390   3459355   3458688   3458363  
  4960.000000   3458423   3458830   3459617   3460742   3462249  
  4950.000000   3464108   3466375   3469024   3472101   3475562  
  4940.000000   3479430   3483646   3488226   3493113   3498332  
  4930.000000   3503839   3509663   3515765   3522173   3528849  
  4920.000000   3535822   3543058   3550584   3558369   3566432  
  4910.000000   3574742   3583315   3592122   3601174   3610447  
  4900.000000   3619944   3629633   3639503   3649513   3659639  
  4890.000000   3669840   3680085   3690337   3700562   3710730  
  4880.000000   3720805   3730767   3740589   3750264   3759766  
  4870.000000   3769094   3778214   3787116   3795762   3804150  
  4860.000000   3812251   3820085   3827642   3834956   3842019  
  4850.000000   3848864   3855479   3861896   3868106   3874148  
  4840.000000   3880014   3885737   3891295   3896701   3901919  
  4830.000000   3906958   3911796   3916457   3920939   3925275  
  4820.000000   3929458   3933507   3937398   3941137   3944705  
  4810.000000   3948117   3951374   3954506   3957518   3960435  
  4800.000000   3963256   3965995   3968650   3971245   3973786  
  4790.000000   3976306   3978810   3981321   3983830   3986342  
  4780.000000   3988837   3991315   3993751   3996141   3998451  
  4770.000000   4000667   4002748   4004679   4006432   4008013  
  4760.000000   4009419   4010678   4011792   4012783   4013636  
  4750.000000   4014356   4014913   4015308   4015515   4015544  
  4740.000000   4015376   4015027   4014483   4013761   4012853  
  4730.000000   4011786   4010564   4009221   4007762   4006212  
  4720.000000   4004566   4002833   4001003   3999090   3997098  
  4710.000000   3995059   3992997   3990947   3988928   3986956  
  4700.000000   3985026   3983132   3981256   3979387   3977512  
  4690.000000   3975631   3973744   3971856   3969967   3968078  
  4680.000000   3966179   3964258   3962298   3960280   3958193  
  4670.000000   3956026   3953787   3951482   3949141   3946789  
  4660.000000   3944467   3942205   3940045   3938015   3936154  
  4650.000000   3934485   3933041   3931837   3930886   3930180  
  4640.000000   3929705   3929422   3929295   3929270   3929308  
  4630.000000   3929364   3929411   3929421   3929384   3929283  
  4620.000000   3929118   3928881   3928575   3928198   3927756  
  4610.000000   3927249   3926683   3926068   3925416   3924749  
  4600.000000   3924089   3923462   3922882   3922358   3921877  
  4590.000000   3921423   3920960   3920463   3919899   3919256  
  4580.000000   3918523   3917704   3916803   3915833   3914799  
  4570.000000   3913715   3912585   3911422   3910224   3908997  
  4560.000000   3907734   3906432   3905084   3903693   3902260  
  4550.000000   3900797   3899312   3897811   3896291   3894740  
  4540.000000   3893146   3891498   3889802   3888073   3886351  
  4530.000000   3884668   3883072   3881577   3880212   3878957  
  4520.000000   3877827   3876796   3875898   3875130   3874564  
  4510.000000   3874219   3874194   3874514   3875281   3876505  
  4500.000000   3878279   3880590   3883514   3887018   3891175  
  4490.000000   3895945   3901407   3907527   3914387   3921945  
  4480.000000   3930264   3939283   3949037   3959448   3970535  
  4470.000000   3982220   3994513   4007332   4020672   4034440  
  4460.000000   4048605   4063063   4077769   4092622   4107572  
  4450.000000   4122533   4137463   4152304   4167036   4181641  
  4440.000000   4196121   4210494   4224760   4238947   4253029  
  4430.000000   4267020   4280862   4294564   4308046   4321317  
  4420.000000   4334283   4346947   4359195   4371016   4382271  
  4410.000000   4392933   4402850   4411986   4420199   4427474  
  4400.000000   4433712   4438956   4443179   4446492   4448935  
  4390.000000   4450656   4451726   4452290   4452415   4452225  
  4380.000000   4451786   4451211   4450584   4450027   4449645  
  4370.000000   4449563   4449888   4450712   4452111   4454115  
  4360.000000   4456742   4459964   4463744   4468014   4472708  
  4350.000000   4477750   4483068   4488610   4494329   4500205  
  4340.000000   4506212   4512323   4518467   4524522   4530289  
  4330.000000   4535509   4539886   4543150   4545102   4545697  
  4320.000000   4545043   4543428   4541229   4538889   4536774  
  4310.000000   4535184   4534233   4533952   4534225   4534932  
  4300.000000   4535901   4537024   4538190   4539339   4540412  
  4290.000000   4541371   4542183   4542829   4543316   4543670  
  4280.000000   4543932   4544158   4544386   4544666   4545008  
  4270.000000   4545440   4545936   4546480   4546984   4547348  
  4260.000000   4547405   4546989   4545927   4544115   4541519  
  4250.000000   4538222   4534381   4530236   4526019   4521962  
  4240.000000   4518207   4514849   4511881   4509269   4506921  
  4230.000000   4504755   4502673   4500598   4498462   4496209  
  4220.000000   4493816   4491267   4488592   4485821   4483027  
  4210.000000   4480261   4477600   4475081   4472752   4470625  
  4200.000000   4468723   4467036   4465576   4464315   4463258  
  4190.000000   4462365   4461645   4461060   4460643   4460374  
  4180.000000   4460311   4460447   4460848   4461507   4462493  
  4170.000000   4463803   4465525   4467672   4470344   4473553  
  4160.000000   4477381   4481801   4486853   4492468   4498665  
  4150.000000   4505362   4512579   4520245   4528395   4536972  
  4140.000000   4546029   4555527   4565536   4576030   4587078  
  4130.000000   4598639   4610754   4623354   4636451   4649972  
  4120.000000   4663931   4678278   4693053   4708229   4723849  
  4110.000000   4739884   4756356   4773215   4790454   4808002  
  4100.000000   4825832   4843871   4862092   4880448   4898941  
  4090.000000   4917566   4936346   4955295   4974419   4993717  
  4080.000000   5013160   5032729   5052378   5072090   5091806  
  4070.000000   5111500   5131084   5150517   5169690   5188576  
  4060.000000   5207090   5225251   5243001   5260385   5277332  
  4050.000000   5293880   5309939   5325552   5340627   5355223  
  4040.000000   5369234   5382696   5395461   5407537   5418757  
  4030.000000   5429144   5438559   5447050   5454507   5460970  
  4020.000000   5466301   5470557   5473695   5475819   5476886  
  4010.000000   5477091   5476549   5475330   5473212   5470305  
  4000.000000   5466999  
##END= 
