##TITLE= Sample 018 By ssteindl date Dienstag, November 20 2018
##JCAMP-DX= 4.24
##DATA TYPE= INFRARED SPECTRUM
##ORIGIN= Exported PE Spectrum Data File
##OWNER= Sandra Steindl
##DATE= 18/11/20
##TIME= 17:11:52.00
##SPECTROMETER/DATA SYSTEM= PERKIN-ELMER Frontier FT-IR/NIR IR
##INSTRUMENT PARAMETERS=
  APODIZATION=stark
  DETECTOR=INGAAS
##RESOLUTION= 16.000000
##DELTAX= -2.000000
##XUNITS= 1/CM
##YUNITS= A
##XFACTOR= 1.00
##YFACTOR= 0.00000011920928955078
##FIRSTX= 10000.00
##LASTX= 4000.00
##NPOINTS= 3001
##FIRSTY= 0.225178
##MAXY= 0.591052
##MINY= 0.187897
##XYDATA= (X++(Y..Y))
 10000.000000   1888926   1881420   1872617   1861558   1849766  
  9990.000000   1839859   1833207   1829745   1829114   1831021  
  9980.000000   1834907   1839981   1845658   1851277   1855991  
  9970.000000   1858649   1858332   1854449   1847145   1837265  
  9960.000000   1826323   1816057   1808089   1803495   1802617  
  9950.000000   1805071   1809895   1815855   1821657   1826185  
  9940.000000   1828604   1828470   1825798   1821077   1815251  
  9930.000000   1809519   1805107   1802931   1803368   1806165  
  9920.000000   1810506   1815289   1819410   1822067   1822901  
  9910.000000   1821958   1819551   1816003   1811554   1806292  
  9900.000000   1800351   1794015   1787886   1782792   1779603  
  9890.000000   1778924   1780864   1784921   1790145   1795368  
  9880.000000   1799625   1802340   1803464   1803333   1802461  
  9870.000000   1801367   1800487   1800222   1801044   1803466  
  9860.000000   1807976   1814726   1823283   1832496   1840574  
  9850.000000   1845601   1846065   1841530   1832849   1822074  
  9840.000000   1811861   1804682   1802059   1804132   1809646  
  9830.000000   1816424   1822017   1824478   1822816   1817266  
  9820.000000   1809054   1800059   1792193   1786981   1785174  
  9810.000000   1786687   1790700   1795914   1800929   1804571  
  9800.000000   1806144   1805541   1803127   1799562   1795509  
  9790.000000   1791421   1787505   1783721   1780037   1776479  
  9780.000000   1773273   1770713   1769026   1768223   1768011  
  9770.000000   1767924   1767471   1766402   1764802   1763093  
  9760.000000   1761866   1761624   1762607   1764670   1767396  
  9750.000000   1770227   1772680   1774409   1775228   1775033  
  9740.000000   1773780   1771491   1768365   1764802   1761413  
  9730.000000   1758845   1757571   1757678   1758784   1760164  
  9720.000000   1761009   1760778   1759426   1757439   1755637  
  9710.000000   1754801   1755352   1757147   1759574   1761810  
  9700.000000   1763166   1763350   1762533   1761251   1760167  
  9690.000000   1759826   1760507   1762149   1764432   1766840  
  9680.000000   1768776   1769659   1769015   1766648   1762697  
  9670.000000   1757787   1752865   1749087   1747418   1748350  
  9660.000000   1751680   1756494   1761449   1765099   1766353  
  9650.000000   1764701   1760328   1753974   1746713   1739687  
  9640.000000   1733907   1730151   1728874   1730228   1733949  
  9630.000000   1739439   1745727   1751742   1756475   1759274  
  9620.000000   1759965   1758775   1756245   1752841   1748940  
  9610.000000   1744568   1739683   1734200   1728284   1722385  
  9600.000000   1717160   1713362   1711513   1711902   1714424  
  9590.000000   1718799   1724572   1731262   1738329   1745145  
  9580.000000   1751038   1755301   1757441   1757239   1754960  
  9570.000000   1751205   1746835   1742653   1739225   1736776  
  9560.000000   1735181   1734205   1733543   1733100   1732833  
  9550.000000   1732828   1733082   1733528   1733995   1734280  
  9540.000000   1734223   1733682   1732557   1730682   1727905  
  9530.000000   1724103   1719413   1714279   1709502   1706025  
  9520.000000   1704607   1705532   1708386   1712225   1715856  
  9510.000000   1718345   1719315   1719097   1718488   1718387  
  9500.000000   1719358   1721369   1723821   1725777   1726396  
  9490.000000   1725204   1722307   1718204   1713598   1709057  
  9480.000000   1704900   1701186   1697847   1694835   1692180  
  9470.000000   1690017   1688490   1687753   1687887   1689002  
  9460.000000   1691155   1694412   1698674   1703641   1708743  
  9450.000000   1713205   1716271   1717385   1716446   1713773  
  9440.000000   1710032   1705904   1701883   1698091   1694374  
  9430.000000   1690498   1686373   1682226   1678489   1675711  
  9420.000000   1674226   1674102   1675053   1676649   1678477  
  9410.000000   1680289   1682009   1683592   1684933   1685721  
  9400.000000   1685599   1684259   1681747   1678487   1675251  
  9390.000000   1672829   1671711   1671888   1672849   1673888  
  9380.000000   1674381   1674150   1673462   1672961   1673270  
  9370.000000   1674699   1677018   1679534   1681398   1681901  
  9360.000000   1680796   1678268   1674853   1671113   1667419  
  9350.000000   1663890   1660450   1657094   1653988   1651549  
  9340.000000   1650283   1650602   1652599   1655932   1659829  
  9330.000000   1663297   1665394   1665526   1663601   1660008  
  9320.000000   1655510   1651044   1647542   1645693   1645769  
  9310.000000   1647527   1650267   1653006   1654733   1654668  
  9300.000000   1652468   1648341   1643017   1637517   1632875  
  9290.000000   1629793   1628530   1628858   1630249   1632052  
  9280.000000   1633703   1634883   1635537   1635863   1636156  
  9270.000000   1636717   1637778   1639421   1641609   1644077  
  9260.000000   1646446   1648225   1649016   1648591   1646978  
  9250.000000   1644506   1641697   1639221   1637641   1637322  
  9240.000000   1638286   1640306   1642953   1645758   1648222  
  9230.000000   1649927   1650518   1649771   1647624   1644197  
  9220.000000   1639871   1635194   1630838   1627325   1624903  
  9210.000000   1623428   1622466   1621473   1620032   1618076  
  9200.000000   1615955   1614323   1613859   1614998   1617726  
  9190.000000   1621581   1625801   1629616   1632504   1634345  
  9180.000000   1635383   1636074   1636849   1637929   1639234  
  9170.000000   1640407   1640972   1640479   1638693   1635595  
  9160.000000   1631404   1626493   1621319   1616356   1611998  
  9150.000000   1608554   1606188   1604961   1604783   1605490  
  9140.000000   1606843   1608621   1610653   1612833   1615117  
  9130.000000   1617438   1619707   1621729   1623280   1624099  
  9120.000000   1624034   1623076   1621443   1619521   1617784  
  9110.000000   1616685   1616485   1617215   1618573   1620104  
  9100.000000   1621268   1621689   1621211   1619984   1618372  
  9090.000000   1616797   1615560   1614683   1613933   1612854  
  9080.000000   1611014   1608142   1604317   1599934   1595613  
  9070.000000   1592021   1589675   1588830   1589421   1591163  
  9060.000000   1593677   1596574   1599528   1602272   1604617  
  9050.000000   1606395   1607508   1607908   1607709   1607108  
  9040.000000   1606396   1605822   1605552   1605621   1605923  
  9030.000000   1606341   1606779   1607303   1608049   1609201  
  9020.000000   1610823   1612816   1614880   1616563   1617389  
  9010.000000   1616998   1615287   1612399   1608687   1604631  
  9000.000000   1600747   1597500   1595207   1594048   1594032  
  8990.000000   1595024   1596697   1598633   1600361   1601489  
  8980.000000   1601769   1601178   1599935   1598403   1596979  
  8970.000000   1595928   1595338   1595075   1594891   1594510  
  8960.000000   1593782   1592716   1591493   1590356   1589506  
  8950.000000   1589011   1588782   1588634   1588377   1587942  
  8940.000000   1587442   1587163   1587449   1588594   1590697  
  8930.000000   1593607   1596908   1600048   1602496   1603862  
  8920.000000   1604019   1603073   1601368   1599284   1597157  
  8910.000000   1595154   1593307   1591540   1589756   1587956  
  8900.000000   1586261   1584938   1584276   1584555   1585904  
  8890.000000   1588280   1591411   1594873   1598160   1600788  
  8880.000000   1602379   1602742   1601944   1600272   1598192  
  8870.000000   1596201   1594735   1593991   1593909   1594151  
  8860.000000   1594258   1593774   1592432   1590242   1587509  
  8850.000000   1584728   1582416   1580976   1580615   1581329  
  8840.000000   1582969   1585321   1588180   1591360   1594671  
  8830.000000   1597882   1600728   1602957   1604420   1605119  
  8820.000000   1605244   1605100   1605020   1605214   1605703  
  8810.000000   1606312   1606768   1606839   1606417   1605588  
  8800.000000   1604553   1603560   1602774   1602246   1601924  
  8790.000000   1601726   1601620   1601654   1601954   1602625  
  8780.000000   1603693   1605046   1606476   1607760   1608756  
  8770.000000   1609473   1610057   1610734   1611701   1613056  
  8760.000000   1614759   1616665   1618582   1620333   1621779  
  8750.000000   1622819   1623365   1623329   1622653   1621341  
  8740.000000   1619531   1617474   1615489   1613860   1612741  
  8730.000000   1612112   1611812   1611634   1611455   1611303  
  8720.000000   1611380   1611935   1613146   1614980   1617175  
  8710.000000   1619304   1620965   1621939   1622335   1622542  
  8700.000000   1623116   1624538   1627030   1630443   1634298  
  8690.000000   1637955   1640828   1642571   1643171   1642921  
  8680.000000   1642298   1641781   1641702   1642158   1643038  
  8670.000000   1644091   1645048   1645703   1645980   1645947  
  8660.000000   1645763   1645659   1645830   1646437   1647546  
  8650.000000   1649145   1651146   1653401   1655756   1658033  
  8640.000000   1660079   1661748   1662954   1663650   1663874  
  8630.000000   1663721   1663377   1663066   1663026   1663458  
  8620.000000   1664470   1666079   1668200   1670691   1673388  
  8610.000000   1676137   1678808   1681289   1683479   1685280  
  8600.000000   1686619   1687475   1687925   1688153   1688423  
  8590.000000   1689030   1690198   1692014   1694378   1697040  
  8580.000000   1699666   1701929   1703584   1704524   1704770  
  8570.000000   1704457   1703755   1702881   1702054   1701534  
  8560.000000   1701577   1702426   1704210   1706885   1710149  
  8550.000000   1713500   1716311   1718018   1718268   1717055  
  8540.000000   1714740   1711945   1709384   1707621   1706927  
  8530.000000   1707215   1708123   1709151   1709847   1709953  
  8520.000000   1709464   1708611   1707738   1707197   1707229  
  8510.000000   1707910   1709162   1710789   1712579   1714332  
  8500.000000   1715937   1717347   1718587   1719706   1720749  
  8490.000000   1721737   1722664   1723507   1724269   1724967  
  8480.000000   1725675   1726465   1727403   1728491   1729653  
  8470.000000   1730744   1731600   1732113   1732296   1732307  
  8460.000000   1732423   1732947   1734098   1735920   1738245  
  8450.000000   1740753   1743091   1745000   1746421   1747493  
  8440.000000   1748485   1749663   1751158   1752910   1754694  
  8430.000000   1756235   1757336   1757983   1758337   1758684  
  8420.000000   1759264   1760205   1761414   1762682   1763739  
  8410.000000   1764412   1764665   1764602   1764383   1764117  
  8400.000000   1763791   1763271   1762385   1761034   1759290  
  8390.000000   1757392   1755683   1754487   1753991   1754195  
  8380.000000   1754917   1755901   1756921   1757866   1758744  
  8370.000000   1759628   1760582   1761589   1762549   1763315  
  8360.000000   1763779   1763920   1763833   1763674   1763593  
  8350.000000   1763658   1763839   1764030   1764110   1764007  
  8340.000000   1763726   1763345   1762955   1762621   1762340  
  8330.000000   1762072   1761770   1761446   1761177   1761089  
  8320.000000   1761296   1761844   1762664   1763582   1764364  
  8310.000000   1764797   1764766   1764279   1763456   1762473  
  8300.000000   1761508   1760698   1760115   1759782   1759691  
  8290.000000   1759824   1760157   1760660   1761274   1761909  
  8280.000000   1762440   1762739   1762699   1762278   1761497  
  8270.000000   1760459   1759325   1758300   1757575   1757302  
  8260.000000   1757515   1758141   1758976   1759743   1760136  
  8250.000000   1759910   1758932   1757229   1754972   1752425  
  8240.000000   1749871   1747531   1745540   1743914   1742591  
  8230.000000   1741452   1740379   1739279   1738114   1736903  
  8220.000000   1735717   1734671   1733897   1733522   1733631  
  8210.000000   1734231   1735235   1736469   1737718   1738784  
  8200.000000   1739530   1739917   1739987   1739834   1739547  
  8190.000000   1739168   1738671   1737983   1737022   1735742  
  8180.000000   1734150   1732321   1730344   1728325   1726332  
  8170.000000   1724428   1722651   1721050   1719667   1718534  
  8160.000000   1717640   1716922   1716267   1715538   1714619  
  8150.000000   1713451   1712062   1710546   1709050   1707707  
  8140.000000   1706616   1705801   1705232   1704827   1704481  
  8130.000000   1704087   1703554   1702827   1701892   1700793  
  8120.000000   1699622   1698507   1697573   1696891   1696448  
  8110.000000   1696129   1695757   1695138   1694143   1692740  
  8100.000000   1691020   1689160   1687359   1685789   1684537  
  8090.000000   1683621   1682996   1682620   1682456   1682491  
  8080.000000   1682695   1682997   1683274   1683358   1683090  
  8070.000000   1682351   1681118   1679448   1677474   1675348  
  8060.000000   1673217   1671206   1669409   1667914   1666792  
  8050.000000   1666095   1665817   1665881   1666118   1666310  
  8040.000000   1666229   1665712   1664706   1663283   1661614  
  8030.000000   1659910   1658369   1657108   1656171   1655514  
  8020.000000   1655053   1654671   1654252   1653685   1652885  
  8010.000000   1651813   1650496   1649042   1647635   1646488  
  8000.000000   1645794   1645654   1646044   1646808   1647708  
  7990.000000   1648486   1648940   1648970   1648585   1647880  
  7980.000000   1646992   1646057   1645191   1644466   1643926  
  7970.000000   1643576   1643384   1643276   1643136   1642844  
  7960.000000   1642300   1641489   1640482   1639448   1638585  
  7950.000000   1638058   1637935   1638141   1638499   1638760  
  7940.000000   1638714   1638225   1637290   1636004   1634534  
  7930.000000   1633056   1631731   1630686   1630019   1629808  
  7920.000000   1630102   1630904   1632139   1633657   1635234  
  7910.000000   1636638   1637679   1638265   1638422   1638257  
  7900.000000   1637916   1637504   1637068   1636578   1635979  
  7890.000000   1635234   1634368   1633475   1632681   1632114  
  7880.000000   1631826   1631804   1631956   1632172   1632359  
  7870.000000   1632472   1632518   1632529   1632526   1632503  
  7860.000000   1632422   1632243   1631951   1631581   1631207  
  7850.000000   1630916   1630756   1630715   1630703   1630594  
  7840.000000   1630274   1629694   1628889   1627971   1627075  
  7830.000000   1626306   1625686   1625164   1624629   1623988  
  7820.000000   1623211   1622362   1621581   1621022   1620790  
  7810.000000   1620873   1621136   1621352   1621280   1620752  
  7800.000000   1619738   1618368   1616890   1615600   1614734  
  7790.000000   1614413   1614589   1615077   1615604   1615900  
  7780.000000   1615759   1615095   1613942   1612433   1610747  
  7770.000000   1609061   1607509   1606159   1605025   1604070  
  7760.000000   1603243   1602483   1601743   1600981   1600165  
  7750.000000   1599272   1598288   1597218   1596097   1594990  
  7740.000000   1593991   1593198   1592692   1592504   1592598  
  7730.000000   1592876   1593200   1593424   1593443   1593209  
  7720.000000   1592745   1592114   1591399   1590657   1589915  
  7710.000000   1589157   1588363   1587525   1586674   1585880  
  7700.000000   1585230   1584799   1584615   1584651   1584821  
  7690.000000   1585025   1585172   1585223   1585197   1585156  
  7680.000000   1585173   1585286   1585483   1585681   1585765  
  7670.000000   1585613   1585146   1584353   1583295   1582102  
  7660.000000   1580930   1579938   1579242   1578903   1578910  
  7650.000000   1579191   1579626   1580071   1580388   1580464  
  7640.000000   1580244   1579728   1578989   1578142   1577331  
  7630.000000   1576686   1576298   1576198   1576359   1576717  
  7620.000000   1577190   1577715   1578252   1578792   1579336  
  7610.000000   1579878   1580392   1580827   1581128   1581244  
  7600.000000   1581170   1580935   1580614   1580289   1580041  
  7590.000000   1579912   1579908   1579999   1580137   1580281  
  7580.000000   1580406   1580509   1580606   1580718   1580870  
  7570.000000   1581082   1581377   1581771   1582278   1582881  
  7560.000000   1583547   1584199   1584757   1585138   1585314  
  7550.000000   1585313   1585240   1585236   1585451   1585978  
  7540.000000   1586837   1587970   1589265   1590605   1591907  
  7530.000000   1593145   1594351   1595573   1596858   1598195  
  7520.000000   1599545   1600816   1601936   1602843   1603541  
  7510.000000   1604075   1604537   1605030   1605666   1606542  
  7500.000000   1607738   1609296   1611207   1613405   1615768  
  7490.000000   1618137   1620358   1622310   1623958   1625341  
  7480.000000   1626575   1627787   1629086   1630508   1632035  
  7470.000000   1633600   1635143   1636637   1638105   1639611  
  7460.000000   1641221   1642972   1644850   1646797   1648738  
  7450.000000   1650609   1652391   1654094   1655762   1657425  
  7440.000000   1659105   1660789   1662472   1664147   1665840  
  7430.000000   1667591   1669454   1671464   1673628   1675925  
  7420.000000   1678322   1680794   1683335   1685955   1688660  
  7410.000000   1691436   1694234   1696976   1699580   1701986  
  7400.000000   1704183   1706213   1708148   1710065   1712016  
  7390.000000   1714009   1716016   1717987   1719873   1721650  
  7380.000000   1723316   1724896   1726426   1727954   1729527  
  7370.000000   1731198   1733018   1735028   1737237   1739618  
  7360.000000   1742102   1744590   1746984   1749207   1751233  
  7350.000000   1753078   1754790   1756417   1757998   1759542  
  7340.000000   1761050   1762530   1764013   1765564   1767250  
  7330.000000   1769130   1771217   1773474   1775806   1778105  
  7320.000000   1780263   1782209   1783912   1785384   1786661  
  7310.000000   1787796   1788839   1789839   1790829   1791839  
  7300.000000   1792875   1793937   1795004   1796061   1797088  
  7290.000000   1798088   1799065   1800035   1800992   1801923  
  7280.000000   1802794   1803577   1804262   1804876   1805480  
  7270.000000   1806147   1806930   1807832   1808797   1809725  
  7260.000000   1810517   1811110   1811524   1811847   1812224  
  7250.000000   1812791   1813645   1814795   1816184   1817695  
  7240.000000   1819222   1820676   1822040   1823329   1824608  
  7230.000000   1825928   1827354   1828916   1830654   1832578  
  7220.000000   1834701   1837003   1839460   1842023   1844659  
  7210.000000   1847343   1850096   1852945   1855935   1859060  
  7200.000000   1862284   1865503   1868616   1871525   1874222  
  7190.000000   1876762   1879297   1881984   1884973   1888320  
  7180.000000   1892006   1895921   1899943   1903957   1907919  
  7170.000000   1911832   1915760   1919761   1923893   1928159  
  7160.000000   1932550   1937019   1941547   1946105   1950703  
  7150.000000   1955339   1960035   1964789   1969619   1974518  
  7140.000000   1979510   1984594   1989796   1995116   2000577  
  7130.000000   2006177   2011942   2017872   2023986   2030266  
  7120.000000   2036703   2043254   2049895   2056595   2063364  
  7110.000000   2070211   2077178   2084271   2091498   2098810  
  7100.000000   2106164   2113486   2120742   2127908   2135008  
  7090.000000   2142075   2149164   2156323   2163606   2171054  
  7080.000000   2178708   2186586   2194686   2202956   2211314  
  7070.000000   2219640   2227831   2235810   2243572   2251157  
  7060.000000   2258653   2266136   2273661   2281233   2288837  
  7050.000000   2296451   2304076   2311750   2319527   2327451  
  7040.000000   2335518   2343675   2351814   2359828   2367634  
  7030.000000   2375214   2382606   2389891   2397145   2404418  
  7020.000000   2411702   2418962   2426135   2433177   2440051  
  7010.000000   2446756   2453282   2459637   2465813   2471832  
  7000.000000   2477716   2483530   2489322   2495148   2501007  
  6990.000000   2506877   2512681   2518365   2523878   2529232  
  6980.000000   2534442   2539551   2544549   2549407   2554044  
  6970.000000   2558401   2562443   2566224   2569833   2573410  
  6960.000000   2577047   2580792   2584593   2588359   2591963  
  6950.000000   2595330   2598422   2601281   2603965   2606549  
  6940.000000   2609070   2611551   2613976   2616344   2618648  
  6930.000000   2620904   2623120   2625303   2627432   2629490  
  6920.000000   2631449   2633310   2635085   2636812   2638517  
  6910.000000   2640222   2641921   2643604   2645251   2646863  
  6900.000000   2648442   2650004   2651547   2653058   2654497  
  6890.000000   2655829   2657027   2658105   2659101   2660073  
  6880.000000   2661066   2662099   2663146   2664160   2665083  
  6870.000000   2665884   2666568   2667178   2667778   2668427  
  6860.000000   2669155   2669961   2670807   2671642   2672416  
  6850.000000   2673105   2673707   2674258   2674804   2675404  
  6840.000000   2676099   2676915   2677830   2678795   2679726  
  6830.000000   2680539   2681159   2681554   2681730   2681739  
  6820.000000   2681644   2681512   2681380   2681262   2681145  
  6810.000000   2681018   2680868   2680702   2680523   2680332  
  6800.000000   2680110   2679833   2679472   2679030   2678532  
  6790.000000   2678044   2677631   2677349   2677207   2677170  
  6780.000000   2677161   2677095   2676900   2676547   2676038  
  6770.000000   2675410   2674703   2673958   2673199   2672450  
  6760.000000   2671729   2671054   2670434   2669861   2669299  
  6750.000000   2668697   2667996   2667164   2666198   2665143  
  6740.000000   2664064   2663032   2662094   2661260   2660507  
  6730.000000   2659797   2659089   2658365   2657617   2656850  
  6720.000000   2656060   2655244   2654384   2653477   2652527  
  6710.000000   2651558   2650588   2649630   2648665   2647657  
  6700.000000   2646559   2645340   2643995   2642557   2641071  
  6690.000000   2639586   2638119   2636668   2635205   2633713  
  6680.000000   2632191   2630670   2629185   2627770   2626419  
  6670.000000   2625094   2623731   2622273   2620694   2619016  
  6660.000000   2617296   2615605   2613987   2612455   2610975  
  6650.000000   2609498   2607975   2606387   2604737   2603048  
  6640.000000   2601337   2599609   2597849   2596043   2594183  
  6630.000000   2592287   2590385   2588511   2586682   2584890  
  6620.000000   2583104   2581293   2579435   2577540   2575635  
  6610.000000   2573758   2571929   2570143   2568367   2566559  
  6600.000000   2564684   2562735   2560727   2558691   2556653  
  6590.000000   2554623   2552592   2550548   2548486   2546421  
  6580.000000   2544386   2542419   2540550   2538782   2537094  
  6570.000000   2535453   2533827   2532198   2530570   2528958  
  6560.000000   2527380   2525846   2524359   2522918   2521521  
  6550.000000   2520171   2518873   2517616   2516381   2515126  
  6540.000000   2513814   2512414   2510932   2509399   2507870  
  6530.000000   2506399   2505020   2503732   2502510   2501317  
  6520.000000   2500124   2498922   2497727   2496563   2495449  
  6510.000000   2494392   2493383   2492408   2491459   2490538  
  6500.000000   2489658   2488827   2488044   2487292   2486544  
  6490.000000   2485777   2484986   2484181   2483384   2482603  
  6480.000000   2481829   2481025   2480144   2479155   2478058  
  6470.000000   2476904   2475773   2474751   2473899   2473226  
  6460.000000   2472688   2472206   2471694   2471087   2470353  
  6450.000000   2469498   2468551   2467548   2466524   2465507  
  6440.000000   2464521   2463585   2462713   2461903   2461134  
  6430.000000   2460365   2459552   2458659   2457684   2456656  
  6420.000000   2455638   2454693   2453872   2453189   2452624  
  6410.000000   2452135   2451680   2451234   2450796   2450384  
  6400.000000   2450019   2449706   2449433   2449167   2448869  
  6390.000000   2448505   2448055   2447514   2446889   2446196  
  6380.000000   2445457   2444702   2443964   2443283   2442683  
  6370.000000   2442176   2441744   2441347   2440935   2440468  
  6360.000000   2439927   2439329   2438706   2438100   2437531  
  6350.000000   2436994   2436457   2435877   2435217   2434461  
  6340.000000   2433614   2432701   2431746   2430775   2429797  
  6330.000000   2428827   2427870   2426947   2426065   2425231  
  6320.000000   2424422   2423603   2422721   2421736   2420622  
  6310.000000   2419393   2418078   2416726   2415364   2414009  
  6300.000000   2412648   2411265   2409843   2408386   2406899  
  6290.000000   2405395   2403865   2402285   2400612   2398810  
  6280.000000   2396860   2394785   2392634   2390481   2388382  
  6270.000000   2386378   2384459   2382599   2380745   2378857  
  6260.000000   2376903   2374881   2372790   2370644   2368447  
  6250.000000   2366207   2363927   2361620   2359297   2356973  
  6240.000000   2354651   2352331   2350003   2347662   2345311  
  6230.000000   2342968   2340655   2338396   2336197   2334047  
  6220.000000   2331920   2329782   2327609   2325394   2323144  
  6210.000000   2320878   2318611   2316349   2314086   2311812  
  6200.000000   2309520   2307216   2304916   2302643   2300413  
  6190.000000   2298227   2296076   2293941   2291807   2289666  
  6180.000000   2287522   2285382   2283256   2281143   2279039  
  6170.000000   2276934   2274831   2272737   2270672   2268657  
  6160.000000   2266711   2264838   2263034   2261286   2259582  
  6150.000000   2257913   2256272   2254649   2253034   2251404  
  6140.000000   2249739   2248023   2246260   2244467   2242680  
  6130.000000   2240935   2239264   2237676   2236170   2234728  
  6120.000000   2233331   2231963   2230617   2229286   2227970  
  6110.000000   2226659   2225352   2224045   2222753   2221491  
  6100.000000   2220289   2219163   2218126   2217166   2216263  
  6090.000000   2215386   2214517   2213645   2212785   2211958  
  6080.000000   2211197   2210519   2209944   2209467   2209083  
  6070.000000   2208773   2208525   2208316   2208139   2207981  
  6060.000000   2207850   2207752   2207714   2207753   2207895  
  6050.000000   2208138   2208477   2208880   2209326   2209786  
  6040.000000   2210258   2210745   2211272   2211856   2212513  
  6030.000000   2213240   2214034   2214881   2215783   2216737  
  6020.000000   2217753   2218829   2219959   2221118   2222281  
  6010.000000   2223422   2224532   2225610   2226677   2227743  
  6000.000000   2228820   2229900   2230968   2232005   2233006  
  5990.000000   2233977   2234947   2235950   2237025   2238193  
  5980.000000   2239466   2240834   2242283   2243792   2245346  
  5970.000000   2246927   2248531   2250150   2251795   2253471  
  5960.000000   2255200   2256994   2258865   2260799   2262775  
  5950.000000   2264750   2266692   2268574   2270407   2272218  
  5940.000000   2274062   2275989   2278038   2280217   2282509  
  5930.000000   2284876   2287276   2289669   2292032   2294352  
  5920.000000   2296624   2298844   2301010   2303123   2305190  
  5910.000000   2307224   2309244   2311266   2313300   2315349  
  5900.000000   2317404   2319459   2321508   2323551   2325591  
  5890.000000   2327632   2329672   2331707   2333733   2335753  
  5880.000000   2337781   2339835   2341935   2344083   2346260  
  5870.000000   2348423   2350520   2352505   2354361   2356098  
  5860.000000   2357761   2359404   2361082   2362826   2364651  
  5850.000000   2366551   2368522   2370562   2372680   2374889  
  5840.000000   2377195   2379588   2382045   2384533   2387017  
  5830.000000   2389474   2391893   2394271   2396609   2398903  
  5820.000000   2401142   2403316   2405418   2407458   2409446  
  5810.000000   2411406   2413344   2415264   2417140   2418956  
  5800.000000   2420673   2422288   2423780   2425166   2426431  
  5790.000000   2427582   2428587   2429431   2430075   2430503  
  5780.000000   2430680   2430595   2430220   2429545   2428558  
  5770.000000   2427280   2425748   2424044   2422252   2420475  
  5760.000000   2418788   2417247   2415869   2414658   2413598  
  5750.000000   2412679   2411893   2411234   2410693   2410244  
  5740.000000   2409862   2409507   2409159   2408802   2408451  
  5730.000000   2408116   2407829   2407605   2407460   2407391  
  5720.000000   2407405   2407493   2407658   2407889   2408180  
  5710.000000   2408510   2408867   2409234   2409613   2410010  
  5700.000000   2410444   2410926   2411459   2412031   2412617  
  5690.000000   2413194   2413742   2414262   2414757   2415242  
  5680.000000   2415717   2416176   2416591   2416939   2417187  
  5670.000000   2417324   2417337   2417227   2416988   2416617  
  5660.000000   2416105   2415456   2414685   2413828   2412926  
  5650.000000   2412029   2411162   2410341   2409553   2408785  
  5640.000000   2408019   2407255   2406503   2405783   2405107  
  5630.000000   2404479   2403889   2403320   2402754   2402181  
  5620.000000   2401600   2401010   2400411   2399794   2399148  
  5610.000000   2398463   2397736   2396982   2396218   2395471  
  5600.000000   2394750   2394060   2393384   2392709   2392018  
  5590.000000   2391308   2390577   2389829   2389054   2388237  
  5580.000000   2387351   2386381   2385321   2384190   2383021  
  5570.000000   2381856   2380720   2379626   2378559   2377499  
  5560.000000   2376420   2375310   2374170   2373015   2371860  
  5550.000000   2370719   2369598   2368497   2367414   2366352  
  5540.000000   2365315   2364307   2363327   2362364   2361405  
  5530.000000   2360436   2359452   2358458   2357463   2356479  
  5520.000000   2355509   2354548   2353584   2352608   2351617  
  5510.000000   2350620   2349622   2348632   2347637   2346620  
  5500.000000   2345552   2344417   2343212   2341960   2340691  
  5490.000000   2339437   2338207   2336992   2335759   2334478  
  5480.000000   2333123   2331695   2330206   2328683   2327137  
  5470.000000   2325570   2323961   2322291   2320544   2318730  
  5460.000000   2316863   2314971   2313067   2311152   2309208  
  5450.000000   2307214   2305158   2303046   2300901   2298760  
  5440.000000   2296655   2294608   2292628   2290717   2288884  
  5430.000000   2287132   2285472   2283895   2282386   2280904  
  5420.000000   2279419   2277903   2276372   2274862   2273447  
  5410.000000   2272180   2271108   2270218   2269489   2268866  
  5400.000000   2268327   2267852   2267467   2267185   2267038  
  5390.000000   2267012   2267102   2267274   2267530   2267869  
  5380.000000   2268342   2268972   2269806   2270826   2272023  
  5370.000000   2273334   2274739   2276192   2277715   2279306  
  5360.000000   2281024   2282874   2284919   2287159   2289665  
  5350.000000   2292452   2295604   2299130   2303094   2307459  
  5340.000000   2312250   2317399   2322935   2328811   2335082  
  5330.000000   2341713   2348760   2356171   2363993   2372174  
  5320.000000   2380800   2389861   2399488   2409684   2420572  
  5310.000000   2432106   2444352   2457219   2470758   2484898  
  5300.000000   2499734   2515246   2531569   2548701   2566763  
  5290.000000   2585713   2605602   2626314   2647822   2669968  
  5280.000000   2692722   2715991   2739835   2764266   2789403  
  5270.000000   2815256   2841834   2868990   2896540   2924236  
  5260.000000   2951885   2979372   3006685   3033893   3061052  
  5250.000000   3088193   3115206   3141952   3168170   3193708  
  5240.000000   3218394   3242267   3265327   3287746   3309548  
  5230.000000   3330848   3351550   3371644   3390942   3409415  
  5220.000000   3426925   3443549   3459265   3474244   3488506  
  5210.000000   3502207   3515293   3527813   3539613   3550685  
  5200.000000   3560885   3570276   3578817   3586661   3593817  
  5190.000000   3600421   3606429   3611899   3616731   3620963  
  5180.000000   3624516   3627471   3629792   3631573   3632774  
  5170.000000   3633460   3633573   3633174   3632228   3630821  
  5160.000000   3628947   3626692   3624033   3621026   3617632  
  5150.000000   3613899   3609808   3605427   3600758   3595864  
  5140.000000   3590732   3585401   3579844   3574096   3568151  
  5130.000000   3562060   3555837   3549533   3543146   3536704  
  5120.000000   3530190   3523620   3516986   3510314   3503602  
  5110.000000   3496868   3490097   3483286   3476412   3469473  
  5100.000000   3462461   3455395   3448288   3441164   3434031  
  5090.000000   3426900   3419770   3412647   3405531   3398438  
  5080.000000   3391372   3384341   3377341   3370365   3363399  
  5070.000000   3356436   3349468   3342495   3335519   3328539  
  5060.000000   3321549   3314542   3307509   3300449   3293368  
  5050.000000   3286283   3279212   3272174   3265179   3258229  
  5040.000000   3251320   3244443   3237595   3230776   3223994  
  5030.000000   3217252   3210561   3203917   3197328   3190789  
  5020.000000   3184316   3177919   3171632   3165471   3159472  
  5010.000000   3153639   3147987   3142496   3137169   3131977  
  5000.000000   3126934   3122026   3117286   3112714   3108357  
  4990.000000   3104215   3100336   3096710   3093376   3090313  
  4980.000000   3087551   3085061   3082875   3080967   3079383  
  4970.000000   3078111   3077210   3076670   3076542   3076795  
  4960.000000   3077454   3078465   3079840   3081527   3083553  
  4950.000000   3085885   3088566   3091570   3094937   3098631  
  4940.000000   3102680   3107039   3111733   3116720   3122023  
  4930.000000   3127598   3133465   3139577   3145951   3152552  
  4920.000000   3159405   3166489   3173831   3181410   3189241  
  4910.000000   3197288   3205553   3213995   3222612   3231373  
  4900.000000   3240275   3249292   3258416   3267623   3276900  
  4890.000000   3286231   3295603   3305003   3314413   3323811  
  4880.000000   3333160   3342428   3351568   3360555   3369352  
  4870.000000   3377954   3386339   3394517   3402469   3410209  
  4860.000000   3417722   3425024   3432104   3438986   3445660  
  4850.000000   3452152   3458449   3464576   3470520   3476308  
  4840.000000   3481928   3487411   3492746   3497961   3503043  
  4830.000000   3508012   3512847   3517556   3522110   3526510  
  4820.000000   3530722   3534747   3538560   3542174   3545584  
  4810.000000   3548820   3551887   3554818   3557618   3560314  
  4800.000000   3562908   3565425   3567869   3570266   3572617  
  4790.000000   3574941   3577223   3579467   3581651   3583773  
  4780.000000   3585816   3587790   3589685   3591513   3593257  
  4770.000000   3594916   3596460   3597882   3599154   3600279  
  4760.000000   3601244   3602067   3602739   3603276   3603658  
  4750.000000   3603891   3603946   3603833   3603533   3603067  
  4740.000000   3602432   3601660   3600747   3599717   3598557  
  4730.000000   3597272   3595838   3594255   3592503   3590597  
  4720.000000   3588535   3586350   3584058   3581699   3579288  
  4710.000000   3576852   3574396   3571931   3569453   3566966  
  4700.000000   3564467   3561966   3559466   3556978   3554507  
  4690.000000   3552065   3549655   3547283   3544948   3542648  
  4680.000000   3540374   3538111   3535844   3533551   3531221  
  4670.000000   3528843   3526424   3523973   3521520   3519085  
  4660.000000   3516705   3514399   3512195   3510108   3508160  
  4650.000000   3506362   3504734   3503277   3502001   3500887  
  4640.000000   3499924   3499077   3498324   3497634   3496996  
  4630.000000   3496395   3495836   3495313   3494834   3494390  
  4620.000000   3493982   3493593   3493215   3492833   3492434  
  4610.000000   3492005   3491540   3491039   3490513   3489981  
  4600.000000   3489472   3489012   3488618   3488294   3488021  
  4590.000000   3487771   3487504   3487192   3486814   3486374  
  4580.000000   3485882   3485360   3484818   3484261   3483675  
  4570.000000   3483043   3482341   3481557   3480685   3479732  
  4560.000000   3478707   3477622   3476481   3475288   3474039  
  4550.000000   3472733   3471372   3469958   3468502   3467009  
  4540.000000   3465496   3463973   3462465   3460990   3459582  
  4530.000000   3458258   3457053   3455967   3455026   3454217  
  4520.000000   3453567   3453065   3452756   3452633   3452753  
  4510.000000   3453110   3453765   3454707   3456011   3457671  
  4500.000000   3459777   3462327   3465412   3469019   3473230  
  4490.000000   3478023   3483475   3489562   3496366   3503855  
  4480.000000   3512090   3521009   3530635   3540874   3551723  
  4470.000000   3563085   3574954   3587251   3599978   3613063  
  4460.000000   3626501   3640213   3654170   3668284   3682505  
  4450.000000   3696750   3710966   3725096   3739105   3752977  
  4440.000000   3766702   3780296   3793750   3807089   3820280  
  4430.000000   3833338   3846200   3858871   3871269   3883396  
  4420.000000   3895150   3906528   3917408   3927776   3937500  
  4410.000000   3946566   3954850   3962354   3968976   3974743  
  4400.000000   3979587   3983563   3986646   3988923   3990412  
  4390.000000   3991235   3991447   3991188   3990532   3989609  
  4380.000000   3988493   3987292   3986077   3984944   3983974  
  4370.000000   3983262   3982899   3982963   3983532   3984646  
  4360.000000   3986347   3988628   3991489   3994885   3998771  
  4350.000000   4003073   4007717   4012628   4017750   4023055  
  4340.000000   4028534   4034192   4040005   4045894   4051692  
  4330.000000   4057144   4061926   4065712   4068239   4069396  
  4320.000000   4069239   4068028   4066137   4064017   4062054  
  4310.000000   4060559   4059657   4059376   4059593   4060180  
  4300.000000   4060965   4061846   4062727   4063574   4064354  
  4290.000000   4065050   4065647   4066129   4066497   4066761  
  4280.000000   4066947   4067100   4067257   4067475   4067783  
  4270.000000   4068231   4068816   4069536   4070310   4071031  
  4260.000000   4071516   4071574   4071001   4069659   4067485  
  4250.000000   4064534   4060953   4056976   4052849   4048817  
  4240.000000   4045049   4041658   4038657   4036019   4033664  
  4230.000000   4031516   4029495   4027542   4025613   4023675  
  4220.000000   4021713   4019710   4017679   4015625   4013594  
  4210.000000   4011615   4009755   4008051   4006558   4005297  
  4200.000000   4004293   4003530   4003000   4002651   4002453  
  4190.000000   4002336   4002283   4002243   4002241   4002270  
  4180.000000   4002406   4002670   4003152   4003872   4004912  
  4170.000000   4006283   4008066   4010280   4013016   4016287  
  4160.000000   4020169   4024635   4029710   4035316   4041446  
  4150.000000   4048005   4054999   4062357   4070120   4078249  
  4140.000000   4086815   4095797   4105272   4115221   4125706  
  4130.000000   4136685   4148188   4160146   4172561   4185357  
  4120.000000   4198539   4212054   4225937   4240167   4254791  
  4110.000000   4269794   4285203   4300977   4317106   4333521  
  4100.000000   4350187   4367033   4384030   4401135   4418345  
  4090.000000   4435651   4453067   4470597   4488248   4506024  
  4080.000000   4523919   4541944   4560085   4578353   4596709  
  4070.000000   4615138   4633554   4651910   4670090   4688049  
  4060.000000   4705686   4722987   4739868   4756337   4772308  
  4050.000000   4787806   4802760   4817232   4831168   4844652  
  4040.000000   4857603   4870067   4881904   4893125   4903574  
  4030.000000   4913281   4922119   4930137   4937217   4943376  
  4020.000000   4948457   4952484   4955393   4957276   4958105  
  4010.000000   4958076   4957309   4955902   4953685   4950783  
  4000.000000   4947533  
##END= 
