##TITLE= Sample 001 By ssteindl date Dienstag, November 20 2018
##JCAMP-DX= 4.24
##DATA TYPE= INFRARED SPECTRUM
##ORIGIN= Exported PE Spectrum Data File
##OWNER= Sandra Steindl
##DATE= 18/11/20
##TIME= 16:52:50.00
##SPECTROMETER/DATA SYSTEM= PERKIN-ELMER Frontier FT-IR/NIR IR
##INSTRUMENT PARAMETERS=
  APODIZATION=stark
  DETECTOR=INGAAS
##RESOLUTION= 16.000000
##DELTAX= -2.000000
##XUNITS= 1/CM
##YUNITS= A
##XFACTOR= 1.00
##YFACTOR= 0.00000011920928955078
##FIRSTX= 10000.00
##LASTX= 4000.00
##NPOINTS= 3001
##FIRSTY= 0.222857
##MAXY= 0.637248
##MINY= 0.188642
##XYDATA= (X++(Y..Y))
 10000.000000   1869463   1872261   1873619   1872071   1868271  
  9990.000000   1864268   1861423   1860211   1860747   1863055  
  9980.000000   1866603   1870635   1874587   1878146   1880987  
  9970.000000   1882632   1882498   1879910   1874405   1865971  
  9960.000000   1855365   1843967   1833588   1825897   1821939  
  9950.000000   1821844   1824766   1829341   1834079   1838005  
  9940.000000   1840816   1842959   1845226   1848345   1852592  
  9930.000000   1857557   1862411   1866053   1867744   1867118  
  9920.000000   1864433   1860203   1855052   1849473   1843798  
  9910.000000   1838380   1833663   1830380   1829291   1831096  
  9900.000000   1835918   1843303   1852037   1860624   1867592  
  9890.000000   1872004   1873660   1872975   1870740   1867580  
  9880.000000   1863817   1859257   1853568   1846459   1838117  
  9870.000000   1829220   1820816   1814030   1809586   1807770  
  9860.000000   1808236   1810447   1813773   1817882   1822675  
  9850.000000   1828196   1834376   1840774   1846594   1850739  
  9840.000000   1852252   1850529   1845701   1838500   1830166  
  9830.000000   1822025   1815176   1810277   1807410   1806281  
  9820.000000   1806296   1806920   1807704   1808457   1809095  
  9810.000000   1809615   1809974   1810055   1809736   1808863  
  9800.000000   1807432   1805464   1803140   1800632   1798155  
  9790.000000   1795869   1793916   1792430   1791565   1791516  
  9780.000000   1792445   1794439   1797360   1800876   1804416  
  9770.000000   1807410   1809373   1810147   1809894   1809073  
  9760.000000   1808234   1807782   1807798   1807934   1807569  
  9750.000000   1805959   1802600   1797334   1790507   1782810  
  9740.000000   1775119   1768255   1762794   1759064   1757123  
  9730.000000   1756951   1758449   1761551   1766118   1771906  
  9720.000000   1778490   1785247   1791476   1796438   1799599  
  9710.000000   1800611   1799497   1796518   1792208   1787232  
  9700.000000   1782308   1778149   1775286   1774086   1774565  
  9690.000000   1776492   1779345   1782483   1785229   1786988  
  9680.000000   1787330   1786008   1783008   1778526   1772999  
  9670.000000   1767060   1761495   1757149   1754747   1754776  
  9660.000000   1757284   1761887   1767745   1773774   1778849  
  9650.000000   1782047   1782860   1781220   1777543   1772496  
  9640.000000   1766916   1761550   1757000   1753623   1751542  
  9630.000000   1750717   1750957   1752080   1753855   1756144  
  9620.000000   1758753   1761524   1764188   1766443   1767951  
  9610.000000   1768414   1767725   1765921   1763311   1760245  
  9600.000000   1757108   1754058   1751033   1747749   1743893  
  9590.000000   1739357   1734389   1729687   1726149   1724699  
  9580.000000   1725821   1729502   1735072   1741515   1747688  
  9570.000000   1752681   1756012   1757599   1757695   1756548  
  9560.000000   1754335   1750974   1746329   1740288   1733031  
  9550.000000   1725055   1717139   1710180   1704912   1701819  
  9540.000000   1700950   1702072   1704667   1708155   1711928  
  9530.000000   1715455   1718308   1720155   1720859   1720429  
  9520.000000   1719144   1717393   1715686   1714389   1713694  
  9510.000000   1713485   1713457   1713219   1712494   1711257  
  9500.000000   1709747   1708422   1707735   1708003   1709210  
  9490.000000   1711073   1713113   1714893   1716183   1717018  
  9480.000000   1717661   1718393   1719379   1720498   1721395  
  9470.000000   1721559   1720583   1718322   1715046   1711388  
  9460.000000   1708128   1706014   1705435   1706454   1708722  
  9450.000000   1711757   1715036   1718203   1721046   1723465  
  9440.000000   1725316   1726331   1726116   1724284   1720653  
  9430.000000   1715386   1709051   1702468   1696516   1691872  
  9420.000000   1688813   1687186   1686451   1685948   1685064  
  9410.000000   1683490   1681214   1678517   1675822   1673543  
  9400.000000   1672010   1671351   1671541   1672324   1673320  
  9390.000000   1674021   1673957   1672801   1670510   1667369  
  9380.000000   1663979   1661089   1659428   1659406   1660977  
  9370.000000   1663571   1666266   1668105   1668396   1666983  
  9360.000000   1664235   1660994   1658261   1656939   1657504  
  9350.000000   1659874   1663430   1667191   1670123   1671367  
  9340.000000   1670478   1667447   1662722   1657029   1651227  
  9330.000000   1646070   1642097   1639532   1638352   1638339  
  9320.000000   1639205   1640680   1642535   1644651   1646922  
  9310.000000   1649293   1651673   1653978   1656148   1658152  
  9300.000000   1660040   1661822   1663492   1664874   1665721  
  9290.000000   1665715   1664635   1662411   1659189   1655347  
  9280.000000   1651402   1647967   1645552   1644549   1645062  
  9270.000000   1647014   1650067   1653759   1657504   1660722  
  9260.000000   1662952   1663916   1663625   1662274   1660222  
  9250.000000   1657770   1655107   1652232   1649071   1645629  
  9240.000000   1642139   1639133   1637282   1637238   1639243  
  9230.000000   1643035   1647723   1652128   1655128   1656038  
  9220.000000   1654873   1652239   1649146   1646463   1644632  
  9210.000000   1643467   1642382   1640681   1637949   1634324  
  9200.000000   1630478   1627416   1626002   1626719   1629436  
  9190.000000   1633546   1638144   1642316   1645395   1647018  
  9180.000000   1647147   1645904   1643522   1640301   1636663  
  9170.000000   1633135   1630280   1628569   1628224   1629145  
  9160.000000   1630887   1632803   1634221   1634714   1634185  
  9150.000000   1632851   1631062   1629169   1627396   1625834  
  9140.000000   1624467   1623293   1622399   1621968   1622160  
  9130.000000   1622994   1624245   1625493   1626204   1625910  
  9120.000000   1624336   1621492   1617695   1613414   1609182  
  9110.000000   1605418   1602420   1600307   1599026   1598399  
  9100.000000   1598154   1598024   1597795   1597401   1596961  
  9090.000000   1596733   1597055   1598136   1599983   1602238  
  9080.000000   1604304   1605470   1605231   1603460   1600534  
  9070.000000   1597276   1594716   1593770   1594901   1598022  
  9060.000000   1602523   1607460   1611814   1614786   1615999  
  9050.000000   1615492   1613615   1610880   1607840   1604959  
  9040.000000   1602553   1600804   1599802   1599561   1599991  
  9030.000000   1600946   1602190   1603485   1604537   1605142  
  9020.000000   1605177   1604674   1603775   1602688   1601642  
  9010.000000   1600787   1600158   1599631   1598996   1598000  
  9000.000000   1596477   1594393   1591903   1589287   1586872  
  8990.000000   1584928   1583578   1582803   1582466   1582444  
  8980.000000   1582688   1583277   1584358   1586061   1588393  
  8970.000000   1591156   1593965   1596335   1597854   1598275  
  8960.000000   1597614   1596085   1594067   1591929   1589963  
  8950.000000   1588312   1587017   1586039   1585311   1584769  
  8940.000000   1584353   1584020   1583737   1583518   1583441  
  8930.000000   1583656   1584334   1585592   1587410   1589594  
  8920.000000   1591812   1593708   1595028   1595732   1596015  
  8910.000000   1596214   1596662   1597519   1598681   1599788  
  8900.000000   1600357   1599983   1598513   1596118   1593236  
  8890.000000   1590438   1588239   1586958   1586630   1587059  
  8880.000000   1587906   1588837   1589602   1590087   1590289  
  8870.000000   1590296   1590241   1590274   1590539   1591127  
  8860.000000   1592079   1593325   1594710   1595981   1596876  
  8850.000000   1597173   1596790   1595814   1594501   1593187  
  8840.000000   1592201   1591759   1591923   1592596   1593570  
  8830.000000   1594614   1595558   1596351   1597061   1597836  
  8820.000000   1598839   1600162   1601782   1603539   1605194  
  8810.000000   1606488   1607262   1607500   1607370   1607166  
  8800.000000   1607206   1607735   1608817   1610323   1611966  
  8790.000000   1613413   1614407   1614854   1614842   1614589  
  8780.000000   1614340   1614273   1614437   1614754   1615083  
  8770.000000   1615300   1615362   1615325   1615309   1615447  
  8760.000000   1615815   1616432   1617250   1618201   1619225  
  8750.000000   1620272   1621301   1622237   1622989   1623442  
  8740.000000   1623531   1623267   1622773   1622250   1621933  
  8730.000000   1621998   1622515   1623421   1624561   1625758  
  8720.000000   1626880   1627888   1628825   1629778   1630831  
  8710.000000   1632017   1633333   1634725   1636147   1637543  
  8700.000000   1638882   1640114   1641195   1642086   1642787  
  8690.000000   1643369   1643972   1644792   1646000   1647690  
  8680.000000   1649819   1652218   1654641   1656853   1658695  
  8670.000000   1660117   1661157   1661890   1662367   1662605  
  8660.000000   1662605   1662412   1662157   1662069   1662397  
  8650.000000   1663328   1664864   1666811   1668807   1670453  
  8640.000000   1671456   1671732   1671459   1670972   1670650  
  8630.000000   1670751   1671342   1672301   1673417   1674496  
  8620.000000   1675472   1676422   1677536   1679009   1680941  
  8610.000000   1683278   1685818   1688277   1690398   1692014  
  8600.000000   1693129   1693863   1694442   1695094   1695998  
  8590.000000   1697241   1698784   1700516   1702265   1703893  
  8580.000000   1705331   1706617   1707891   1709328   1711069  
  8570.000000   1713113   1715281   1717223   1718543   1718931  
  8560.000000   1718331   1717002   1715491   1714494   1714611  
  8550.000000   1716190   1719168   1723128   1727405   1731334  
  8540.000000   1734443   1736559   1737801   1738456   1738846  
  8530.000000   1739178   1739504   1739740   1739773   1739552  
  8520.000000   1739149   1738748   1738575   1738829   1739581  
  8510.000000   1740797   1742325   1743982   1745587   1747002  
  8500.000000   1748142   1748958   1749447   1749634   1749609  
  8490.000000   1749509   1749519   1749820   1750548   1751728  
  8480.000000   1753268   1754972   1756609   1757985   1759000  
  8470.000000   1759682   1760166   1760640   1761274   1762168  
  8460.000000   1763334   1764703   1766166   1767607   1768947  
  8450.000000   1770140   1771172   1772039   1772740   1773277  
  8440.000000   1773657   1773909   1774102   1774336   1774733  
  8430.000000   1775408   1776423   1777785   1779410   1781164  
  8420.000000   1782870   1784380   1785602   1786537   1787269  
  8410.000000   1787925   1788617   1789387   1790174   1790834  
  8400.000000   1791174   1791054   1790442   1789474   1788408  
  8390.000000   1787579   1787257   1787581   1788465   1789635  
  8380.000000   1790693   1791244   1791030   1789989   1788293  
  8370.000000   1786269   1784317   1782775   1781840   1781532  
  8360.000000   1781727   1782220   1782813   1783384   1783910  
  8350.000000   1784457   1785119   1785962   1786978   1788078  
  8340.000000   1789112   1789913   1790373   1790452   1790214  
  8330.000000   1789772   1789269   1788814   1788456   1788186  
  8320.000000   1787955   1787717   1787449   1787179   1786962  
  8310.000000   1786873   1786961   1787242   1787690   1788248  
  8300.000000   1788850   1789428   1789922   1790278   1790455  
  8290.000000   1790428   1790201   1789820   1789382   1789016  
  8280.000000   1788849   1788959   1789333   1789871   1790400  
  8270.000000   1790746   1790781   1790493   1789979   1789430  
  8260.000000   1789039   1788944   1789165   1789614   1790118  
  8250.000000   1790496   1790603   1790380   1789845   1789080  
  8240.000000   1788172   1787197   1786197   1785194   1784197  
  8230.000000   1783219   1782263   1781322   1780357   1779325  
  8220.000000   1778166   1776873   1775468   1774048   1772718  
  8210.000000   1771584   1770679   1769956   1769293   1768525  
  8200.000000   1767517   1766173   1764484   1762479   1760221  
  8190.000000   1757757   1755129   1752398   1749675   1747156  
  8180.000000   1745089   1743734   1743259   1743692   1744860  
  8170.000000   1746434   1747991   1749125   1749554   1749155  
  8160.000000   1747993   1746230   1744096   1741786   1739462  
  8150.000000   1737232   1735176   1733370   1731867   1730710  
  8140.000000   1729874   1729297   1728856   1728435   1727935  
  8130.000000   1727313   1726569   1725715   1724741   1723589  
  8120.000000   1722173   1720421   1718342   1716058   1713807  
  8110.000000   1711873   1710487   1709744   1709543   1709624  
  8100.000000   1709638   1709273   1708353   1706885   1705048  
  8090.000000   1703103   1701297   1699770   1698537   1697506  
  8080.000000   1696554   1695586   1694577   1693578   1692668  
  8070.000000   1691928   1691386   1691025   1690786   1690591  
  8060.000000   1690377   1690075   1689635   1688988   1688083  
  8050.000000   1686871   1685372   1683658   1681880   1680216  
  8040.000000   1678833   1677840   1677255   1677025   1677042  
  8030.000000   1677211   1677463   1677785   1678179   1678640  
  8020.000000   1679118   1679507   1679678   1679506   1678924  
  8010.000000   1677939   1676631   1675124   1673545   1672006  
  8000.000000   1670575   1669304   1668214   1667325   1666626  
  7990.000000   1666079   1665596   1665056   1664326   1663310  
  7980.000000   1661996   1660460   1658870   1657416   1656265  
  7970.000000   1655488   1655055   1654844   1654697   1654480  
  7960.000000   1654132   1653676   1653204   1652818   1652601  
  7950.000000   1652562   1652653   1652769   1652812   1652698  
  7940.000000   1652409   1651973   1651468   1650979   1650582  
  7930.000000   1650322   1650202   1650201   1650281   1650421  
  7920.000000   1650617   1650901   1651314   1651887   1652609  
  7910.000000   1653406   1654140   1654637   1654736   1654340  
  7900.000000   1653464   1652232   1650860   1649588   1648613  
  7890.000000   1648038   1647843   1647920   1648106   1648262  
  7880.000000   1648304   1648235   1648119   1648054   1648119  
  7870.000000   1648345   1648701   1649102   1649445   1649628  
  7860.000000   1649589   1649310   1648824   1648207   1647551  
  7850.000000   1646955   1646486   1646185   1646041   1646004  
  7840.000000   1645997   1645933   1645741   1645371   1644807  
  7830.000000   1644058   1643149   1642117   1641007   1639877  
  7820.000000   1638798   1637850   1637111   1636638   1636440  
  7810.000000   1636472   1636633   1636793   1636821   1636626  
  7800.000000   1636175   1635507   1634712   1633905   1633192  
  7790.000000   1632640   1632263   1632015   1631809   1631535  
  7780.000000   1631092   1630405   1629459   1628289   1626982  
  7770.000000   1625649   1624394   1623295   1622373   1621614  
  7760.000000   1620974   1620422   1619956   1619618   1619467  
  7750.000000   1619548   1619852   1620290   1620702   1620888  
  7740.000000   1620676   1619965   1618777   1617237   1615553  
  7730.000000   1613949   1612603   1611612   1610967   1610590  
  7720.000000   1610349   1610132   1609852   1609490   1609064  
  7710.000000   1608629   1608231   1607897   1607618   1607343  
  7700.000000   1607006   1606531   1605876   1605020   1603999  
  7690.000000   1602868   1601703   1600569   1599513   1598554  
  7680.000000   1597700   1596961   1596361   1595946   1595763  
  7670.000000   1595844   1596181   1596720   1597364   1597997  
  7660.000000   1598518   1598852   1598972   1598879   1598596  
  7650.000000   1598142   1597540   1596811   1596002   1595180  
  7640.000000   1594442   1593880   1593561   1593498   1593638  
  7630.000000   1593878   1594102   1594222   1594211   1594106  
  7620.000000   1593993   1593967   1594098   1594398   1594834  
  7610.000000   1595331   1595814   1596223   1596542   1596775  
  7600.000000   1596945   1597066   1597135   1597137   1597056  
  7590.000000   1596904   1596733   1596636   1596733   1597128  
  7580.000000   1597874   1598931   1600174   1601391   1602351  
  7570.000000   1602847   1602780   1602185   1601249   1600249  
  7560.000000   1599500   1599249   1599631   1600629   1602100  
  7550.000000   1603817   1605546   1607107   1608413   1609468  
  7540.000000   1610346   1611137   1611937   1612798   1613757  
  7530.000000   1614806   1615935   1617110   1618298   1619452  
  7520.000000   1620534   1621517   1622403   1623228   1624066  
  7510.000000   1624995   1626087   1627365   1628810   1630354  
  7500.000000   1631912   1633409   1634817   1636153   1637489  
  7490.000000   1638912   1640515   1642352   1644441   1646738  
  7480.000000   1649168   1651620   1653991   1656189   1658171  
  7470.000000   1659935   1661539   1663062   1664606   1666245  
  7460.000000   1668021   1669924   1671915   1673938   1675957  
  7450.000000   1677968   1680005   1682121   1684373   1686790  
  7440.000000   1689366   1692055   1694796   1697515   1700154  
  7430.000000   1702661   1705005   1707170   1709168   1711037  
  7420.000000   1712856   1714732   1716788   1719125   1721790  
  7410.000000   1724751   1727907   1731101   1734173   1736995  
  7400.000000   1739517   1741764   1743823   1745803   1747812  
  7390.000000   1749921   1752158   1754514   1756959   1759460  
  7380.000000   1761984   1764514   1767033   1769540   1772028  
  7370.000000   1774500   1776946   1779359   1781719   1784005  
  7360.000000   1786198   1788293   1790302   1792256   1794191  
  7350.000000   1796142   1798122   1800120   1802106   1804051  
  7340.000000   1805937   1807777   1809603   1811457   1813366  
  7330.000000   1815338   1817354   1819392   1821433   1823482  
  7320.000000   1825557   1827684   1829862   1832059   1834202  
  7310.000000   1836200   1837974   1839491   1840771   1841887  
  7300.000000   1842930   1843988   1845111   1846314   1847572  
  7290.000000   1848852   1850117   1851346   1852520   1853636  
  7280.000000   1854682   1855658   1856568   1857435   1858293  
  7270.000000   1859174   1860101   1861066   1862035   1862953  
  7260.000000   1863775   1864478   1865086   1865652   1866258  
  7250.000000   1866973   1867855   1868912   1870134   1871481  
  7240.000000   1872922   1874429   1876010   1877679   1879480  
  7230.000000   1881445   1883614   1885980   1888526   1891177  
  7220.000000   1893855   1896452   1898916   1901226   1903452  
  7210.000000   1905701   1908117   1910803   1913809   1917088  
  7200.000000   1920548   1924069   1927591   1931108   1934701  
  7190.000000   1938448   1942414   1946560   1950773   1954864  
  7180.000000   1958687   1962161   1965359   1968454   1971694  
  7170.000000   1975282   1979340   1983842   1988672   1993645  
  7160.000000   1998620   2003505   2008309   2013075   2017882  
  7150.000000   2022771   2027781   2032912   2038195   2043647  
  7140.000000   2049321   2055226   2061362   2067667   2074075  
  7130.000000   2080511   2086963   2093449   2100049   2106820  
  7120.000000   2113805   2120951   2128176   2135342   2142364  
  7110.000000   2149195   2155895   2162563   2169340   2176328  
  7100.000000   2183598   2191151   2198962   2206972   2215136  
  7090.000000   2223402   2231735   2240086   2248418   2256687  
  7080.000000   2264888   2273020   2281119   2289212   2297329  
  7070.000000   2305467   2313611   2321744   2329870   2338027  
  7060.000000   2346276   2354683   2363284   2372064   2380947  
  7050.000000   2389816   2398542   2407021   2415197   2423065  
  7040.000000   2430661   2438041   2445261   2452377   2459442  
  7030.000000   2466523   2473680   2480981   2488461   2496133  
  7020.000000   2503949   2511840   2519693   2527415   2534916  
  7010.000000   2542153   2549107   2555804   2562283   2568605  
  7000.000000   2574816   2580955   2587023   2593006   2598849  
  6990.000000   2604518   2609975   2615242   2620355   2625407  
  6980.000000   2630464   2635589   2640770   2645967   2651083  
  6970.000000   2656038   2660751   2665200   2669384   2673346  
  6960.000000   2677120   2680760   2684293   2687765   2691197  
  6950.000000   2694626   2698050   2701466   2704821   2708068  
  6940.000000   2711142   2714028   2716726   2719291   2721763  
  6930.000000   2724190   2726564   2728869   2731056   2733113  
  6920.000000   2735046   2736913   2738768   2740664   2742593  
  6910.000000   2744510   2746329   2747982   2749431   2750702  
  6900.000000   2751858   2752982   2754131   2755321   2756521  
  6890.000000   2757684   2758767   2759768   2760715   2761673  
  6880.000000   2762698   2763837   2765100   2766484   2767968  
  6870.000000   2769534   2771153   2772789   2774382   2775860  
  6860.000000   2777143   2778179   2778959   2779528   2779975  
  6850.000000   2780397   2780871   2781427   2782042   2782667  
  6840.000000   2783239   2783728   2784129   2784483   2784835  
  6830.000000   2785242   2785731   2786320   2787000   2787751  
  6820.000000   2788538   2789311   2790007   2790566   2790940  
  6810.000000   2791123   2791147   2791095   2791067   2791157  
  6800.000000   2791411   2791824   2792324   2792818   2793205  
  6790.000000   2793419   2793429   2793246   2792897   2792418  
  6780.000000   2791833   2791169   2790450   2789717   2789018  
  6770.000000   2788403   2787903   2787526   2787239   2786995  
  6760.000000   2786730   2786398   2785974   2785462   2784891  
  6750.000000   2784299   2783721   2783182   2782683   2782204  
  6740.000000   2781711   2781158   2780506   2779738   2778864  
  6730.000000   2777932   2777003   2776148   2775403   2774772  
  6720.000000   2774210   2773652   2773029   2772304   2771480  
  6710.000000   2770596   2769702   2768837   2768001   2767167  
  6700.000000   2766286   2765324   2764276   2763177   2762079  
  6690.000000   2761034   2760063   2759151   2758249   2757307  
  6680.000000   2756280   2755165   2753978   2752753   2751510  
  6670.000000   2750251   2748951   2747582   2746114   2744546  
  6660.000000   2742890   2741179   2739442   2737702   2735968  
  6650.000000   2734249   2732546   2730875   2729245   2727668  
  6640.000000   2726137   2724636   2723136   2721613   2720044  
  6630.000000   2718424   2716751   2715027   2713245   2711402  
  6620.000000   2709493   2707530   2705532   2703533   2701556  
  6610.000000   2699612   2697684   2695745   2693760   2691719  
  6600.000000   2689632   2687539   2685480   2683486   2681552  
  6590.000000   2679650   2677737   2675778   2673767   2671724  
  6580.000000   2669687   2667689   2665747   2663847   2661968  
  6570.000000   2660089   2658215   2656372   2654606   2652954  
  6560.000000   2651431   2650016   2648664   2647322   2645951  
  6550.000000   2644534   2643078   2641600   2640115   2638625  
  6540.000000   2637129   2635623   2634121   2632647   2631232  
  6530.000000   2629896   2628638   2627434   2626246   2625043  
  6520.000000   2623819   2622593   2621406   2620296   2619283  
  6510.000000   2618360   2617493   2616641   2615771   2614871  
  6500.000000   2613947   2613009   2612063   2611097   2610089  
  6490.000000   2609017   2607869   2606657   2605410   2604162  
  6480.000000   2602943   2601766   2600630   2599529   2598457  
  6470.000000   2597420   2596422   2595465   2594539   2593619  
  6460.000000   2592679   2591696   2590669   2589613   2588552  
  6450.000000   2587508   2586489   2585485   2584481   2583471  
  6440.000000   2582468   2581505   2580623   2579850   2579188  
  6430.000000   2578606   2578053   2577476   2576850   2576176  
  6420.000000   2575488   2574822   2574206   2573632   2573070  
  6410.000000   2572475   2571812   2571070   2570268   2569450  
  6400.000000   2568663   2567946   2567321   2566791   2566348  
  6390.000000   2565978   2565662   2565373   2565078   2564739  
  6380.000000   2564321   2563805   2563194   2562515   2561811  
  6370.000000   2561122   2560474   2559871   2559301   2558748  
  6360.000000   2558202   2557665   2557143   2556643   2556151  
  6350.000000   2555642   2555079   2554441   2553723   2552951  
  6340.000000   2552165   2551412   2550711   2550058   2549417  
  6330.000000   2548748   2548008   2547179   2546260   2545267  
  6320.000000   2544211   2543104   2541938   2540717   2539440  
  6310.000000   2538131   2536812   2535513   2534234   2532967  
  6300.000000   2531671   2530314   2528862   2527314   2525683  
  6290.000000   2524005   2522301   2520596   2518885   2517164  
  6280.000000   2515418   2513644   2511832   2509982   2508078  
  6270.000000   2506108   2504050   2501897   2499655   2497356  
  6260.000000   2495034   2492730   2490460   2488223   2485996  
  6250.000000   2483756   2481485   2479189   2476883   2474594  
  6240.000000   2472330   2470087   2467841   2465565   2463243  
  6230.000000   2460881   2458502   2456139   2453813   2451526  
  6220.000000   2449255   2446965   2444622   2442214   2439751  
  6210.000000   2437265   2434796   2432379   2430026   2427733  
  6200.000000   2425478   2423237   2420990   2418723   2416434  
  6190.000000   2414126   2411809   2409493   2407196   2404937  
  6180.000000   2402737   2400612   2398573   2396615   2394726  
  6170.000000   2392885   2391074   2389270   2387460   2385629  
  6160.000000   2383769   2381871   2379938   2377976   2376006  
  6150.000000   2374050   2372139   2370289   2368508   2366785  
  6140.000000   2365104   2363441   2361786   2360131   2358484  
  6130.000000   2356852   2355245   2353663   2352104   2350563  
  6120.000000   2349043   2347547   2346093   2344693   2343365  
  6110.000000   2342117   2340957   2339883   2338894   2337975  
  6100.000000   2337115   2336289   2335480   2334662   2333832  
  6090.000000   2332988   2332152   2331341   2330583   2329878  
  6080.000000   2329234   2328630   2328065   2327530   2327050  
  6070.000000   2326643   2326347   2326178   2326150   2326248  
  6060.000000   2326462   2326769   2327164   2327637   2328194  
  6050.000000   2328819   2329503   2330211   2330925   2331624  
  6040.000000   2332319   2333028   2333797   2334653   2335627  
  6030.000000   2336715   2337906   2339170   2340488   2341841  
  6020.000000   2343230   2344656   2346130   2347651   2349221  
  6010.000000   2350830   2352470   2354123   2355776   2357401  
  6000.000000   2358978   2360479   2361900   2363245   2364554  
  5990.000000   2365871   2367254   2368739   2370349   2372074  
  5980.000000   2373892   2375773   2377700   2379669   2381699  
  5970.000000   2383805   2386006   2388299   2390675   2393105  
  5960.000000   2395574   2398058   2400557   2403061   2405574  
  5950.000000   2408085   2410595   2413098   2415606   2418132  
  5940.000000   2420701   2423332   2426038   2428818   2431660  
  5930.000000   2434554   2437488   2440463   2443480   2446537  
  5920.000000   2449619   2452692   2455712   2458629   2461409  
  5910.000000   2464034   2466512   2468867   2471134   2473349  
  5900.000000   2475541   2477741   2479974   2482272   2484662  
  5890.000000   2487170   2489802   2492550   2495382   2498259  
  5880.000000   2501131   2503957   2506702   2509341   2511861  
  5870.000000   2514250   2516514   2518663   2520724   2522731  
  5860.000000   2524729   2526752   2528821   2530943   2533107  
  5850.000000   2535303   2537521   2539765   2542052   2544401  
  5840.000000   2546832   2549354   2551963   2554649   2557395  
  5830.000000   2560185   2563003   2565828   2568634   2571391  
  5820.000000   2574066   2576636   2579093   2581451   2583729  
  5810.000000   2585960   2588151   2590310   2592407   2594427  
  5800.000000   2596331   2598125   2599793   2601366   2602834  
  5790.000000   2604207   2605443   2606515   2607353   2607918  
  5780.000000   2608148   2608020   2607501   2606595   2605310  
  5770.000000   2603697   2601813   2599760   2597631   2595536  
  5760.000000   2593547   2591726   2590086   2588631   2587335  
  5750.000000   2586179   2585137   2584190   2583321   2582514  
  5740.000000   2581766   2581071   2580444   2579891   2579431  
  5730.000000   2579058   2578771   2578537   2578335   2578134  
  5720.000000   2577933   2577737   2577575   2577471   2577451  
  5710.000000   2577515   2577663   2577875   2578144   2578462  
  5700.000000   2578833   2579258   2579731   2580238   2580750  
  5690.000000   2581245   2581704   2582131   2582538   2582953  
  5680.000000   2583388   2583848   2584308   2584731   2585059  
  5670.000000   2585242   2585228   2584988   2584499   2583766  
  5660.000000   2582802   2581650   2580356   2578986   2577595  
  5650.000000   2576236   2574932   2573694   2572511   2571372  
  5640.000000   2570263   2569185   2568138   2567129   2566156  
  5630.000000   2565215   2564296   2563393   2562510   2561655  
  5620.000000   2560845   2560086   2559379   2558707   2558049  
  5610.000000   2557380   2556686   2555966   2555226   2554479  
  5600.000000   2553730   2552978   2552218   2551444   2550657  
  5590.000000   2549867   2549083   2548314   2547550   2546773  
  5580.000000   2545951   2545061   2544088   2543038   2541930  
  5570.000000   2540789   2539633   2538471   2537298   2536104  
  5560.000000   2534881   2533632   2532363   2531087   2529811  
  5550.000000   2528540   2527276   2526020   2524778   2523567  
  5540.000000   2522400   2521291   2520241   2519238   2518265  
  5530.000000   2517304   2516342   2515379   2514419   2513467  
  5520.000000   2512522   2511578   2510624   2509651   2508656  
  5510.000000   2507641   2506608   2505556   2504473   2503345  
  5500.000000   2502160   2500920   2499639   2498347   2497069  
  5490.000000   2495819   2494581   2493326   2492010   2490606  
  5480.000000   2489101   2487516   2485877   2484220   2482557  
  5470.000000   2480886   2479182   2477427   2475606   2473725  
  5460.000000   2471792   2469822   2467809   2465739   2463589  
  5450.000000   2461351   2459035   2456678   2454332   2452042  
  5440.000000   2449837   2447713   2445655   2443640   2441666  
  5430.000000   2439742   2437891   2436123   2434435   2432791  
  5420.000000   2431163   2429518   2427875   2426271   2424785  
  5410.000000   2423473   2422379   2421482   2420744   2420099  
  5400.000000   2419518   2418980   2418522   2418170   2417973  
  5390.000000   2417930   2418045   2418278   2418625   2419070  
  5380.000000   2419648   2420366   2421261   2422314   2423526  
  5370.000000   2424848   2426283   2427803   2429454   2431238  
  5360.000000   2433221   2435402   2437836   2440515   2443506  
  5350.000000   2446811   2450510   2454594   2459117   2464022  
  5340.000000   2469328   2474967   2480991   2487373   2494212  
  5330.000000   2501496   2509311   2517603   2526421   2535691  
  5320.000000   2545483   2555769   2566677   2578205   2590489  
  5310.000000   2603489   2617289   2631797   2647071   2663030  
  5300.000000   2679770   2697259   2715636   2734898   2755179  
  5290.000000   2776439   2798738   2821951   2846036   2870807  
  5280.000000   2896212   2922136   2948640   2975747   3003604  
  5270.000000   3032250   3061714   3091851   3122455   3153244  
  5260.000000   3183979   3214516   3244819   3274960   3304997  
  5250.000000   3334978   3364788   3394287   3423189   3451333  
  5240.000000   3478518   3504783   3530119   3554714   3578594  
  5230.000000   3601896   3624524   3646485   3667578   3687780  
  5220.000000   3706937   3725135   3742342   3758748   3774376  
  5210.000000   3789403   3803772   3817539   3830525   3842711  
  5200.000000   3853923   3864220   3873555   3882098   3889870  
  5190.000000   3897033   3903551   3909498   3914773   3919426  
  5180.000000   3923376   3926713   3929397   3931523   3933031  
  5170.000000   3933974   3934276   3933996   3933106   3931719  
  5160.000000   3929851   3927617   3925001   3922054   3918710  
  5150.000000   3914993   3910852   3906346   3901471   3896303  
  5140.000000   3890845   3885154   3879214   3873072   3866722  
  5130.000000   3860220   3853575   3846834   3839991   3833067  
  5120.000000   3826040   3818928   3811727   3804469   3797163  
  5110.000000   3789835   3782475   3775081   3767637   3760151  
  5100.000000   3752634   3745130   3737675   3730310   3723041  
  5090.000000   3715862   3708736   3701632   3694516   3687379  
  5080.000000   3680219   3673051   3665882   3658718   3651549  
  5070.000000   3644367   3637157   3629918   3622648   3615355  
  5060.000000   3608037   3600701   3593336   3585943   3578517  
  5050.000000   3571064   3563586   3556093   3548586   3541065  
  5040.000000   3533527   3525973   3518407   3510842   3503298  
  5030.000000   3495793   3488348   3480972   3473680   3466473  
  5020.000000   3459368   3452370   3445503   3438768   3432186  
  5010.000000   3425748   3419466   3413325   3407345   3401520  
  5000.000000   3395886   3390440   3385222   3380220   3375463  
  4990.000000   3370932   3366657   3362623   3358872   3355390  
  4980.000000   3352217   3349328   3346754   3344463   3342495  
  4970.000000   3340832   3339532   3338584   3338048   3337893  
  4960.000000   3338160   3338801   3339851   3341271   3343114  
  4950.000000   3345356   3348049   3351153   3354692   3358596  
  4940.000000   3362872   3367455   3372371   3377585   3383144  
  4930.000000   3389023   3395258   3401804   3408676   3415822  
  4920.000000   3423260   3430953   3438934   3447177   3455709  
  4910.000000   3464500   3473560   3482849   3492367   3502079  
  4900.000000   3511980   3522035   3532231   3542533   3552920  
  4890.000000   3563364   3573841   3584331   3594804   3605234  
  4880.000000   3615575   3625793   3635831   3645658   3655220  
  4870.000000   3664503   3673459   3682088   3690355   3698275  
  4860.000000   3705830   3713056   3719951   3726559   3732877  
  4850.000000   3738945   3744748   3750324   3755665   3760816  
  4840.000000   3765781   3770612   3775311   3779917   3784418  
  4830.000000   3788834   3793145   3797364   3801469   3805471  
  4820.000000   3809347   3813100   3816710   3820183   3823514  
  4810.000000   3826724   3829819   3832826   3835747   3838596  
  4800.000000   3841364   3844058   3846673   3849228   3851730  
  4790.000000   3854207   3856662   3859111   3861544   3863960  
  4780.000000   3866344   3868696   3871002   3873265   3875466  
  4770.000000   3877598   3879630   3881554   3883342   3884999  
  4760.000000   3886514   3887901   3889151   3890269   3891230  
  4750.000000   3892029   3892637   3893058   3893281   3893332  
  4740.000000   3893213   3892956   3892562   3892056   3891433  
  4730.000000   3890713   3889893   3888988   3887991   3886908  
  4720.000000   3885725   3884441   3883047   3881558   3879985  
  4710.000000   3878363   3876721   3875094   3873502   3871961  
  4700.000000   3870471   3869031   3867633   3866269   3864932  
  4690.000000   3863617   3862317   3861031   3859755   3858489  
  4680.000000   3857233   3855981   3854727   3853448   3852129  
  4670.000000   3850744   3849285   3847749   3846163   3844559  
  4660.000000   3842988   3841493   3840120   3838893   3837835  
  4650.000000   3836951   3836249   3835726   3835385   3835212  
  4640.000000   3835196   3835313   3835539   3835844   3836210  
  4630.000000   3836614   3837041   3837466   3837864   3838199  
  4620.000000   3838436   3838539   3838488   3838279   3837926  
  4610.000000   3837459   3836912   3836322   3835715   3835115  
  4600.000000   3834527   3833962   3833412   3832881   3832358  
  4590.000000   3831845   3831330   3830817   3830293   3829759  
  4580.000000   3829197   3828598   3827935   3827189   3826334  
  4570.000000   3825364   3824273   3823082   3821807   3820478  
  4560.000000   3819107   3817704   3816257   3814755   3813175  
  4550.000000   3811508   3809747   3807897   3805972   3803987  
  4540.000000   3801966   3799927   3797900   3795907   3793985  
  4530.000000   3792151   3790440   3788854   3787420   3786126  
  4520.000000   3785003   3784036   3783272   3782699   3782377  
  4510.000000   3782294   3782521   3783052   3783979   3785307  
  4500.000000   3787145   3789498   3792469   3796040   3800291  
  4490.000000   3805182   3810784   3817053   3824066   3831780  
  4480.000000   3840263   3849460   3859415   3870056   3881409  
  4470.000000   3893396   3906032   3919235   3933003   3947239  
  4460.000000   3961912   3976913   3992192   4007645   4023226  
  4450.000000   4038850   4054480   4070060   4085560   4100955  
  4440.000000   4116220   4131354   4146333   4161173   4175838  
  4430.000000   4190349   4204653   4218768   4232618   4246212  
  4420.000000   4259447   4272317   4284693   4296559   4307771  
  4410.000000   4318307   4328026   4336910   4344836   4351809  
  4400.000000   4357748   4362707   4366670   4369749   4371995  
  4390.000000   4373562   4374538   4375088   4375305   4375336  
  4380.000000   4375262   4375201   4375225   4375432   4375892  
  4370.000000   4376688   4377886   4379541   4381699   4384368  
  4360.000000   4387555   4391221   4395333   4399827   4404645  
  4350.000000   4409729   4415022   4420495   4426118   4431898  
  4340.000000   4437818   4443872   4449979   4456016   4461748  
  4330.000000   4466884   4471070   4473989   4475392   4475211  
  4320.000000   4473546   4470714   4467139   4463334   4459734  
  4310.000000   4456701   4454399   4452883   4452044   4451749  
  4300.000000   4451813   4452110   4452525   4453003   4453506  
  4290.000000   4454014   4454519   4455007   4455486   4455958  
  4280.000000   4456435   4456935   4457461   4458036   4458655  
  4270.000000   4459338   4460065   4460827   4461544   4462113  
  4260.000000   4462359   4462096   4461123   4459307   4456583  
  4250.000000   4453020   4448772   4444094   4439248   4434504  
  4240.000000   4430046   4426002   4422385   4419169   4416261  
  4230.000000   4413571   4410999   4408467   4405918   4403306  
  4220.000000   4400620   4397846   4395021   4392169   4389368  
  4210.000000   4386670   4384164   4381896   4379929   4378274  
  4200.000000   4376952   4375934   4375210   4374725   4374457  
  4190.000000   4374339   4374357   4374448   4374621   4374833  
  4180.000000   4375122   4375471   4375948   4376566   4377427  
  4170.000000   4378575   4380138   4382172   4384796   4388027  
  4160.000000   4391926   4396437   4401557   4407184   4413301  
  4150.000000   4419820   4426764   4434083   4441837   4449997  
  4140.000000   4458633   4467712   4477297   4487344   4497903  
  4130.000000   4508923   4520439   4532393   4544814   4557655  
  4120.000000   4570954   4584682   4598887   4613543   4628684  
  4110.000000   4644265   4660293   4676705   4693491   4710589  
  4100.000000   4727986   4745628   4763503   4781567   4799805  
  4090.000000   4818183   4836682   4855276   4873945   4892681  
  4080.000000   4911469   4930321   4949224   4968187   4987165  
  4070.000000   5006133   5024994   5043699   5062136   5080285  
  4060.000000   5098068   5115509   5132543   5149195   5165366  
  4050.000000   5181066   5196185   5210762   5224718   5238128  
  4040.000000   5250911   5263118   5274613   5285407   5295347  
  4030.000000   5304471   5312671   5320026   5326464   5332047  
  4020.000000   5336655   5340336   5343032   5344817   5345626  
  4010.000000   5345625   5344910   5343542   5341305   5338306  
  4000.000000   5334923  
##END= 
