##TITLE= Sample 024 By ssteindl date Dienstag, November 20 2018
##JCAMP-DX= 4.24
##DATA TYPE= INFRARED SPECTRUM
##ORIGIN= Exported PE Spectrum Data File
##OWNER= Sandra Steindl
##DATE= 18/11/20
##TIME= 17:18:11.00
##SPECTROMETER/DATA SYSTEM= PERKIN-ELMER Frontier FT-IR/NIR IR
##INSTRUMENT PARAMETERS=
  APODIZATION=stark
  DETECTOR=INGAAS
##RESOLUTION= 16.000000
##DELTAX= -2.000000
##XUNITS= 1/CM
##YUNITS= A
##XFACTOR= 1.00
##YFACTOR= 0.00000011920928955078
##FIRSTX= 10000.00
##LASTX= 4000.00
##NPOINTS= 3001
##FIRSTY= 0.223082
##MAXY= 0.598618
##MINY= 0.189795
##XYDATA= (X++(Y..Y))
 10000.000000   1871349   1865408   1859946   1855782   1853442  
  9990.000000   1852600   1852333   1851399   1848856   1844298  
  9980.000000   1838001   1830778   1823731   1817998   1814484  
  9970.000000   1813732   1815855   1820501   1826904   1833903  
  9960.000000   1840180   1844378   1845480   1842954   1837015  
  9950.000000   1828525   1818892   1809661   1802206   1797417  
  9940.000000   1795560   1796353   1799066   1802832   1806759  
  9930.000000   1810170   1812614   1813888   1814014   1813106  
  9920.000000   1811411   1809115   1806469   1803625   1800772  
  9910.000000   1798090   1795792   1794197   1793565   1794205  
  9900.000000   1796202   1799536   1803925   1808958   1814083  
  9890.000000   1818646   1821971   1823332   1822164   1818100  
  9880.000000   1811209   1801981   1791374   1780622   1771046  
  9870.000000   1763770   1759492   1758355   1759933   1763424  
  9860.000000   1767801   1772111   1775559   1777683   1778386  
  9850.000000   1777927   1776940   1776202   1776549   1778476  
  9840.000000   1782054   1786685   1791346   1794780   1796034  
  9830.000000   1794758   1791421   1787154   1783336   1781146  
  9820.000000   1781108   1783054   1786241   1789809   1793134  
  9810.000000   1796102   1798993   1802264   1806102   1810286  
  9800.000000   1814105   1816700   1817374   1815956   1812884  
  9790.000000   1809042   1805420   1802731   1801181   1800445  
  9780.000000   1799833   1798587   1796122   1792234   1787070  
  9770.000000   1781127   1775031   1769521   1765240   1762748  
  9760.000000   1762366   1764100   1767607   1772128   1776709  
  9750.000000   1780289   1782031   1781400   1778336   1773170  
  9740.000000   1766650   1759756   1753641   1749407   1747911  
  9730.000000   1749571   1754144   1760810   1768231   1774995  
  9720.000000   1779917   1782433   1782698   1781448   1779678  
  9710.000000   1778129   1777046   1776011   1774299   1771196  
  9700.000000   1766503   1760660   1754654   1749665   1746560  
  9690.000000   1745672   1746624   1748682   1751007   1753077  
  9680.000000   1754784   1756373   1758218   1760538   1763276  
  9670.000000   1766071   1768418   1769828   1769990   1768821  
  9660.000000   1766487   1763326   1759809   1756476   1753822  
  9650.000000   1752237   1751799   1752259   1752962   1753093  
  9640.000000   1751901   1749050   1744778   1739863   1735364  
  9630.000000   1732163   1730666   1730552   1731021   1731055  
  9620.000000   1729937   1727496   1724159   1720760   1718165  
  9610.000000   1717028   1717616   1719878   1723584   1728437  
  9600.000000   1734138   1740255   1746156   1750934   1753618  
  9590.000000   1753453   1750297   1744784   1738251   1732324  
  9580.000000   1728381   1727110   1728290   1731007   1734007  
  9570.000000   1736241   1737150   1736801   1735653   1734287  
  9560.000000   1733059   1732005   1730882   1729405   1727484  
  9550.000000   1725301   1723302   1721945   1721513   1721973  
  9540.000000   1722961   1723962   1724438   1724035   1722629  
  9530.000000   1720350   1717540   1714660   1712216   1710623  
  9520.000000   1710106   1710590   1711703   1712822   1713286  
  9510.000000   1712588   1710597   1707617   1704314   1701492  
  9500.000000   1699800   1699532   1700539   1702352   1704387  
  9490.000000   1706208   1707619   1708684   1709554   1710323  
  9480.000000   1710933   1711173   1710833   1709772   1708058  
  9470.000000   1705857   1703387   1700748   1697925   1694850  
  9460.000000   1691565   1688345   1685681   1684180   1684264  
  9450.000000   1686045   1689129   1692810   1696216   1698696  
  9440.000000   1700013   1700415   1700478   1700742   1701449  
  9430.000000   1702334   1702768   1701950   1699306   1694681  
  9420.000000   1688498   1681630   1675148   1670037   1666857  
  9410.000000   1665739   1666333   1668079   1670334   1672577  
  9400.000000   1674513   1676030   1677204   1678081   1678673  
  9390.000000   1678790   1678215   1676695   1674214   1670975  
  9380.000000   1667500   1664513   1662785   1662974   1665351  
  9370.000000   1669788   1675670   1682152   1688313   1693424  
  9360.000000   1697066   1699163   1699920   1699637   1698582  
  9350.000000   1696868   1694497   1691449   1687800   1683796  
  9340.000000   1679816   1676340   1673764   1672368   1672115  
  9330.000000   1672736   1673695   1674427   1674437   1673473  
  9320.000000   1671552   1668963   1666184   1663735   1662037  
  9310.000000   1661249   1661256   1661665   1661986   1661720  
  9300.000000   1660558   1658412   1655481   1652136   1648840  
  9290.000000   1645995   1643882   1642617   1642177   1642451  
  9280.000000   1643293   1644610   1646358   1648558   1651192  
  9270.000000   1654199   1657396   1660507   1663193   1665105  
  9260.000000   1665984   1665701   1664323   1662058   1659212  
  9250.000000   1656085   1652923   1649863   1646978   1644305  
  9240.000000   1641915   1639915   1638392   1637371   1636749  
  9230.000000   1636369   1636068   1635814   1635750   1636196  
  9220.000000   1637536   1640058   1643760   1648256   1652831  
  9210.000000   1656663   1659110   1659905   1659227   1657581  
  9200.000000   1655591   1653723   1652119   1650601   1648815  
  9190.000000   1646456   1643420   1639901   1636293   1633061  
  9180.000000   1630515   1628755   1627658   1626988   1626512  
  9170.000000   1626063   1625598   1625105   1624591   1624027  
  9160.000000   1623417   1622843   1622517   1622718   1623711  
  9150.000000   1625601   1628278   1631380   1634405   1636859  
  9140.000000   1638445   1639111   1639037   1638491   1637732  
  9130.000000   1636902   1636033   1635100   1634103   1633136  
  9120.000000   1632349   1631917   1631905   1632286   1632912  
  9110.000000   1633640   1634347   1635018   1635666   1636295  
  9100.000000   1636807   1637009   1636687   1635703   1634123  
  9090.000000   1632188   1630280   1628725   1627681   1627017  
  9080.000000   1626387   1625386   1623760   1621555   1619118  
  9070.000000   1617022   1615835   1615947   1617388   1619897  
  9060.000000   1623005   1626194   1629029   1631214   1632638  
  9050.000000   1633270   1633129   1632230   1630640   1628479  
  9040.000000   1625939   1623287   1620829   1618857   1617565  
  9030.000000   1617055   1617305   1618197   1619484   1620846  
  9020.000000   1621921   1622384   1622018   1620790   1618895  
  9010.000000   1616712   1614709   1613303   1612750   1613062  
  9000.000000   1614035   1615333   1616618   1617641   1618266  
  8990.000000   1618469   1618267   1617689   1616741   1615466  
  8980.000000   1613973   1612462   1611173   1610327   1610025  
  8970.000000   1610199   1610593   1610863   1610696   1609915  
  8960.000000   1608527   1606689   1604653   1602623   1600732  
  8950.000000   1598987   1597360   1595816   1594395   1593196  
  8940.000000   1592386   1592113   1592474   1593482   1595070  
  8930.000000   1597116   1599455   1601909   1604317   1606532  
  8920.000000   1608462   1610065   1611397   1612541   1613597  
  8910.000000   1614581   1615424   1615952   1615969   1615350  
  8900.000000   1614135   1612578   1611081   1610116   1610039  
  8890.000000   1610998   1612830   1615153   1617472   1619345  
  8880.000000   1620502   1620898   1620691   1620153   1619559  
  8870.000000   1619107   1618876   1618851   1618958   1619131  
  8860.000000   1619325   1619554   1619840   1620207   1620623  
  8850.000000   1620999   1621187   1621008   1620321   1619049  
  8840.000000   1617252   1615092   1612829   1610746   1609081  
  8830.000000   1608000   1607567   1607776   1608584   1609941  
  8820.000000   1611815   1614130   1616738   1619347   1621587  
  8810.000000   1623063   1623517   1622916   1621546   1619932  
  8800.000000   1618722   1618479   1619510   1621764   1624847  
  8790.000000   1628177   1631154   1633348   1634562   1634861  
  8780.000000   1634489   1633772   1633023   1632469   1632253  
  8770.000000   1632417   1632935   1633702   1634568   1635357  
  8760.000000   1635925   1636217   1636293   1636334   1636569  
  8750.000000   1637194   1638279   1639742   1641378   1642965  
  8740.000000   1644352   1645545   1646688   1647996   1649640  
  8730.000000   1651633   1653805   1655814   1657289   1657914  
  8720.000000   1657571   1656338   1654490   1652400   1650462  
  8710.000000   1649032   1648377   1648689   1650042   1652413  
  8700.000000   1655629   1659414   1663385   1667142   1670331  
  8690.000000   1672723   1674256   1675001   1675124   1674807  
  8680.000000   1674236   1673559   1672913   1672421   1672188  
  8670.000000   1672289   1672705   1673339   1673995   1674460  
  8660.000000   1674570   1674281   1673712   1673067   1672595  
  8650.000000   1672447   1672679   1673195   1673866   1674573  
  8640.000000   1675326   1676256   1677577   1679506   1682162  
  8630.000000   1685523   1689401   1693529   1697634   1701503  
  8620.000000   1705019   1708122   1710791   1712978   1714612  
  8610.000000   1715601   1715889   1715499   1714564   1713329  
  8600.000000   1712103   1711215   1710903   1711305   1712373  
  8590.000000   1713957   1715778   1717567   1719077   1720193  
  8580.000000   1720926   1721417   1721865   1722445   1723251  
  8570.000000   1724227   1725215   1725969   1726287   1726051  
  8560.000000   1725315   1724270   1723196   1722387   1722050  
  8550.000000   1722289   1723081   1724331   1725910   1727711  
  8540.000000   1729652   1731671   1733697   1735628   1737349  
  8530.000000   1738730   1739688   1740190   1740295   1740121  
  8520.000000   1739823   1739563   1739473   1739657   1740166  
  8510.000000   1741019   1742198   1743637   1745218   1746759  
  8500.000000   1748046   1748856   1749030   1748516   1747426  
  8490.000000   1746018   1744666   1743766   1743655   1744510  
  8480.000000   1746304   1748816   1751687   1754521   1756986  
  8470.000000   1758890   1760213   1761080   1761691   1762248  
  8460.000000   1762890   1763684   1764642   1765747   1766991  
  8450.000000   1768386   1769948   1771667   1773451   1775143  
  8440.000000   1776532   1777429   1777708   1777377   1776582  
  8430.000000   1775580   1774654   1774055   1773932   1774313  
  8420.000000   1775098   1776113   1777155   1778042   1778629  
  8410.000000   1778839   1778659   1778158   1777465   1776754  
  8400.000000   1776218   1776023   1776280   1776999   1778090  
  8390.000000   1779384   1780684   1781813   1782647   1783142  
  8380.000000   1783330   1783294   1783136   1782952   1782827  
  8370.000000   1782825   1782992   1783343   1783859   1784488  
  8360.000000   1785139   1785702   1786069   1786182   1786041  
  8350.000000   1785722   1785340   1785034   1784921   1785073  
  8340.000000   1785489   1786104   1786802   1787445   1787895  
  8330.000000   1788037   1787802   1787180   1786243   1785112  
  8320.000000   1783955   1782930   1782164   1781709   1781544  
  8310.000000   1781591   1781756   1781984   1782266   1782668  
  8300.000000   1783271   1784160   1785347   1786770   1788280  
  8290.000000   1789690   1790821   1791540   1791794   1791585  
  8280.000000   1790968   1790012   1788791   1787373   1785828  
  8270.000000   1784245   1782716   1781350   1780225   1779403  
  8260.000000   1778887   1778654   1778641   1778779   1778993  
  8250.000000   1779210   1779357   1779345   1779094   1778540  
  8240.000000   1777669   1776535   1775254   1773995   1772923  
  8230.000000   1772175   1771801   1771774   1771979   1772265  
  8220.000000   1772469   1772457   1772136   1771449   1770375  
  8210.000000   1768908   1767074   1764928   1762579   1760177  
  8200.000000   1757912   1755967   1754492   1753560   1753152  
  8190.000000   1753167   1753438   1753785   1754042   1754107  
  8180.000000   1753949   1753614   1753201   1752835   1752634  
  8170.000000   1752668   1752935   1753344   1753729   1753880  
  8160.000000   1753596   1752746   1751298   1749339   1747053  
  8150.000000   1744675   1742425   1740458   1738820   1737463  
  8140.000000   1736268   1735114   1733910   1732648   1731375  
  8130.000000   1730192   1729198   1728461   1727988   1727724  
  8120.000000   1727558   1727355   1726988   1726368   1725466  
  8110.000000   1724325   1723043   1721748   1720555   1719532  
  8100.000000   1718670   1717883   1717030   1715961   1714576  
  8090.000000   1712865   1710922   1708917   1707039   1705427  
  8080.000000   1704130   1703088   1702177   1701253   1700226  
  8070.000000   1699091   1697932   1696881   1696066   1695554  
  8060.000000   1695332   1695306   1695353   1695352   1695235  
  8050.000000   1694984   1694623   1694189   1693702   1693175  
  8040.000000   1692609   1692027   1691480   1691040   1690770  
  8030.000000   1690678   1690693   1690659   1690371   1689639  
  8020.000000   1688359   1686559   1684414   1682201   1680225  
  8010.000000   1678739   1677868   1677596   1677766   1678159  
  8000.000000   1678541   1678748   1678701   1678425   1678009  
  7990.000000   1677567   1677195   1676930   1676748   1676552  
  7980.000000   1676217   1675605   1674625   1673248   1671538  
  7970.000000   1669641   1667761   1666114   1664867   1664107  
  7960.000000   1663807   1663850   1664056   1664252   1664318  
  7950.000000   1664220   1664008   1663785   1663659   1663689  
  7940.000000   1663869   1664111   1664296   1664292   1664018  
  7930.000000   1663448   1662627   1661650   1660634   1659695  
  7920.000000   1658920   1658367   1658053   1657962   1658049  
  7910.000000   1658241   1658453   1658589   1658566   1658315  
  7900.000000   1657809   1657053   1656101   1655039   1653991  
  7890.000000   1653082   1652438   1652144   1652229   1652652  
  7880.000000   1653295   1654002   1654602   1654977   1655093  
  7870.000000   1655016   1654889   1654880   1655111   1655601  
  7860.000000   1656255   1656882   1657268   1657252   1656784  
  7850.000000   1655950   1654928   1653936   1653141   1652627  
  7840.000000   1652365   1652263   1652195   1652065   1651815  
  7830.000000   1651438   1650937   1650322   1649591   1648749  
  7820.000000   1647818   1646855   1645936   1645139   1644498  
  7810.000000   1644002   1643579   1643150   1642651   1642080  
  7800.000000   1641485   1640938   1640478   1640079   1639634  
  7790.000000   1638994   1638034   1636706   1635089   1633351  
  7780.000000   1631705   1630312   1629232   1628403   1627687  
  7770.000000   1626946   1626118   1625257   1624511   1624061  
  7760.000000   1624030   1624425   1625115   1625875   1626466  
  7750.000000   1626710   1626552   1626053   1625357   1624619  
  7740.000000   1623952   1623394   1622914   1622453   1621954  
  7730.000000   1621396   1620793   1620179   1619578   1618994  
  7720.000000   1618397   1617740   1616974   1616068   1615020  
  7710.000000   1613852   1612613   1611370   1610205   1609210  
  7700.000000   1608474   1608065   1608010   1608274   1608752  
  7690.000000   1609279   1609676   1609780   1609513   1608887  
  7680.000000   1608019   1607083   1606260   1605682   1605401  
  7670.000000   1605391   1605565   1605830   1606109   1606371  
  7660.000000   1606609   1606826   1606999   1607069   1606952  
  7650.000000   1606569   1605892   1604953   1603864   1602769  
  7640.000000   1601806   1601066   1600565   1600255   1600056  
  7630.000000   1599900   1599756   1599639   1599585   1599615  
  7620.000000   1599708   1599795   1599795   1599642   1599342  
  7610.000000   1598970   1598670   1598582   1598802   1599328  
  7600.000000   1600066   1600857   1601544   1602014   1602239  
  7590.000000   1602265   1602188   1602103   1602078   1602135  
  7580.000000   1602262   1602438   1602656   1602928   1603276  
  7570.000000   1603715   1604235   1604794   1605336   1605805  
  7560.000000   1606168   1606413   1606561   1606634   1606669  
  7550.000000   1606697   1606768   1606936   1607275   1607847  
  7540.000000   1608695   1609808   1611127   1612546   1613954  
  7530.000000   1615262   1616441   1617519   1618570   1619670  
  7520.000000   1620874   1622183   1623562   1624941   1626265  
  7510.000000   1627494   1628627   1629676   1630662   1631590  
  7500.000000   1632458   1633262   1634015   1634754   1635540  
  7490.000000   1636438   1637500   1638742   1640147   1641662  
  7480.000000   1643235   1644817   1646395   1647974   1649583  
  7470.000000   1651245   1652983   1654798   1656696   1658666  
  7460.000000   1660721   1662859   1665093   1667409   1669793  
  7450.000000   1672207   1674620   1677003   1679356   1681701  
  7440.000000   1684082   1686547   1689130   1691835   1694626  
  7430.000000   1697436   1700173   1702755   1705126   1707281  
  7420.000000   1709264   1711157   1713055   1715035   1717126  
  7410.000000   1719310   1721515   1723655   1725646   1727444  
  7400.000000   1729055   1730531   1731947   1733376   1734870  
  7390.000000   1736448   1738100   1739804   1741543   1743319  
  7380.000000   1745160   1747105   1749195   1751455   1753879  
  7370.000000   1756431   1759045   1761639   1764140   1766491  
  7360.000000   1768682   1770742   1772742   1774768   1776897  
  7350.000000   1779165   1781552   1783980   1786341   1788534  
  7340.000000   1790504   1792268   1793903   1795523   1797223  
  7330.000000   1799056   1801000   1802983   1804896   1806661  
  7320.000000   1808244   1809688   1811080   1812540   1814150  
  7310.000000   1815954   1817912   1819933   1821887   1823649  
  7300.000000   1825129   1826288   1827136   1827731   1828154  
  7290.000000   1828497   1828833   1829219   1829676   1830212  
  7280.000000   1830810   1831459   1832142   1832860   1833614  
  7270.000000   1834409   1835244   1836106   1836976   1837823  
  7260.000000   1838631   1839380   1840076   1840727   1841363  
  7250.000000   1842011   1842716   1843517   1844464   1845592  
  7240.000000   1846930   1848466   1850166   1851949   1853737  
  7230.000000   1855443   1857038   1858517   1859941   1861379  
  7220.000000   1862924   1864630   1866542   1868657   1870976  
  7210.000000   1873478   1876170   1879043   1882099   1885306  
  7200.000000   1888625   1891976   1895304   1898542   1901685  
  7190.000000   1904739   1907768   1910823   1913982   1917274  
  7180.000000   1920729   1924332   1928075   1931934   1935914  
  7170.000000   1940019   1944286   1948738   1953411   1958301  
  7160.000000   1963393   1968613   1973886   1979098   1984181  
  7150.000000   1989073   1993797   1998406   2003027   2007774  
  7140.000000   2012767   2018054   2023647   2029496   2035549  
  7130.000000   2041743   2048056   2054471   2061005   2067648  
  7120.000000   2074406   2081244   2088156   2095110   2102115  
  7110.000000   2109158   2116253   2123379   2130536   2137699  
  7100.000000   2144883   2152109   2159435   2166908   2174576  
  7090.000000   2182436   2190460   2198580   2206738   2214880  
  7080.000000   2222991   2231068   2239128   2247172   2255205  
  7070.000000   2263217   2271224   2279249   2287340   2295531  
  7060.000000   2303829   2312187   2320513   2328701   2336671  
  7050.000000   2344410   2351979   2359497   2367084   2374815  
  7040.000000   2382681   2390605   2398471   2406187   2413713  
  7030.000000   2421088   2428385   2435685   2443011   2450343  
  7020.000000   2457599   2464708   2471619   2478348   2484942  
  7010.000000   2491468   2497951   2504382   2510691   2516816  
  7000.000000   2522699   2528349   2533800   2539133   2544400  
  6990.000000   2549650   2554876   2560082   2565245   2570380  
  6980.000000   2575485   2580575   2585613   2590558   2595325  
  6970.000000   2599861   2604112   2608088   2611804   2615304  
  6960.000000   2618603   2621725   2624669   2627478   2630200  
  6950.000000   2632932   2635737   2638661   2641653   2644613  
  6940.000000   2647384   2649853   2651957   2653751   2655352  
  6930.000000   2656926   2658602   2660449   2662441   2664508  
  6920.000000   2666551   2668512   2670365   2672140   2673870  
  6910.000000   2675588   2677291   2678964   2680574   2682109  
  6900.000000   2683563   2684940   2686238   2687440   2688510  
  6890.000000   2689419   2690155   2690744   2691241   2691724  
  6880.000000   2692261   2692899   2693650   2694508   2695445  
  6870.000000   2696447   2697493   2698572   2699663   2700740  
  6860.000000   2701770   2702731   2703614   2704428   2705186  
  6850.000000   2705896   2706550   2707124   2707599   2707976  
  6840.000000   2708284   2708583   2708930   2709358   2709846  
  6830.000000   2710337   2710747   2711028   2711177   2711268  
  6820.000000   2711409   2711711   2712222   2712914   2713676  
  6810.000000   2714368   2714859   2715084   2715049   2714825  
  6800.000000   2714499   2714150   2713811   2713485   2713151  
  6790.000000   2712798   2712425   2712048   2711677   2711309  
  6780.000000   2710915   2710467   2709939   2709344   2708720  
  6770.000000   2708132   2707634   2707254   2706977   2706756  
  6760.000000   2706520   2706214   2705797   2705265   2704627  
  6750.000000   2703907   2703120   2702285   2701413   2700522  
  6740.000000   2699624   2698735   2697852   2696970   2696062  
  6730.000000   2695113   2694106   2693049   2691956   2690847  
  6720.000000   2689727   2688594   2687422   2686191   2684886  
  6710.000000   2683515   2682098   2680667   2679246   2677850  
  6700.000000   2676476   2675116   2673762   2672413   2671070  
  6690.000000   2669736   2668405   2667068   2665710   2664331  
  6680.000000   2662937   2661551   2660187   2658847   2657502  
  6670.000000   2656103   2654591   2652926   2651104   2649165  
  6660.000000   2647178   2645218   2643331   2641528   2639772  
  6650.000000   2638008   2636177   2634249   2632221   2630124  
  6640.000000   2627999   2625893   2623837   2621859   2619970  
  6630.000000   2618185   2616502   2614912   2613384   2611876  
  6620.000000   2610331   2608702   2606958   2605093   2603122  
  6610.000000   2601073   2598975   2596848   2594706   2592560  
  6600.000000   2590425   2588317   2586251   2584236   2582263  
  6590.000000   2580318   2578382   2576456   2574554   2572709  
  6580.000000   2570950   2569290   2567709   2566157   2564568  
  6570.000000   2562887   2561089   2559189   2557239   2555300  
  6560.000000   2553427   2551644   2549949   2548317   2546723  
  6550.000000   2545151   2543603   2542087   2540617   2539198  
  6540.000000   2537824   2536481   2535161   2533855   2532569  
  6530.000000   2531306   2530076   2528880   2527721   2526600  
  6520.000000   2525521   2524485   2523486   2522508   2521523  
  6510.000000   2520499   2519411   2518252   2517037   2515800  
  6500.000000   2514579   2513402   2512277   2511194   2510133  
  6490.000000   2509082   2508040   2507020   2506037   2505093  
  6480.000000   2504172   2503239   2502259   2501209   2500098  
  6470.000000   2498959   2497842   2496786   2495811   2494900  
  6460.000000   2494019   2493122   2492176   2491168   2490102  
  6450.000000   2488992   2487853   2486698   2485538   2484395  
  6440.000000   2483296   2482275   2481355   2480535   2479789  
  6430.000000   2479062   2478295   2477444   2476499   2475483  
  6420.000000   2474443   2473427   2472469   2471584   2470768  
  6410.000000   2470016   2469330   2468717   2468184   2467717  
  6400.000000   2467281   2466817   2466268   2465597   2464806  
  6390.000000   2463933   2463037   2462171   2461359   2460590  
  6380.000000   2459830   2459045   2458217   2457365   2456523  
  6370.000000   2455727   2454990   2454294   2453592   2452841  
  6360.000000   2452017   2451133   2450231   2449364   2448563  
  6350.000000   2447831   2447130   2446413   2445640   2444800  
  6340.000000   2443912   2443018   2442152   2441331   2440539  
  6330.000000   2439746   2438913   2438021   2437065   2436066  
  6320.000000   2435046   2434023   2432995   2431952   2430870  
  6310.000000   2429738   2428540   2427279   2425953   2424571  
  6300.000000   2423133   2421653   2420142   2418620   2417090  
  6290.000000   2415553   2413973   2412314   2410527   2408591  
  6280.000000   2406509   2404326   2402102   2399903   2397761  
  6270.000000   2395681   2393623   2391539   2389372   2387099  
  6260.000000   2384716   2382250   2379730   2377192   2374650  
  6250.000000   2372120   2369602   2367108   2364638   2362199  
  6240.000000   2359778   2357359   2354914   2352423   2349877  
  6230.000000   2347284   2344662   2342033   2339404   2336769  
  6220.000000   2334109   2331405   2328645   2325841   2323016  
  6210.000000   2320206   2317442   2314743   2312114   2309551  
  6200.000000   2307046   2304597   2302200   2299853   2297548  
  6190.000000   2295264   2292982   2290681   2288358   2286015  
  6180.000000   2283669   2281334   2279021   2276727   2274451  
  6170.000000   2272188   2269948   2267748   2265613   2263563  
  6160.000000   2261603   2259722   2257893   2256084   2254267  
  6150.000000   2252425   2250551   2248642   2246699   2244721  
  6140.000000   2242713   2240686   2238669   2236695   2234802  
  6130.000000   2233009   2231321   2229716   2228165   2226636  
  6120.000000   2225115   2223605   2222126   2220692   2219315  
  6110.000000   2217980   2216668   2215349   2214013   2212660  
  6100.000000   2211317   2210013   2208785   2207648   2206611  
  6090.000000   2205664   2204801   2204005   2203276   2202603  
  6080.000000   2201984   2201404   2200861   2200343   2199865  
  6070.000000   2199436   2199085   2198824   2198666   2198599  
  6060.000000   2198615   2198690   2198819   2198994   2199230  
  6050.000000   2199525   2199888   2200306   2200776   2201280  
  6040.000000   2201825   2202410   2203056   2203770   2204559  
  6030.000000   2205409   2206310   2207246   2208217   2209231  
  6020.000000   2210310   2211467   2212709   2214020   2215374  
  6010.000000   2216737   2218086   2219410   2220716   2222014  
  6000.000000   2223313   2224609   2225891   2227135   2228333  
  5990.000000   2229483   2230610   2231746   2232932   2234196  
  5980.000000   2235554   2236998   2238514   2240074   2241660  
  5970.000000   2243254   2244857   2246471   2248111   2249790  
  5960.000000   2251526   2253325   2255191   2257106   2259051  
  5950.000000   2260990   2262902   2264766   2266586   2268374  
  5940.000000   2270157   2271958   2273796   2275676   2277597  
  5930.000000   2279555   2281549   2283586   2285680   2287841  
  5920.000000   2290077   2292379   2294728   2297090   2299434  
  5910.000000   2301722   2303927   2306028   2308023   2309918  
  5900.000000   2311743   2313543   2315373   2317283   2319310  
  5890.000000   2321466   2323729   2326056   2328393   2330696  
  5880.000000   2332935   2335103   2337211   2339268   2341282  
  5870.000000   2343241   2345136   2346951   2348690   2350369  
  5860.000000   2352022   2353684   2355390   2357160   2359011  
  5850.000000   2360949   2362988   2365140   2367417   2369820  
  5840.000000   2372333   2374924   2377551   2380178   2382779  
  5830.000000   2385353   2387909   2390467   2393033   2395603  
  5820.000000   2398148   2400641   2403045   2405341   2407510  
  5810.000000   2409551   2411443   2413182   2414738   2416109  
  5800.000000   2417283   2418290   2419151   2419918   2420609  
  5790.000000   2421256   2421843   2422365   2422776   2423053  
  5780.000000   2423142   2423012   2422613   2421922   2420920  
  5770.000000   2419630   2418101   2416420   2414685   2412998  
  5760.000000   2411434   2410044   2408843   2407831   2406994  
  5750.000000   2406317   2405785   2405377   2405069   2404825  
  5740.000000   2404619   2404420   2404230   2404053   2403919  
  5730.000000   2403839   2403829   2403872   2403960   2404069  
  5720.000000   2404204   2404371   2404600   2404905   2405297  
  5710.000000   2405758   2406266   2406794   2407335   2407899  
  5700.000000   2408520   2409227   2410040   2410948   2411916  
  5690.000000   2412898   2413850   2414751   2415599   2416411  
  5680.000000   2417201   2417971   2418700   2419356   2419899  
  5670.000000   2420306   2420566   2420691   2420694   2420600  
  5660.000000   2420414   2420151   2419810   2419408   2418954  
  5650.000000   2418473   2417976   2417476   2416969   2416456  
  5640.000000   2415928   2415390   2414846   2414305   2413771  
  5630.000000   2413245   2412719   2412193   2411669   2411161  
  5620.000000   2410684   2410250   2409858   2409493   2409129  
  5610.000000   2408740   2408310   2407838   2407336   2406822  
  5600.000000   2406303   2405777   2405226   2404632   2403977  
  5590.000000   2403261   2402491   2401686   2400852   2399994  
  5580.000000   2399096   2398146   2397132   2396059   2394940  
  5570.000000   2393796   2392642   2391489   2390331   2389168  
  5560.000000   2387994   2386818   2385652   2384511   2383399  
  5550.000000   2382314   2381240   2380167   2379089   2378012  
  5540.000000   2376950   2375918   2374914   2373923   2372919  
  5530.000000   2371873   2370771   2369621   2368451   2367299  
  5520.000000   2366197   2365160   2364181   2363239   2362303  
  5510.000000   2361350   2360367   2359350   2358299   2357221  
  5500.000000   2356114   2354986   2353844   2352706   2351589  
  5490.000000   2350507   2349452   2348408   2347336   2346206  
  5480.000000   2344985   2343667   2342255   2340770   2339223  
  5470.000000   2337626   2335977   2334272   2332507   2330690  
  5460.000000   2328827   2326932   2325002   2323036   2321016  
  5450.000000   2318938   2316801   2314628   2312448   2310289  
  5440.000000   2308172   2306097   2304055   2302031   2300024  
  5430.000000   2298039   2296097   2294208   2292385   2290617  
  5420.000000   2288902   2287235   2285644   2284161   2282843  
  5410.000000   2281718   2280804   2280064   2279460   2278931  
  5400.000000   2278454   2278006   2277617   2277302   2277100  
  5390.000000   2277012   2277053   2277207   2277493   2277914  
  5380.000000   2278514   2279301   2280302   2281488   2282847  
  5370.000000   2284323   2285908   2287568   2289338   2291211  
  5360.000000   2293244   2295431   2297832   2300442   2303342  
  5350.000000   2306544   2310140   2314136   2318599   2323489  
  5340.000000   2328842   2334597   2340806   2347425   2354524  
  5330.000000   2362053   2370064   2378479   2387338   2396580  
  5320.000000   2406300   2416494   2427316   2438782   2451032  
  5310.000000   2464027   2477844   2492385   2507701   2523703  
  5300.000000   2540471   2557961   2576297   2595468   2615609  
  5290.000000   2636696   2658808   2681848   2705791   2730463  
  5280.000000   2755803   2781679   2808122   2835130   2862822  
  5270.000000   2891221   2920338   2950027   2980074   3010207  
  5260.000000   3040192   3069901   3099309   3128504   3157546  
  5250.000000   3186487   3215199   3243534   3271186   3297992  
  5240.000000   3323746   3348506   3372278   3395277   3417547  
  5230.000000   3439246   3460283   3480660   3500168   3518771  
  5220.000000   3536302   3552841   3568354   3583038   3596923  
  5210.000000   3610197   3622818   3634855   3646144   3656678  
  5200.000000   3666291   3675047   3682892   3689987   3696334  
  5190.000000   3702078   3707162   3711650   3715432   3718555  
  5180.000000   3720947   3722705   3723801   3724340   3724275  
  5170.000000   3723667   3722449   3720686   3718355   3715572  
  5160.000000   3712359   3708829   3704971   3700836   3696362  
  5150.000000   3691567   3686404   3680923   3675121   3669070  
  5140.000000   3662771   3656273   3649558   3642661   3635574  
  5130.000000   3628346   3620992   3613564   3606068   3598533  
  5120.000000   3590943   3583314   3575637   3567934   3560209  
  5110.000000   3552486   3544760   3537035   3529297   3521546  
  5100.000000   3513777   3506010   3498256   3490535   3482851  
  5090.000000   3475204   3467577   3459962   3452342   3444721  
  5080.000000   3437096   3429475   3421857   3414239   3406614  
  5070.000000   3398977   3391324   3383662   3375996   3368336  
  5060.000000   3360681   3353027   3345364   3337687   3329995  
  5050.000000   3322298   3314610   3306949   3299327   3291746  
  5040.000000   3284204   3276688   3269196   3261725   3254291  
  5030.000000   3246907   3239600   3232382   3225271   3218266  
  5020.000000   3211377   3204597   3197941   3191403   3185005  
  5010.000000   3178739   3172622   3166639   3160811   3155124  
  5000.000000   3149611   3144271   3139150   3134249   3129614  
  4990.000000   3125237   3121154   3117346   3113845   3110625  
  4980.000000   3107720   3105100   3102801   3100795   3099125  
  4970.000000   3097769   3096782   3096147   3095917   3096064  
  4960.000000   3096624   3097552   3098873   3100536   3102569  
  4950.000000   3104931   3107656   3110699   3114091   3117779  
  4940.000000   3121789   3126074   3130666   3135532   3140715  
  4930.000000   3146187   3151984   3158075   3164485   3171180  
  4920.000000   3178181   3185453   3193012   3200815   3208862  
  4910.000000   3217106   3225540   3234122   3242853   3251707  
  4900.000000   3260691   3269784   3278983   3288265   3297618  
  4890.000000   3307022   3316467   3325940   3335431   3344924  
  4880.000000   3354395   3363818   3373154   3382377   3391447  
  4870.000000   3400345   3409040   3417525   3425776   3433801  
  4860.000000   3441586   3449154   3456507   3463680   3470679  
  4850.000000   3477546   3484282   3490925   3497467   3503933  
  4840.000000   3510301   3516576   3522721   3528729   3534562  
  4830.000000   3540220   3545681   3550960   3556043   3560946  
  4820.000000   3565647   3570151   3574436   3578515   3582385  
  4810.000000   3586082   3589618   3593034   3596326   3599515  
  4800.000000   3602577   3605519   3608322   3611007   3613576  
  4790.000000   3616063   3618471   3620822   3623098   3625303  
  4780.000000   3627410   3629425   3631330   3633144   3634854  
  4770.000000   3636477   3637994   3639410   3640695   3641852  
  4760.000000   3642849   3643693   3644353   3644835   3645107  
  4750.000000   3645177   3645020   3644657   3644078   3643317  
  4740.000000   3642370   3641270   3640006   3638596   3637020  
  4730.000000   3635290   3633387   3631326   3629102   3626737  
  4720.000000   3624236   3621627   3618919   3616142   3613309  
  4710.000000   3610446   3607566   3604694   3601837   3599015  
  4700.000000   3596228   3593485   3590780   3588111   3585464  
  4690.000000   3582832   3580204   3577573   3574936   3572291  
  4680.000000   3569634   3566958   3564254   3561504   3558694  
  4670.000000   3555810   3552855   3549834   3546778   3543716  
  4660.000000   3540693   3537745   3534914   3532227   3529713  
  4650.000000   3527385   3525262   3523343   3521629   3520103  
  4640.000000   3518747   3517528   3516423   3515395   3514429  
  4630.000000   3513496   3512589   3511689   3510795   3509895  
  4620.000000   3508996   3508096   3507207   3506332   3505473  
  4610.000000   3504624   3503774   3502912   3502036   3501153  
  4600.000000   3500283   3499454   3498690   3498006   3497398  
  4590.000000   3496846   3496318   3495788   3495233   3494648  
  4580.000000   3494038   3493414   3492782   3492140   3491474  
  4570.000000   3490771   3490012   3489188   3488298   3487347  
  4560.000000   3486342   3485288   3484187   3483039   3481843  
  4550.000000   3480604   3479330   3478029   3476714   3475387  
  4540.000000   3474058   3472728   3471415   3470128   3468903  
  4530.000000   3467754   3466722   3465812   3465061   3464461  
  4520.000000   3464056   3463843   3463880   3464168   3464773  
  4510.000000   3465687   3466975   3468618   3470687   3473170  
  4500.000000   3476153   3479628   3483682   3488293   3493534  
  4490.000000   3499365   3505853   3512957   3520748   3529193  
  4480.000000   3538356   3548189   3558726   3569891   3581686  
  4470.000000   3594018   3606869   3620144   3633822   3647815  
  4460.000000   3662101   3676600   3691284   3706083   3720960  
  4450.000000   3735851   3750713   3765496   3780159   3794678  
  4440.000000   3809020   3823184   3837142   3850911   3864456  
  4430.000000   3877805   3890912   3903809   3916428   3928787  
  4420.000000   3940782   3952407   3963524   3974114   3984030  
  4410.000000   3993256   4001654   4009220   4015834   4021508  
  4400.000000   4026152   4029815   4032463   4034196   4035041  
  4390.000000   4035137   4034549   4033422   4031833   4029916  
  4380.000000   4027753   4025469   4023161   4020953   4018960  
  4370.000000   4017299   4016084   4015403   4015342   4015934  
  4360.000000   4017215   4019156   4021739   4024889   4028550  
  4350.000000   4032634   4037086   4041845   4046890   4052205  
  4340.000000   4057794   4063637   4069693   4075853   4081950  
  4330.000000   4087749   4092988   4097411   4100827   4103159  
  4320.000000   4104460   4104930   4104846   4104553   4104333  
  4310.000000   4104429   4104929   4105864   4107128   4108626  
  4300.000000   4110204   4111775   4113239   4114564   4115700  
  4290.000000   4116636   4117346   4117827   4118075   4118111  
  4280.000000   4117953   4117646   4117217   4116722   4116187  
  4270.000000   4115674   4115203   4114816   4114487   4114184  
  4260.000000   4113794   4113196   4112232   4110784   4108769  
  4250.000000   4106196   4103141   4099753   4096207   4092685  
  4240.000000   4089327   4086237   4083446   4080953   4078706  
  4230.000000   4076646   4074698   4072792   4070867   4068874  
  4220.000000   4066788   4064599   4062333   4060016   4057710  
  4210.000000   4055455   4053314   4051317   4049507   4047899  
  4200.000000   4046517   4045352   4044407   4043636   4043011  
  4190.000000   4042459   4041952   4041430   4040915   4040401  
  4180.000000   4039972   4039661   4039574   4039743   4040265  
  4170.000000   4041164   4042540   4044419   4046906   4050014  
  4160.000000   4053815   4058266   4063383   4069069   4075313  
  4150.000000   4082016   4089191   4096769   4104798   4113229  
  4140.000000   4122124   4131443   4141249   4151503   4162264  
  4130.000000   4173487   4185209   4197372   4209991   4223008  
  4120.000000   4236444   4250259   4264491   4279114   4294161  
  4110.000000   4309591   4325408   4341549   4357995   4374680  
  4100.000000   4391589   4408673   4425935   4443353   4460942  
  4090.000000   4478697   4496628   4514727   4532985   4551387  
  4080.000000   4569914   4588564   4607318   4626189   4645146  
  4070.000000   4664179   4683209   4702191   4721008   4739616  
  4060.000000   4757913   4775897   4793495   4810734   4827537  
  4050.000000   4843935   4859836   4875276   4890160   4904535  
  4040.000000   4918288   4931445   4943859   4955547   4966362  
  4030.000000   4976352   4985403   4993582   5000777   5007018  
  4020.000000   5012144   5016182   5019058   5020866   5021570  
  4010.000000   5021380   5020427   5018819   5016379   5013229  
  4000.000000   5009717  
##END= 
