##TITLE= Sample 019 By ssteindl date Dienstag, November 20 2018
##JCAMP-DX= 4.24
##DATA TYPE= INFRARED SPECTRUM
##ORIGIN= Exported PE Spectrum Data File
##OWNER= Sandra Steindl
##DATE= 18/11/20
##TIME= 17:12:53.00
##SPECTROMETER/DATA SYSTEM= PERKIN-ELMER Frontier FT-IR/NIR IR
##INSTRUMENT PARAMETERS=
  APODIZATION=stark
  DETECTOR=INGAAS
##RESOLUTION= 16.000000
##DELTAX= -2.000000
##XUNITS= 1/CM
##YUNITS= A
##XFACTOR= 1.00
##YFACTOR= 0.00000011920928955078
##FIRSTX= 10000.00
##LASTX= 4000.00
##NPOINTS= 3001
##FIRSTY= 0.245402
##MAXY= 0.629440
##MINY= 0.202868
##XYDATA= (X++(Y..Y))
 10000.000000   2058583   2056186   2054807   2055509   2057826  
  9990.000000   2060165   2061280   2060692   2058499   2055205  
  9980.000000   2051717   2048940   2047284   2046666   2046732  
  9970.000000   2047204   2048017   2049422   2051750   2055144  
  9960.000000   2059261   2063302   2066147   2066813   2064787  
  9950.000000   2060260   2054084   2047435   2041454   2036841  
  9940.000000   2033695   2031577   2029695   2027267   2023740  
  9930.000000   2019021   2013459   2007781   2002856   1999449  
  9920.000000   1998003   1998430   2000208   2002392   2004045  
  9910.000000   2004386   2003144   2000548   1997262   1994149  
  9900.000000   1992015   1991411   1992621   1995642   2000356  
  9890.000000   2006466   2013519   2020772   2027189   2031607  
  9880.000000   2033047   2031153   2026460   2020421   2014996  
  9870.000000   2012044   2012612   2016586   2022692   2028991  
  9860.000000   2033559   2035132   2033457   2029219   2023617  
  9850.000000   2017835   2012597   2008092   2004155   2000645  
  9840.000000   1997742   1995995   1996073   1998409   2002801  
  9830.000000   2008421   2013944   2018051   2019842   2019093  
  9820.000000   2016337   2012506   2008664   2005548   2003440  
  9810.000000   2002169   2001295   2000391   1999205   1997786  
  9800.000000   1996405   1995471   1995318   1996119   1997717  
  9790.000000   1999655   2001238   2001717   2000585   1997734  
  9780.000000   1993622   1989114   1985249   1982872   1982317  
  9770.000000   1983307   1985054   1986593   1987196   1986635  
  9760.000000   1985294   1983895   1983172   1983463   1984561  
  9750.000000   1985806   1986397   1985816   1984050   1981705  
  9740.000000   1979710   1979057   1980344   1983645   1988428  
  9730.000000   1993770   1998581   2001836   2002759   2000871  
  9720.000000   1996088   1988710   1979483   1969511   1960129  
  9710.000000   1952585   1947755   1945861   1946443   1948526  
  9700.000000   1950961   1952831   1953670   1953595   1953088  
  9690.000000   1952808   1953277   1954755   1957238   1960505  
  9680.000000   1964306   1968322   1972272   1975734   1978231  
  9670.000000   1979187   1978139   1974880   1969614   1962990  
  9660.000000   1955982   1949696   1945080   1942785   1942980  
  9650.000000   1945459   1949607   1954650   1959685   1963910  
  9640.000000   1966704   1967767   1967167   1965278   1962679  
  9630.000000   1959923   1957421   1955283   1953407   1951544  
  9620.000000   1949491   1947218   1944845   1942637   1940760  
  9610.000000   1939287   1938078   1936959   1935811   1934685  
  9600.000000   1933832   1933500   1933838   1934626   1935358  
  9590.000000   1935299   1933829   1930690   1926163   1921041  
  9580.000000   1916386   1913256   1912367   1913987   1917851  
  9570.000000   1923329   1929524   1935477   1940258   1943087  
  9560.000000   1943464   1941236   1936750   1930741   1924284  
  9550.000000   1918412   1913897   1910964   1909298   1908252  
  9540.000000   1907118   1905549   1903627   1901953   1901277  
  9530.000000   1902243   1905024   1909220   1913979   1918227  
  9520.000000   1921070   1921947   1920805   1917950   1913962  
  9510.000000   1909489   1905172   1901571   1899120   1898084  
  9500.000000   1898457   1899960   1902010   1903913   1904980  
  9490.000000   1904822   1903411   1901137   1898620   1896473  
  9480.000000   1895080   1894435   1894214   1893901   1893032  
  9470.000000   1891356   1888898   1885919   1882765   1879785  
  9460.000000   1877235   1875271   1873972   1873309   1873189  
  9450.000000   1873378   1873565   1873368   1872467   1870717  
  9440.000000   1868254   1865515   1863147   1861802   1861935  
  9430.000000   1863628   1866581   1870194   1873752   1876596  
  9420.000000   1878283   1878648   1877832   1876183   1874190  
  9410.000000   1872320   1870942   1870241   1870177   1870529  
  9400.000000   1870932   1871052   1870684   1869912   1869054  
  9390.000000   1868584   1868869   1870003   1871687   1873309  
  9380.000000   1874145   1873614   1871534   1868204   1864337  
  9370.000000   1860788   1858222   1856902   1856616   1856845  
  9360.000000   1856991   1856654   1855757   1854567   1853498  
  9350.000000   1852917   1852926   1853329   1853744   1853768  
  9340.000000   1853205   1852088   1850671   1849238   1847956  
  9330.000000   1846812   1845625   1844233   1842620   1840996  
  9320.000000   1839785   1839434   1840250   1842124   1844515  
  9310.000000   1846550   1847346   1846323   1843423   1839169  
  9300.000000   1834530   1830688   1828694   1829175   1832148  
  9290.000000   1837044   1842895   1848582   1853076   1855609  
  9280.000000   1855799   1853729   1849923   1845241   1840673  
  9270.000000   1837139   1835280   1835342   1837089   1839898  
  9260.000000   1842888   1845258   1846433   1846251   1844859  
  9250.000000   1842650   1840080   1837508   1835137   1832953  
  9240.000000   1830890   1828858   1826864   1824955   1823185  
  9230.000000   1821597   1820194   1819028   1818194   1817877  
  9220.000000   1818295   1819619   1821850   1824717   1827711  
  9210.000000   1830201   1831672   1831854   1830838   1829011  
  9200.000000   1826947   1825170   1823995   1823458   1823371  
  9190.000000   1823448   1823404   1823083   1822437   1821556  
  9180.000000   1820530   1819474   1818453   1817565   1816909  
  9170.000000   1816572   1816567   1816773   1816963   1816801  
  9160.000000   1815956   1814201   1811520   1808122   1804390  
  9150.000000   1800761   1797642   1795301   1793872   1793334  
  9140.000000   1793558   1794330   1795371   1796372   1797034  
  9130.000000   1797184   1796849   1796273   1795870   1796079  
  9120.000000   1797237   1799368   1802149   1804963   1807127  
  9110.000000   1808102   1807658   1805967   1803518   1800952  
  9100.000000   1798824   1797499   1797081   1797466   1798367  
  9090.000000   1799438   1800297   1800611   1800086   1798585  
  9080.000000   1796167   1793136   1789987   1787261   1785405  
  9070.000000   1784528   1784382   1784383   1783888   1782398  
  9060.000000   1779794   1776404   1772898   1770057   1768471  
  9050.000000   1768407   1769786   1772262   1775397   1778779  
  9040.000000   1782133   1785218   1787779   1789509   1790145  
  9030.000000   1789550   1787858   1785503   1783184   1781623  
  9020.000000   1781311   1782346   1784373   1786760   1788765  
  9010.000000   1789871   1789903   1789082   1787849   1786679  
  9000.000000   1785897   1785565   1785493   1785339   1784759  
  8990.000000   1783544   1781678   1779366   1776962   1774921  
  8980.000000   1773655   1773453   1774339   1776056   1778078  
  8970.000000   1779733   1780391   1779658   1777532   1774421  
  8960.000000   1771024   1768092   1766170   1765428   1765637  
  8950.000000   1766270   1766740   1766607   1765753   1764348  
  8940.000000   1762744   1761286   1760184   1759453   1758962  
  8930.000000   1758542   1758124   1757769   1757683   1758093  
  8920.000000   1759174   1760937   1763208   1765669   1767933  
  8910.000000   1769642   1770561   1770609   1769911   1768746  
  8900.000000   1767514   1766609   1766321   1766742   1767737  
  8890.000000   1768980   1770052   1770599   1770454   1769712  
  8880.000000   1768656   1767675   1767072   1766996   1767391  
  8870.000000   1768067   1768805   1769457   1769999   1770493  
  8860.000000   1771007   1771520   1771894   1771911   1771387  
  8850.000000   1770253   1768637   1766823   1765182   1764027  
  8840.000000   1763513   1763610   1764135   1764876   1765656  
  8830.000000   1766413   1767177   1768024   1769012   1770115  
  8820.000000   1771236   1772212   1772891   1773143   1772924  
  8810.000000   1772251   1771229   1770020   1768849   1767959  
  8800.000000   1767586   1767883   1768884   1770446   1772285  
  8790.000000   1774034   1775358   1776066   1776167   1775890  
  8780.000000   1775595   1775688   1776469   1778068   1780393  
  8770.000000   1783181   1786061   1788656   1790649   1791829  
  8760.000000   1792111   1791525   1790208   1788348   1786170  
  8750.000000   1783873   1781635   1779585   1777807   1776366  
  8740.000000   1775305   1774698   1774606   1775095   1776167  
  8730.000000   1777765   1779753   1781929   1784078   1785976  
  8720.000000   1787474   1788469   1788970   1789028   1788788  
  8710.000000   1788415   1788105   1788026   1788296   1788951  
  8700.000000   1789935   1791138   1792437   1793756   1795087  
  8690.000000   1796489   1798030   1799729   1801507   1803184  
  8680.000000   1804547   1805421   1805781   1805766   1805665  
  8670.000000   1805802   1806412   1807558   1809099   1810775  
  8660.000000   1812312   1813542   1814465   1815222   1816021  
  8650.000000   1817017   1818243   1819583   1820826   1821773  
  8640.000000   1822327   1822548   1822637   1822874   1823523  
  8630.000000   1824760   1826608   1828955   1831569   1834155  
  8620.000000   1836404   1838056   1838966   1839134   1838728  
  8610.000000   1838044   1837438   1837217   1837543   1838376  
  8600.000000   1839493   1840573   1841330   1841641   1841594  
  8590.000000   1841471   1841618   1842325   1843683   1845573  
  8580.000000   1847708   1849751   1851464   1852765   1853764  
  8570.000000   1854643   1855574   1856605   1857644   1858506  
  8560.000000   1859003   1859058   1858766   1858390   1858278  
  8550.000000   1858757   1860008   1862017   1864545   1867228  
  8540.000000   1869654   1871481   1872519   1872765   1872402  
  8530.000000   1871720   1871026   1870565   1870458   1870696  
  8520.000000   1871164   1871718   1872239   1872700   1873138  
  8510.000000   1873644   1874281   1875058   1875894   1876648  
  8500.000000   1877177   1877380   1877257   1876881   1876396  
  8490.000000   1875938   1875619   1875488   1875564   1875851  
  8480.000000   1876365   1877129   1878151   1879399   1880784  
  8470.000000   1882192   1883524   1884748   1885921   1887168  
  8460.000000   1888628   1890358   1892298   1894248   1895949  
  8450.000000   1897156   1897747   1897757   1897375   1896864  
  8440.000000   1896462   1896322   1896481   1896899   1897499  
  8430.000000   1898235   1899090   1900081   1901183   1902347  
  8420.000000   1903465   1904450   1905257   1905940   1906630  
  8410.000000   1907462   1908501   1909663   1910730   1911403  
  8400.000000   1911414   1910652   1909222   1907446   1905757  
  8390.000000   1904579   1904190   1904667   1905861   1907476  
  8380.000000   1909148   1910551   1911451   1911742   1911444  
  8370.000000   1910687   1909699   1908739   1908064   1907834  
  8360.000000   1908097   1908726   1909468   1910012   1910113  
  8350.000000   1909696   1908878   1907968   1907330   1907290  
  8340.000000   1907981   1909319   1911022   1912719   1914081  
  8330.000000   1914890   1915083   1914704   1913855   1912627  
  8320.000000   1911086   1909290   1907346   1905435   1903804  
  8310.000000   1902706   1902290   1902568   1903364   1904407  
  8300.000000   1905382   1906075   1906416   1906483   1906433  
  8290.000000   1906396   1906416   1906410   1906234   1905725  
  8280.000000   1904817   1903551   1902089   1900640   1899394  
  8270.000000   1898461   1897851   1897515   1897374   1897370  
  8260.000000   1897466   1897660   1897930   1898252   1898572  
  8250.000000   1898855   1899091   1899319   1899598   1899958  
  8240.000000   1900361   1900676   1900704   1900233   1899116  
  8230.000000   1897341   1895047   1892503   1890012   1887842  
  8220.000000   1886122   1884860   1883933   1883186   1882469  
  8210.000000   1881709   1880903   1880095   1879321   1878577  
  8200.000000   1877797   1876881   1875732   1874295   1872597  
  8190.000000   1870737   1868879   1867193   1865817   1864805  
  8180.000000   1864111   1863599   1863076   1862341   1861245  
  8170.000000   1859731   1857868   1855836   1853887   1852268  
  8160.000000   1851142   1850543   1850354   1850365   1850328  
  8150.000000   1850053   1849465   1848627   1847698   1846856  
  8140.000000   1846212   1845751   1845345   1844783   1843882  
  8130.000000   1842535   1840776   1838752   1836679   1834765  
  8120.000000   1833145   1831860   1830859   1830053   1829350  
  8110.000000   1828711   1828132   1827654   1827310   1827119  
  8100.000000   1827062   1827093   1827148   1827147   1827005  
  8090.000000   1826618   1825883   1824703   1823032   1820899  
  8080.000000   1818432   1815846   1813390   1811290   1809672  
  8070.000000   1808544   1807788   1807226   1806677   1806025  
  8060.000000   1805249   1804402   1803577   1802837   1802192  
  8050.000000   1801590   1800959   1800249   1799484   1798750  
  8040.000000   1798182   1797889   1797907   1798170   1798510  
  8030.000000   1798718   1798598   1798043   1797055   1795745  
  8020.000000   1794292   1792880   1791656   1790685   1789955  
  8010.000000   1789380   1788845   1788231   1787452   1786479  
  8000.000000   1785342   1784137   1782988   1782040   1781406  
  7990.000000   1781146   1781241   1781590   1782031   1782368  
  7980.000000   1782415   1782037   1781177   1779869   1778230  
  7970.000000   1776431   1774668   1773116   1771894   1771042  
  7960.000000   1770508   1770173   1769877   1769479   1768893  
  7950.000000   1768117   1767230   1766353   1765602   1765026  
  7940.000000   1764604   1764229   1763781   1763159   1762352  
  7930.000000   1761437   1760567   1759914   1759601   1759666  
  7920.000000   1760043   1760591   1761146   1761569   1761785  
  7910.000000   1761787   1761621   1761350   1761037   1760714  
  7900.000000   1760396   1760078   1759752   1759406   1759026  
  7890.000000   1758594   1758094   1757528   1756923   1756345  
  7880.000000   1755879   1755618   1755621   1755888   1756351  
  7870.000000   1756883   1757341   1757600   1757597   1757339  
  7860.000000   1756901   1756387   1755900   1755514   1755259  
  7850.000000   1755131   1755104   1755150   1755240   1755355  
  7840.000000   1755467   1755544   1755535   1755394   1755076  
  7830.000000   1754571   1753893   1753096   1752252   1751439  
  7820.000000   1750715   1750107   1749594   1749117   1748586  
  7810.000000   1747905   1747002   1745848   1744475   1742981  
  7800.000000   1741508   1740222   1739273   1738762   1738718  
  7790.000000   1739088   1739744   1740503   1741163   1741547  
  7780.000000   1741535   1741093   1740282   1739239   1738144  
  7770.000000   1737165   1736417   1735929   1735641   1735433  
  7760.000000   1735162   1734719   1734051   1733184   1732191  
  7750.000000   1731173   1730211   1729357   1728622   1727993  
  7740.000000   1727454   1726998   1726623   1726332   1726102  
  7730.000000   1725901   1725674   1725382   1725008   1724571  
  7720.000000   1724115   1723683   1723294   1722914   1722469  
  7710.000000   1721857   1721000   1719857   1718460   1716888  
  7700.000000   1715261   1713693   1712274   1711059   1710064  
  7690.000000   1709295   1708747   1708427   1708343   1708499  
  7680.000000   1708873   1709413   1710032   1710614   1711043  
  7670.000000   1711207   1711043   1710531   1709728   1708732  
  7660.000000   1707684   1706715   1705922   1705342   1704946  
  7650.000000   1704666   1704423   1704178   1703936   1703754  
  7640.000000   1703705   1703841   1704156   1704576   1704982  
  7630.000000   1705242   1705269   1705037   1704600   1704047  
  7620.000000   1703483   1702978   1702566   1702244   1702001  
  7610.000000   1701838   1701776   1701850   1702087   1702484  
  7600.000000   1703001   1703567   1704102   1704535   1704826  
  7590.000000   1704962   1704964   1704872   1704744   1704647  
  7580.000000   1704656   1704835   1705223   1705812   1706540  
  7570.000000   1707290   1707933   1708355   1708516   1708454  
  7560.000000   1708280   1708131   1708128   1708331   1708739  
  7550.000000   1709303   1709969   1710702   1711508   1712406  
  7540.000000   1713402   1714455   1715476   1716345   1716966  
  7530.000000   1717303   1717421   1717459   1717595   1717982  
  7520.000000   1718701   1719743   1721022   1722411   1723791  
  7510.000000   1725077   1726236   1727262   1728176   1728985  
  7500.000000   1729709   1730356   1730956   1731547   1732184  
  7490.000000   1732917   1733799   1734864   1736140   1737643  
  7480.000000   1739375   1741317   1743425   1745619   1747802  
  7470.000000   1749863   1751726   1753343   1754738   1755960  
  7460.000000   1757094   1758212   1759377   1760627   1761999  
  7450.000000   1763524   1765239   1767175   1769338   1771696  
  7440.000000   1774175   1776676   1779110   1781424   1783613  
  7430.000000   1785713   1787777   1789841   1791906   1793935  
  7420.000000   1795876   1797686   1799360   1800928   1802445  
  7410.000000   1803966   1805521   1807111   1808717   1810320  
  7400.000000   1811920   1813538   1815211   1816968   1818819  
  7390.000000   1820752   1822742   1824768   1826831   1828951  
  7380.000000   1831156   1833452   1835817   1838186   1840479  
  7370.000000   1842622   1844583   1846376   1848066   1849744  
  7360.000000   1851498   1853393   1855450   1857659   1859980  
  7350.000000   1862358   1864730   1867029   1869195   1871176  
  7340.000000   1872944   1874498   1875869   1877111   1878291  
  7330.000000   1879477   1880726   1882091   1883600   1885280  
  7320.000000   1887124   1889116   1891199   1893303   1895332  
  7310.000000   1897212   1898899   1900399   1901764   1903057  
  7300.000000   1904325   1905566   1906724   1907715   1908467  
  7290.000000   1908959   1909239   1909423   1909650   1910044  
  7280.000000   1910664   1911508   1912515   1913604   1914705  
  7270.000000   1915778   1916817   1917838   1918856   1919872  
  7260.000000   1920885   1921886   1922891   1923921   1925018  
  7250.000000   1926201   1927478   1928810   1930152   1931450  
  7240.000000   1932687   1933880   1935099   1936423   1937940  
  7230.000000   1939690   1941684   1943873   1946193   1948552  
  7220.000000   1950882   1953118   1955246   1957280   1959287  
  7210.000000   1961356   1963600   1966105   1968927   1972045  
  7200.000000   1975392   1978848   1982309   1985687   1988967  
  7190.000000   1992168   1995357   1998583   2001893   2005279  
  7180.000000   2008730   2012215   2015737   2019304   2022959  
  7170.000000   2026721   2030612   2034609   2038692   2042825  
  7160.000000   2047011   2051254   2055600   2060071   2064698  
  7150.000000   2069474   2074398   2079448   2084631   2089943  
  7140.000000   2095405   2101001   2106718   2112496   2118300  
  7130.000000   2124078   2129832   2135569   2141341   2147178  
  7120.000000   2153126   2159193   2165402   2171758   2178294  
  7110.000000   2185023   2191962   2199076   2206312   2213569  
  7100.000000   2220770   2227848   2234814   2241711   2248635  
  7090.000000   2255665   2262866   2270246   2277797   2285483  
  7080.000000   2293287   2301188   2309175   2317215   2325263  
  7070.000000   2333250   2341130   2348888   2356572   2364264  
  7060.000000   2372061   2380015   2388117   2396281   2404388  
  7050.000000   2412323   2420027   2427512   2434850   2442133  
  7040.000000   2449426   2456754   2464090   2471406   2478685  
  7030.000000   2485963   2493289   2500722   2508265   2515872  
  7020.000000   2523429   2530819   2537944   2544776   2551345  
  7010.000000   2557728   2563994   2570188   2576304   2582323  
  7000.000000   2588215   2594002   2599715   2605429   2611183  
  6990.000000   2617005   2622850   2628666   2634372   2639922  
  6980.000000   2645281   2650448   2655415   2660179   2664712  
  6970.000000   2669008   2673061   2676920   2680644   2684320  
  6960.000000   2688003   2691736   2695502   2699278   2703009  
  6950.000000   2706669   2710219   2713652   2716940   2720074  
  6940.000000   2723030   2725821   2728461   2731004   2733488  
  6930.000000   2735943   2738346   2740650   2742777   2744678  
  6920.000000   2746334   2747795   2749139   2750465   2751836  
  6910.000000   2753279   2754769   2756275   2757764   2759244  
  6900.000000   2760739   2762292   2763920   2765612   2767319  
  6890.000000   2768985   2770561   2772036   2773421   2774750  
  6880.000000   2776045   2777312   2778532   2779686   2780764  
  6870.000000   2781784   2782778   2783784   2784817   2785863  
  6860.000000   2786879   2787821   2788658   2789401   2790089  
  6850.000000   2790785   2791539   2792385   2793314   2794308  
  6840.000000   2795329   2796350   2797342   2798279   2799122  
  6830.000000   2799833   2800372   2800724   2800903   2800959  
  6820.000000   2800954   2800947   2800962   2800993   2801004  
  6810.000000   2800966   2800860   2800706   2800539   2800403  
  6800.000000   2800316   2800275   2800255   2800240   2800224  
  6790.000000   2800236   2800311   2800476   2800717   2800984  
  6780.000000   2801193   2801263   2801144   2800834   2800375  
  6770.000000   2799831   2799254   2798672   2798080   2797463  
  6760.000000   2796807   2796125   2795440   2794786   2794173  
  6750.000000   2793593   2793013   2792398   2791725   2791004  
  6740.000000   2790256   2789516   2788803   2788118   2787448  
  6730.000000   2786784   2786131   2785511   2784949   2784449  
  6720.000000   2783976   2783461   2782814   2781976   2780941  
  6710.000000   2779775   2778588   2777503   2776598   2775885  
  6700.000000   2775297   2774725   2774051   2773200   2772146  
  6690.000000   2770920   2769574   2768170   2766749   2765344  
  6680.000000   2763971   2762649   2761391   2760204   2759069  
  6670.000000   2757946   2756772   2755491   2754067   2752509  
  6660.000000   2750858   2749180   2747535   2745959   2744453  
  6650.000000   2742995   2741546   2740082   2738579   2737038  
  6640.000000   2735451   2733818   2732130   2730391   2728605  
  6630.000000   2726797   2724991   2723207   2721444   2719683  
  6620.000000   2717889   2716032   2714091   2712072   2709991  
  6610.000000   2707871   2705728   2703573   2701416   2699284  
  6600.000000   2697219   2695277   2693502   2691906   2690447  
  6590.000000   2689038   2687570   2685949   2684137   2682161  
  6580.000000   2680102   2678068   2676150   2674398   2672808  
  6570.000000   2671338   2669930   2668531   2667102   2665613  
  6560.000000   2664040   2662357   2660545   2658599   2656552  
  6550.000000   2654466   2652427   2650514   2648779   2647226  
  6540.000000   2645823   2644511   2643243   2641991   2640758  
  6530.000000   2639558   2638406   2637296   2636210   2635117  
  6520.000000   2634004   2632871   2631740   2630636   2629580  
  6510.000000   2628570   2627592   2626630   2625679   2624753  
  6500.000000   2623873   2623056   2622289   2621526   2620700  
  6490.000000   2619743   2618618   2617340   2615970   2614599  
  6480.000000   2613309   2612154   2611144   2610249   2609422  
  6470.000000   2608622   2607817   2606997   2606154   2605277  
  6460.000000   2604350   2603358   2602298   2601183   2600050  
  6450.000000   2598937   2597878   2596881   2595932   2595006  
  6440.000000   2594076   2593132   2592182   2591246   2590340  
  6430.000000   2589469   2588623   2587783   2586938   2586089  
  6420.000000   2585261   2584481   2583777   2583155   2582604  
  6410.000000   2582094   2581592   2581075   2580537   2579982  
  6400.000000   2579423   2578872   2578335   2577816   2577320  
  6390.000000   2576847   2576402   2575975   2575545   2575081  
  6380.000000   2574546   2573920   2573204   2572435   2571668  
  6370.000000   2570968   2570380   2569920   2569566   2569271  
  6360.000000   2568975   2568627   2568192   2567657   2567022  
  6350.000000   2566302   2565516   2564695   2563871   2563088  
  6340.000000   2562377   2561761   2561231   2560760   2560299  
  6330.000000   2559804   2559235   2558579   2557836   2557019  
  6320.000000   2556134   2555180   2554146   2553026   2551817  
  6310.000000   2550539   2549222   2547904   2546611   2545359  
  6300.000000   2544140   2542945   2541749   2540543   2539303  
  6290.000000   2538017   2536659   2535214   2533664   2532012  
  6280.000000   2530275   2528493   2526697   2524917   2523149  
  6270.000000   2521375   2519556   2517671   2515704   2513676  
  6260.000000   2511608   2509530   2507443   2505332   2503161  
  6250.000000   2500903   2498547   2496120   2493669   2491250  
  6240.000000   2488900   2486631   2484422   2482234   2480029  
  6230.000000   2477786   2475499   2473180   2470842   2468491  
  6220.000000   2466125   2463743   2461348   2458958   2456599  
  6210.000000   2454297   2452068   2449904   2447780   2445662  
  6200.000000   2443524   2441361   2439185   2437024   2434906  
  6190.000000   2432846   2430843   2428878   2426933   2424989  
  6180.000000   2423039   2421083   2419125   2417166   2415208  
  6170.000000   2413251   2411298   2409360   2407449   2405577  
  6160.000000   2403747   2401952   2400175   2398395   2396599  
  6150.000000   2394776   2392928   2391060   2389181   2387297  
  6140.000000   2385421   2383570   2381773   2380060   2378456  
  6130.000000   2376965   2375572   2374233   2372897   2371516  
  6120.000000   2370066   2368550   2367007   2365481   2364026  
  6110.000000   2362672   2361440   2360320   2359301   2358357  
  6100.000000   2357468   2356604   2355743   2354854   2353921  
  6090.000000   2352936   2351915   2350889   2349909   2349015  
  6080.000000   2348247   2347611   2347103   2346692   2346357  
  6070.000000   2346065   2345807   2345566   2345345   2345132  
  6060.000000   2344932   2344744   2344586   2344473   2344441  
  6050.000000   2344510   2344706   2345026   2345468   2346006  
  6040.000000   2346623   2347292   2348005   2348747   2349524  
  6030.000000   2350333   2351193   2352111   2353112   2354203  
  6020.000000   2355393   2356667   2358004   2359369   2360737  
  6010.000000   2362084   2363412   2364727   2366052   2367398  
  6000.000000   2368776   2370175   2371590   2373014   2374455  
  5990.000000   2375927   2377453   2379044   2380708   2382428  
  5980.000000   2384188   2385963   2387749   2389543   2391364  
  5970.000000   2393223   2395137   2397105   2399135   2401223  
  5960.000000   2403387   2405638   2407997   2410462   2413025  
  5950.000000   2415649   2418300   2420941   2423563   2426173  
  5940.000000   2428807   2431501   2434287   2437174   2440151  
  5930.000000   2443187   2446247   2449297   2452315   2455281  
  5920.000000   2458183   2461006   2463739   2466374   2468916  
  5910.000000   2471375   2473776   2476137   2478476   2480796  
  5900.000000   2483099   2485387   2487668   2489970   2492321  
  5890.000000   2494757   2497299   2499956   2502712   2505544  
  5880.000000   2508414   2511281   2514105   2516840   2519443  
  5870.000000   2521874   2524115   2526170   2528080   2529910  
  5860.000000   2531743   2533652   2535686   2537857   2540145  
  5850.000000   2542514   2544924   2547351   2549788   2552243  
  5840.000000   2554726   2557241   2559785   2562342   2564904  
  5830.000000   2567462   2570015   2572566   2575113   2577648  
  5820.000000   2580157   2582627   2585046   2587418   2589743  
  5810.000000   2592033   2594277   2596469   2598577   2600593  
  5800.000000   2602494   2604303   2606025   2607701   2609327  
  5790.000000   2610917   2612422   2613812   2615010   2615963  
  5780.000000   2616593   2616851   2616677   2616048   2614954  
  5770.000000   2613439   2611572   2609470   2607248   2605026  
  5760.000000   2602880   2600865   2598989   2597259   2595668  
  5750.000000   2594230   2592956   2591862   2590944   2590182  
  5740.000000   2589539   2588971   2588454   2587966   2587522  
  5730.000000   2587122   2586779   2586479   2586213   2585953  
  5720.000000   2585698   2585448   2585234   2585078   2585006  
  5710.000000   2585023   2585129   2585311   2585565   2585890  
  5700.000000   2586293   2586772   2587315   2587888   2588447  
  5690.000000   2588954   2589384   2589750   2590078   2590413  
  5680.000000   2590780   2591189   2591605   2591985   2592265  
  5670.000000   2592398   2592346   2592098   2591647   2591004  
  5660.000000   2590174   2589182   2588051   2586831   2585567  
  5650.000000   2584310   2583087   2581914   2580776   2579657  
  5640.000000   2578536   2577411   2576284   2575172   2574084  
  5630.000000   2573024   2571990   2570977   2569986   2569031  
  5620.000000   2568132   2567306   2566560   2565879   2565230  
  5610.000000   2564575   2563882   2563133   2562334   2561504  
  5600.000000   2560669   2559848   2559051   2558278   2557525  
  5590.000000   2556785   2556050   2555312   2554555   2553763  
  5580.000000   2552915   2552003   2551029   2550011   2548972  
  5570.000000   2547932   2546894   2545850   2544776   2543655  
  5560.000000   2542478   2541258   2540015   2538777   2537560  
  5550.000000   2536368   2535188   2534009   2532826   2531651  
  5540.000000   2530503   2529404   2528363   2527370   2526400  
  5530.000000   2525426   2524427   2523399   2522354   2521306  
  5520.000000   2520264   2519222   2518161   2517059   2515898  
  5510.000000   2514680   2513422   2512151   2510889   2509654  
  5500.000000   2508449   2507276   2506130   2505013   2503917  
  5490.000000   2502832   2501724   2500555   2499280   2497873  
  5480.000000   2496328   2494677   2492965   2491246   2489549  
  5470.000000   2487883   2486221   2484533   2482788   2480980  
  5460.000000   2479116   2477217   2475295   2473353   2471378  
  5450.000000   2469357   2467283   2465169   2463041   2460930  
  5440.000000   2458857   2456825   2454829   2452856   2450911  
  5430.000000   2449005   2447169   2445415   2443748   2442139  
  5420.000000   2440564   2438989   2437425   2435900   2434483  
  5410.000000   2433228   2432182   2431328   2430637   2430043  
  5400.000000   2429512   2429014   2428574   2428214   2427981  
  5390.000000   2427882   2427931   2428099   2428393   2428800  
  5380.000000   2429359   2430081   2431002   2432104   2433381  
  5370.000000   2434780   2436290   2437874   2439567   2441367  
  5360.000000   2443339   2445484   2447860   2450456   2453330  
  5350.000000   2456476   2459965   2463788   2468010   2472595  
  5340.000000   2477591   2482954   2488751   2494960   2501667  
  5330.000000   2508842   2516541   2524690   2533313   2542326  
  5320.000000   2551795   2561692   2572151   2583184   2594934  
  5310.000000   2607371   2620584   2634482   2649121   2664417  
  5300.000000   2680456   2697206   2714803   2733249   2752678  
  5290.000000   2773064   2794474   2816794   2839993   2863894  
  5280.000000   2888447   2913527   2939181   2965408   2992332  
  5270.000000   3019976   3048368   3077377   3106832   3136485  
  5260.000000   3166133   3195648   3224995   3254229   3283388  
  5250.000000   3312499   3341444   3370087   3398160   3425521  
  5240.000000   3451989   3477609   3502376   3526465   3549899  
  5230.000000   3572798   3595065   3616691   3637481   3657400  
  5220.000000   3676300   3694255   3711240   3727438   3742882  
  5210.000000   3757748   3772000   3785704   3798706   3810998  
  5200.000000   3822420   3833023   3842747   3851731   3859965  
  5190.000000   3867577   3874508   3880821   3886420   3891367  
  5180.000000   3895608   3899251   3902275   3904782   3906714  
  5170.000000   3908117   3908901   3909107   3908686   3907733  
  5160.000000   3906248   3904346   3902019   3899342   3896276  
  5150.000000   3892870   3889087   3884986   3880542   3875807  
  5140.000000   3870747   3865394   3859718   3853763   3847535  
  5130.000000   3841110   3834517   3827824   3821038   3814188  
  5120.000000   3807255   3800257   3793185   3786071   3778921  
  5110.000000   3771764   3764597   3757430   3750252   3743073  
  5100.000000   3735897   3728746   3721628   3714551   3707499  
  5090.000000   3700455   3693390   3686299   3679180   3672057  
  5080.000000   3664949   3657877   3650834   3643804   3636750  
  5070.000000   3629645   3622468   3615222   3607924   3600601  
  5060.000000   3593274   3585958   3578647   3571334   3564004  
  5050.000000   3556654   3549285   3541908   3534531   3527163  
  5040.000000   3519804   3512455   3505115   3497790   3490497  
  5030.000000   3483250   3476075   3468984   3461990   3455086  
  5020.000000   3448275   3441541   3434890   3428312   3421825  
  5010.000000   3415431   3409158   3403007   3397011   3391169  
  5000.000000   3385515   3380045   3374795   3369758   3364970  
  4990.000000   3360421   3356151   3352146   3348445   3345027  
  4980.000000   3341927   3339110   3336604   3334372   3332449  
  4970.000000   3330810   3329506   3328523   3327917   3327665  
  4960.000000   3327807   3328302   3329180   3330398   3331996  
  4950.000000   3333944   3336294   3339017   3342155   3345660  
  4940.000000   3349554   3353775   3358342   3363201   3368382  
  4930.000000   3373850   3379644   3385737   3392168   3398904  
  4920.000000   3405974   3413339   3421014   3428954   3437164  
  4910.000000   3445603   3454277   3463157   3472256   3481553  
  4900.000000   3491055   3500734   3510573   3520532   3530576  
  4890.000000   3540665   3550763   3560840   3570866   3580820  
  4880.000000   3590668   3600394   3609955   3619334   3628482  
  4870.000000   3637384   3645990   3654294   3662256   3669890  
  4860.000000   3677174   3684139   3690774   3697115   3703150  
  4850.000000   3708911   3714389   3719624   3724617   3729421  
  4840.000000   3734045   3738538   3742899   3747160   3751305  
  4830.000000   3755350   3759276   3763097   3766796   3770385  
  4820.000000   3773849   3777198   3780425   3783549   3786576  
  4810.000000   3789533   3792427   3795275   3798064   3800787  
  4800.000000   3803421   3805957   3808387   3810728   3812996  
  4790.000000   3815227   3817440   3819661   3821891   3824133  
  4780.000000   3826371   3828599   3830795   3832950   3835041  
  4770.000000   3837057   3838972   3840778   3842454   3844001  
  4760.000000   3845403   3846672   3847796   3848787   3849633  
  4750.000000   3850350   3850924   3851371   3851678   3851856  
  4740.000000   3851886   3851774   3851503   3851084   3850509  
  4730.000000   3849797   3848948   3847978   3846884   3845677  
  4720.000000   3844351   3842922   3841399   3839811   3838183  
  4710.000000   3836547   3834923   3833331   3831774   3830258  
  4700.000000   3828780   3827347   3825962   3824638   3823386  
  4690.000000   3822213   3821123   3820110   3819164   3818260  
  4680.000000   3817377   3816478   3815541   3814535   3813451  
  4670.000000   3812283   3811050   3809771   3808489   3807232  
  4660.000000   3806036   3804921   3803908   3803006   3802231  
  4650.000000   3801592   3801105   3800779   3800623   3800630  
  4640.000000   3800791   3801081   3801479   3801957   3802497  
  4630.000000   3803074   3803675   3804277   3804864   3805415  
  4620.000000   3805912   3806340   3806688   3806946   3807106  
  4610.000000   3807164   3807112   3806960   3806714   3806404  
  4600.000000   3806054   3805701   3805357   3805036   3804716  
  4590.000000   3804373   3803964   3803463   3802839   3802096  
  4580.000000   3801233   3800272   3799223   3798102   3796907  
  4570.000000   3795644   3794308   3792908   3791445   3789938  
  4560.000000   3788386   3786805   3785188   3783541   3781855  
  4550.000000   3780132   3778365   3776553   3774686   3772753  
  4540.000000   3770745   3768656   3766497   3764288   3762072  
  4530.000000   3759884   3757780   3755780   3753923   3752201  
  4520.000000   3750635   3749203   3747933   3746809   3745885  
  4510.000000   3745158   3744706   3744538   3744752   3745362  
  4500.000000   3746474   3748092   3750312   3753115   3756578  
  4490.000000   3760663   3765439   3770862   3777000   3783806  
  4480.000000   3791338   3799535   3808437   3817974   3828177  
  4470.000000   3838975   3850392   3862352   3874858   3887819  
  4460.000000   3901213   3914938   3928962   3943194   3957606  
  4450.000000   3972126   3986731   4001365   4016008   4030625  
  4440.000000   4045200   4059724   4074181   4088580   4102891  
  4430.000000   4117121   4131215   4145174   4158917   4172442  
  4420.000000   4185651   4198538   4210990   4222992   4234411  
  4410.000000   4245217   4255264   4264511   4272816   4280163  
  4400.000000   4286456   4291739   4295998   4299355   4301875  
  4390.000000   4303732   4305030   4305945   4306575   4307059  
  4380.000000   4307465   4307892   4308387   4309033   4309885  
  4370.000000   4311023   4312514   4314423   4316801   4319669  
  4360.000000   4323041   4326895   4331202   4335915   4340975  
  4350.000000   4346326   4351889   4357624   4363467   4369415  
  4340.000000   4375440   4381548   4387673   4393709   4399420  
  4330.000000   4404490   4408514   4411107   4411960   4410962  
  4320.000000   4408222   4404104   4399119   4393881   4388924  
  4310.000000   4384683   4381362   4379029   4377567   4376826  
  4300.000000   4376608   4376770   4377188   4377785   4378500  
  4290.000000   4379271   4380066   4380839   4381595   4382342  
  4280.000000   4383123   4383978   4384942   4386045   4387281  
  4270.000000   4388653   4390121   4391649   4393134   4394452  
  4260.000000   4395403   4395779   4395354   4393975   4391570  
  4250.000000   4388209   4384064   4379418   4374564   4369807  
  4240.000000   4365351   4361343   4357801   4354700   4351936  
  4230.000000   4349414   4347016   4344651   4342242   4339732  
  4220.000000   4337103   4334347   4331514   4328653   4325867  
  4210.000000   4323226   4320828   4318709   4316911   4315414  
  4200.000000   4314208   4313243   4312497   4311918   4311502  
  4190.000000   4311206   4311044   4310981   4311049   4311225  
  4180.000000   4311561   4312049   4312759   4313697   4314947  
  4170.000000   4316526   4318528   4320970   4323937   4327424  
  4160.000000   4331485   4336077   4341223   4346851   4352978  
  4150.000000   4359531   4366535   4373925   4381735   4389908  
  4140.000000   4398494   4407456   4416867   4426713   4437075  
  4130.000000   4447931   4459335   4471228   4483625   4496449  
  4120.000000   4509711   4523360   4537439   4551933   4566899  
  4110.000000   4582323   4598233   4614576   4631329   4648401  
  4100.000000   4665743   4683270   4700953   4718752   4736681  
  4090.000000   4754747   4772977   4791383   4809964   4828707  
  4080.000000   4847575   4866549   4885581   4904659   4923727  
  4070.000000   4942761   4961669   4980408   4998867   5017018  
  4060.000000   5034773   5052148   5069072   5085575   5101572  
  4050.000000   5117085   5132020   5146429   5160241   5173541  
  4040.000000   5186253   5198439   5209966   5220847   5230915  
  4030.000000   5240185   5248514   5255947   5262380   5267862  
  4020.000000   5272278   5275699   5278098   5279585   5280124  
  4010.000000   5279890   5278977   5277441   5275071   5271970  
  4000.000000   5268498  
##END= 
