##TITLE= Sample 025 By ssteindl date Dienstag, November 20 2018
##JCAMP-DX= 4.24
##DATA TYPE= INFRARED SPECTRUM
##ORIGIN= Exported PE Spectrum Data File
##OWNER= Sandra Steindl
##DATE= 18/11/20
##TIME= 17:19:10.00
##SPECTROMETER/DATA SYSTEM= PERKIN-ELMER Frontier FT-IR/NIR IR
##INSTRUMENT PARAMETERS=
  APODIZATION=stark
  DETECTOR=INGAAS
##RESOLUTION= 16.000000
##DELTAX= -2.000000
##XUNITS= 1/CM
##YUNITS= A
##XFACTOR= 1.00
##YFACTOR= 0.00000011920928955078
##FIRSTX= 10000.00
##LASTX= 4000.00
##NPOINTS= 3001
##FIRSTY= 0.271736
##MAXY= 0.607220
##MINY= 0.198753
##XYDATA= (X++(Y..Y))
 10000.000000   2279483   2282817   2285269   2285628   2283646  
  9990.000000   2280001   2275504   2270800   2266426   2262615  
  9980.000000   2259103   2255247   2250479   2244547   2237681  
  9970.000000   2230577   2224226   2219633   2217432   2217833  
  9960.000000   2220500   2224868   2230247   2236122   2242164  
  9950.000000   2248202   2254093   2259530   2264053   2266991  
  9940.000000   2267737   2265804   2261124   2253979   2245089  
  9930.000000   2235413   2226018   2217938   2211923   2208455  
  9920.000000   2207476   2208585   2210971   2213789   2216316  
  9910.000000   2218202   2219509   2220526   2221584   2222686  
  9900.000000   2223509   2223335   2221515   2217685   2212200  
  9890.000000   2206056   2200671   2197403   2197004   2199451  
  9880.000000   2203882   2209074   2213820   2217394   2219666  
  9870.000000   2220966   2221803   2222469   2222943   2222847  
  9860.000000   2221730   2219283   2215546   2210962   2206192  
  9850.000000   2201995   2198931   2197378   2197443   2199091  
  9840.000000   2202083   2205959   2209957   2213031   2214056  
  9830.000000   2212116   2206924   2199006   2189746   2180992  
  9820.000000   2174551   2171574   2172211   2175616   2180272  
  9810.000000   2184590   2187396   2188306   2187660   2186303  
  9800.000000   2185104   2184635   2184988   2185818   2186620  
  9790.000000   2186897   2186438   2185248   2183533   2181510  
  9780.000000   2179282   2176847   2174096   2171020   2167735  
  9770.000000   2164585   2162015   2160474   2160227   2161282  
  9760.000000   2163316   2165772   2167938   2169149   2168926  
  9750.000000   2167122   2163934   2159862   2155549   2151623  
  9740.000000   2148522   2146398   2145108   2144271   2143407  
  9730.000000   2142040   2139829   2136596   2132384   2127405  
  9720.000000   2122028   2116688   2111830   2107831   2104960  
  9710.000000   2103352   2103018   2103865   2105713   2108332  
  9700.000000   2111434   2114687   2117711   2120095   2121500  
  9690.000000   2121687   2120686   2118721   2116225   2113614  
  9680.000000   2111206   2109061   2107070   2105015   2102780  
  9670.000000   2100430   2098225   2096542   2095635   2095595  
  9660.000000   2096204   2097155   2098143   2099127   2100334  
  9650.000000   2102162   2104959   2108710   2112954   2116769  
  9640.000000   2119084   2118996   2116105   2110671   2103539  
  9630.000000   2095918   2089048   2083937   2081180   2080911  
  9620.000000   2082794   2086128   2089906   2093018   2094442  
  9610.000000   2093528   2090208   2085100   2079399   2074564  
  9600.000000   2071867   2071960   2074626   2078849   2083203  
  9590.000000   2086388   2087679   2087130   2085384   2083303  
  9580.000000   2081493   2080053   2078595   2076497   2073337  
  9570.000000   2069109   2064367   2059942   2056637   2054851  
  9560.000000   2054414   2054718   2054979   2054646   2053600  
  9550.000000   2052184   2051015   2050686   2051542   2053555  
  9540.000000   2056393   2059532   2062451   2064697   2065978  
  9530.000000   2066128   2065114   2063067   2060277   2057241  
  9520.000000   2054539   2052728   2052125   2052688   2054000  
  9510.000000   2055380   2056100   2055592   2053586   2050159  
  9500.000000   2045637   2040508   2035255   2030348   2026194  
  9490.000000   2023197   2021697   2021911   2023792   2026948  
  9480.000000   2030667   2034037   2036188   2036463   2034634  
  9470.000000   2030873   2025791   2020179   2014915   2010716  
  9460.000000   2008052   2007102   2007723   2009582   2012162  
  9450.000000   2014973   2017605   2019867   2021791   2023521  
  9440.000000   2025198   2026706   2027673   2027467   2025532  
  9430.000000   2021608   2016017   2009649   2003758   1999656  
  9420.000000   1998221   1999716   2003563   2008679   2013710  
  9410.000000   2017578   2019664   2019948   2018821   2016823  
  9400.000000   2014412   2011758   2008819   2005364   2001239  
  9390.000000   1996398   1991022   1985421   1979957   1974999  
  9380.000000   1970829   1967721   1965842   1965308   1966076  
  9370.000000   1967948   1970564   1973453   1976151   1978267  
  9360.000000   1979612   1980151   1980052   1979481   1978633  
  9350.000000   1977549   1976241   1974668   1972874   1970982  
  9340.000000   1969191   1967759   1966885   1966759   1967429  
  9330.000000   1968910   1971072   1973746   1976650   1979460  
  9320.000000   1981827   1983413   1983978   1983362   1981561  
  9310.000000   1978653   1974834   1970325   1965402   1960352  
  9300.000000   1955503   1951235   1947921   1945909   1945356  
  9290.000000   1946243   1948271   1950995   1953860   1956380  
  9280.000000   1958226   1959300   1959728   1959735   1959562  
  9270.000000   1959332   1959058   1958618   1957840   1956559  
  9260.000000   1954694   1952300   1949543   1946683   1943970  
  9250.000000   1941605   1939672   1938129   1936838   1935599  
  9240.000000   1934252   1932695   1930946   1929109   1927380  
  9230.000000   1925988   1925149   1925038   1925718   1927180  
  9220.000000   1929286   1931865   1934680   1937520   1940177  
  9210.000000   1942488   1944309   1945500   1945905   1945305  
  9200.000000   1943479   1940238   1935580   1929719   1923129  
  9190.000000   1916465   1910400   1905501   1902013   1899905  
  9180.000000   1898844   1898443   1898349   1898417   1898685  
  9170.000000   1899271   1900238   1901431   1902527   1903032  
  9160.000000   1902561   1900907   1898260   1895048   1891877  
  9150.000000   1889278   1887613   1886974   1887228   1888134  
  9140.000000   1889437   1890972   1892616   1894279   1895842  
  9130.000000   1897186   1898220   1898926   1899373   1899680  
  9120.000000   1899952   1900186   1900245   1899909   1898983  
  9110.000000   1897430   1895404   1893237   1891280   1889788  
  9100.000000   1888763   1887995   1887117   1885833   1884018  
  9090.000000   1881823   1879567   1877628   1876266   1875519  
  9080.000000   1875204   1874981   1874537   1873628   1872174  
  9070.000000   1870169   1867701   1864860   1861783   1858656  
  9060.000000   1855772   1853505   1852240   1852242   1853540  
  9050.000000   1855896   1858868   1861928   1864608   1866618  
  9040.000000   1867881   1868482   1868570   1868284   1867738  
  9030.000000   1867021   1866243   1865536   1865041   1864822  
  9020.000000   1864790   1864705   1864237   1863098   1861146  
  9010.000000   1858482   1855428   1852421   1849865   1848003  
  9000.000000   1846891   1846420   1846411   1846711   1847234  
  8990.000000   1847961   1848848   1849824   1850755   1851521  
  8980.000000   1852075   1852486   1852936   1853608   1854591  
  8970.000000   1855752   1856749   1857111   1856433   1854523  
  8960.000000   1851527   1847892   1844253   1841224   1839205  
  8950.000000   1838290   1838246   1838676   1839136   1839343  
  8940.000000   1839218   1838922   1838754   1839039   1839985  
  8930.000000   1841575   1843560   1845476   1846814   1847114  
  8920.000000   1846153   1843993   1841020   1837829   1835066  
  8910.000000   1833247   1832607   1833069   1834290   1835803  
  8900.000000   1837159   1838072   1838448   1838379   1838034  
  8890.000000   1837594   1837178   1836846   1836615   1836493  
  8880.000000   1836502   1836659   1836954   1837313   1837602  
  8870.000000   1837660   1837336   1836550   1835299   1833665  
  8860.000000   1831783   1829808   1827896   1826196   1824835  
  8850.000000   1823922   1823504   1823552   1823934   1824446  
  8840.000000   1824873   1825058   1824962   1824661   1824318  
  8830.000000   1824071   1823974   1823943   1823816   1823424  
  8820.000000   1822727   1821845   1821063   1820697   1820979  
  8810.000000   1821915   1823277   1824659   1825652   1825986  
  8800.000000   1825664   1824935   1824200   1823855   1824149  
  8790.000000   1825132   1826664   1828523   1830502   1832480  
  8780.000000   1834427   1836337   1838151   1839722   1840820  
  8770.000000   1841232   1840842   1839724   1838137   1836468  
  8760.000000   1835094   1834288   1834117   1834469   1835089  
  8750.000000   1835695   1836058   1836057   1835670   1834937  
  8740.000000   1833913   1832639   1831157   1829534   1827918  
  8730.000000   1826526   1825627   1825442   1826070   1827433  
  8720.000000   1829264   1831199   1832853   1833973   1834500  
  8710.000000   1834588   1834531   1834631   1835093   1835914  
  8700.000000   1836920   1837785   1838192   1837914   1836913  
  8690.000000   1835338   1833481   1831702   1830318   1829566  
  8680.000000   1829549   1830266   1831616   1833437   1835507  
  8670.000000   1837585   1839439   1840891   1841861   1842363  
  8660.000000   1842531   1842538   1842559   1842694   1842944  
  8650.000000   1843230   1843448   1843558   1843613   1843781  
  8640.000000   1844251   1845168   1846531   1848149   1849680  
  8630.000000   1850716   1850937   1850187   1848562   1846361  
  8620.000000   1844041   1842064   1840798   1840439   1840991  
  8610.000000   1842318   1844177   1846320   1848529   1850671  
  8600.000000   1852678   1854546   1856303   1857969   1859546  
  8590.000000   1860972   1862165   1863003   1863399   1863308  
  8580.000000   1862774   1861928   1860968   1860133   1859644  
  8570.000000   1859657   1860216   1861244   1862546   1863858  
  8560.000000   1864896   1865443   1865407   1864882   1864124  
  8550.000000   1863519   1863460   1864247   1865963   1868442  
  8540.000000   1871285   1873976   1876014   1877065   1877052  
  8530.000000   1876148   1874707   1873115   1871693   1870589  
  8520.000000   1869796   1869171   1868550   1867814   1866945  
  8510.000000   1866034   1865230   1864716   1864639   1865093  
  8500.000000   1866097   1867598   1869485   1871585   1873702  
  8490.000000   1875629   1877222   1878407   1879231   1879833  
  8480.000000   1880422   1881189   1882256   1883619   1885178  
  8470.000000   1886750   1888156   1889270   1890064   1890603  
  8460.000000   1890991   1891357   1891784   1892342   1893035  
  8450.000000   1893894   1894952   1896273   1897883   1899762  
  8440.000000   1901799   1903781   1905414   1906373   1906396  
  8430.000000   1905356   1903309   1900505   1897343   1894315  
  8420.000000   1891882   1890395   1889992   1890620   1892029  
  8410.000000   1893861   1895694   1897172   1898046   1898219  
  8400.000000   1897723   1896700   1895389   1894048   1892939  
  8390.000000   1892246   1892079   1892418   1893110   1893911  
  8380.000000   1894524   1894728   1894401   1893616   1892583  
  8370.000000   1891619   1891007   1890912   1891303   1891966  
  8360.000000   1892591   1892852   1892527   1891530   1889945  
  8350.000000   1887945   1885741   1883503   1881355   1879395  
  8340.000000   1877715   1876445   1875722   1875682   1876382  
  8330.000000   1877786   1879716   1881900   1884009   1885735  
  8320.000000   1886844   1887198   1886781   1885662   1884014  
  8310.000000   1882051   1880021   1878142   1876579   1875407  
  8300.000000   1874583   1873976   1873392   1872676   1871738  
  8290.000000   1870627   1869470   1868460   1867748   1867419  
  8280.000000   1867444   1867708   1868061   1868358   1868520  
  8270.000000   1868504   1868296   1867854   1867100   1865940  
  8260.000000   1864321   1862285   1859999   1857745   1855846  
  8250.000000   1854588   1854097   1854320   1855001   1855797  
  8240.000000   1856348   1856414   1855904   1854901   1853595  
  8230.000000   1852204   1850886   1849683   1848529   1847291  
  8220.000000   1845851   1844155   1842251   1840276   1838399  
  8210.000000   1836771   1835442   1834370   1833416   1832429  
  8200.000000   1831298   1829997   1828603   1827244   1826048  
  8190.000000   1825072   1824265   1823492   1822588   1821438  
  8180.000000   1820035   1818486   1816969   1815669   1814684  
  8170.000000   1813996   1813458   1812863   1812017   1810812  
  8160.000000   1809262   1807466   1805566   1803663   1801793  
  8150.000000   1799909   1797936   1795817   1793575   1791316  
  8140.000000   1789215   1787447   1786139   1785322   1784927  
  8130.000000   1784821   1784847   1784864   1784791   1784586  
  8120.000000   1784255   1783818   1783310   1782758   1782185  
  8110.000000   1781612   1781050   1780506   1779977   1779462  
  8100.000000   1778952   1778452   1777955   1777450   1776891  
  8090.000000   1776199   1775266   1773989   1772306   1770234  
  8080.000000   1767880   1765428   1763084   1761037   1759397  
  8070.000000   1758196   1757384   1756883   1756605   1756479  
  8060.000000   1756445   1756424   1756309   1755953   1755216  
  8050.000000   1754001   1752330   1750343   1748301   1746504  
  8040.000000   1745211   1744567   1744558   1745030   1745742  
  8030.000000   1746440   1746917   1747051   1746793   1746151  
  8020.000000   1745160   1743870   1742362   1740749   1739181  
  8010.000000   1737822   1736803   1736179   1735889   1735784  
  8000.000000   1735650   1735305   1734636   1733652   1732457  
  7990.000000   1731199   1730010   1728942   1727967   1726983  
  7980.000000   1725895   1724640   1723252   1721825   1720497  
  7970.000000   1719378   1718521   1717905   1717455   1717096  
  7960.000000   1716789   1716555   1716471   1716625   1717078  
  7950.000000   1717810   1718722   1719634   1720357   1720718  
  7940.000000   1720638   1720125   1719296   1718316   1717367  
  7930.000000   1716597   1716084   1715836   1715799   1715899  
  7920.000000   1716063   1716260   1716491   1716795   1717200  
  7910.000000   1717713   1718289   1718833   1719229   1719363  
  7900.000000   1719176   1718666   1717911   1717030   1716166  
  7890.000000   1715431   1714891   1714552   1714361   1714247  
  7880.000000   1714129   1713967   1713753   1713542   1713421  
  7870.000000   1713502   1713875   1714586   1715598   1716782  
  7860.000000   1717931   1718794   1719147   1718841   1717868  
  7850.000000   1716365   1714586   1712842   1711407   1710457  
  7840.000000   1710018   1709987   1710166   1710355   1710398  
  7830.000000   1710239   1709908   1709504   1709126   1708846  
  7820.000000   1708673   1708562   1708446   1708257   1707975  
  7810.000000   1707615   1707231   1706885   1706616   1706426  
  7800.000000   1706272   1706082   1705781   1705321   1704704  
  7790.000000   1703984   1703244   1702581   1702057   1701694  
  7780.000000   1701459   1701286   1701104   1700863   1700552  
  7770.000000   1700193   1699826   1699480   1699147   1698786  
  7760.000000   1698331   1697730   1696966   1696084   1695176  
  7750.000000   1694360   1693730   1693337   1693156   1693110  
  7740.000000   1693090   1692993   1692750   1692340   1691779  
  7730.000000   1691107   1690367   1689597   1688827   1688083  
  7720.000000   1687391   1686770   1686224   1685733   1685254  
  7710.000000   1684730   1684116   1683398   1682608   1681821  
  7700.000000   1681131   1680619   1680324   1680226   1680252  
  7690.000000   1680299   1680271   1680110   1679813   1679423  
  7680.000000   1679011   1678635   1678325   1678056   1677768  
  7670.000000   1677380   1676828   1676087   1675189   1674218  
  7660.000000   1673287   1672510   1671963   1671661   1671555  
  7650.000000   1671547   1671524   1671390   1671104   1670678  
  7640.000000   1670176   1669682   1669272   1668989   1668838  
  7630.000000   1668790   1668812   1668872   1668959   1669072  
  7620.000000   1669211   1669355   1669464   1669484   1669365  
  7610.000000   1669087   1668678   1668209   1667781   1667494  
  7600.000000   1667415   1667562   1667895   1668330   1668759  
  7590.000000   1669079   1669214   1669132   1668854   1668444  
  7580.000000   1667996   1667604   1667346   1667258   1667328  
  7570.000000   1667506   1667717   1667893   1667995   1668030  
  7560.000000   1668041   1668084   1668206   1668413   1668674  
  7550.000000   1668921   1669085   1669123   1669040   1668892  
  7540.000000   1668769   1668764   1668954   1669370   1669996  
  7530.000000   1670772   1671615   1672433   1673147   1673701  
  7520.000000   1674075   1674285   1674388   1674466   1674617  
  7510.000000   1674922   1675433   1676145   1677011   1677947  
  7500.000000   1678863   1679692   1680413   1681046   1681648  
  7490.000000   1682278   1682980   1683759   1684591   1685423  
  7480.000000   1686209   1686915   1687554   1688167   1688825  
  7470.000000   1689602   1690557   1691710   1693038   1694471  
  7460.000000   1695922   1697298   1698540   1699633   1700622  
  7450.000000   1701586   1702621   1703797   1705143   1706638  
  7440.000000   1708223   1709825   1711392   1712902   1714364  
  7430.000000   1715801   1717228   1718640   1720017   1721333  
  7420.000000   1722587   1723805   1725045   1726363   1727789  
  7410.000000   1729304   1730844   1732318   1733652   1734820  
  7400.000000   1735866   1736883   1737986   1739262   1740745  
  7390.000000   1742404   1744160   1745920   1747611   1749194  
  7380.000000   1750672   1752075   1753450   1754844   1756299  
  7370.000000   1757845   1759499   1761255   1763070   1764870  
  7360.000000   1766560   1768056   1769320   1770378   1771319  
  7350.000000   1772271   1773345   1774591   1775971   1777378  
  7340.000000   1778686   1779807   1780741   1781567   1782416  
  7330.000000   1783406   1784591   1785933   1787328   1788651  
  7320.000000   1789825   1790851   1791814   1792846   1794065  
  7310.000000   1795536   1797235   1799075   1800938   1802720  
  7300.000000   1804367   1805864   1807228   1808464   1809569  
  7290.000000   1810515   1811283   1811877   1812342   1812757  
  7280.000000   1813216   1813806   1814586   1815584   1816799  
  7270.000000   1818216   1819809   1821546   1823380   1825238  
  7260.000000   1827036   1828678   1830101   1831271   1832226  
  7250.000000   1833042   1833835   1834711   1835756   1837007  
  7240.000000   1838470   1840121   1841934   1843885   1845955  
  7230.000000   1848115   1850325   1852520   1854636   1856610  
  7220.000000   1858428   1860105   1861721   1863368   1865163  
  7210.000000   1867188   1869497   1872079   1874892   1877858  
  7200.000000   1880907   1883976   1887044   1890103   1893177  
  7190.000000   1896268   1899384   1902491   1905559   1908540  
  7180.000000   1911419   1914197   1916918   1919640   1922432  
  7170.000000   1925343   1928403   1931609   1934952   1938411  
  7160.000000   1941984   1945668   1949474   1953389   1957398  
  7150.000000   1961455   1965527   1969573   1973603   1977634  
  7140.000000   1981724   1985910   1990229   1994664   1999195  
  7130.000000   2003775   2008393   2013046   2017779   2022629  
  7120.000000   2027643   2032820   2038136   2043530   2048944  
  7110.000000   2054326   2059668   2064975   2070285   2075623  
  7100.000000   2081016   2086461   2091959   2097496   2103079  
  7090.000000   2108709   2114403   2120162   2125980   2131828  
  7080.000000   2137671   2143467   2149191   2154834   2160416  
  7070.000000   2165976   2171564   2177223   2182982   2188838  
  7060.000000   2194762   2200702   2206601   2212413   2218115  
  7050.000000   2223715   2229240   2234728   2240206   2245683  
  7040.000000   2251146   2256579   2261969   2267331   2272689  
  7030.000000   2278081   2283519   2288986   2294420   2299744  
  7020.000000   2304884   2309803   2314514   2319076   2323559  
  7010.000000   2328022   2332479   2336917   2341288   2345577  
  7000.000000   2349793   2354005   2358288   2362716   2367296  
  6990.000000   2371974   2376619   2381081   2385220   2388962  
  6980.000000   2392299   2395297   2398057   2400704   2403331  
  6970.000000   2406025   2408832   2411789   2414894   2418134  
  6960.000000   2421447   2424763   2427982   2431027   2433841  
  6950.000000   2436425   2438813   2441076   2443280   2445479  
  6940.000000   2447690   2449911   2452112   2454275   2456374  
  6930.000000   2458410   2460373   2462273   2464102   2465864  
  6920.000000   2467552   2469166   2470696   2472132   2473451  
  6910.000000   2474640   2475685   2476606   2477440   2478251  
  6900.000000   2479100   2480042   2481091   2482230   2483412  
  6890.000000   2484585   2485706   2486759   2487748   2488694  
  6880.000000   2489613   2490518   2491410   2492290   2493163  
  6870.000000   2494041   2494939   2495865   2496810   2497753  
  6860.000000   2498665   2499529   2500344   2501131   2501921  
  6850.000000   2502742   2503596   2504465   2505309   2506093  
  6840.000000   2506796   2507433   2508038   2508661   2509336  
  6830.000000   2510075   2510849   2511612   2512301   2512861  
  6820.000000   2513251   2513455   2513482   2513369   2513167  
  6810.000000   2512950   2512787   2512741   2512840   2513076  
  6800.000000   2513400   2513743   2514034   2514234   2514336  
  6790.000000   2514373   2514388   2514417   2514467   2514517  
  6780.000000   2514534   2514496   2514410   2514309   2514240  
  6770.000000   2514233   2514277   2514321   2514290   2514120  
  6760.000000   2513797   2513362   2512912   2512556   2512384  
  6750.000000   2512426   2512650   2512980   2513335   2513659  
  6740.000000   2513946   2514233   2514576   2515022   2515582  
  6730.000000   2516221   2516871   2517449   2517883   2518137  
  6720.000000   2518213   2518156   2518037   2517937   2517925  
  6710.000000   2518047   2518302   2518652   2519018   2519310  
  6700.000000   2519440   2519359   2519059   2518591   2518032  
  6690.000000   2517483   2517021   2516699   2516520   2516460  
  6680.000000   2516457   2516447   2516355   2516118   2515686  
  6670.000000   2515033   2514159   2513098   2511910   2510674  
  6660.000000   2509466   2508348   2507342   2506449   2505634  
  6650.000000   2504866   2504107   2503349   2502582   2501817  
  6640.000000   2501057   2500306   2499556   2498801   2498024  
  6630.000000   2497208   2496321   2495331   2494198   2492899  
  6620.000000   2491435   2489848   2488205   2486593   2485081  
  6610.000000   2483704   2482441   2481230   2479988   2478645  
  6600.000000   2477167   2475567   2473887   2472186   2470509  
  6590.000000   2468881   2467305   2465777   2464295   2462868  
  6580.000000   2461504   2460200   2458935   2457664   2456338  
  6570.000000   2454914   2453382   2451765   2450110   2448475  
  6560.000000   2446899   2445399   2443962   2442563   2441178  
  6550.000000   2439795   2438420   2437065   2435735   2434427  
  6540.000000   2433122   2431795   2430427   2429010   2427549  
  6530.000000   2426060   2424559   2423064   2421587   2420144  
  6520.000000   2418746   2417406   2416127   2414898   2413699  
  6510.000000   2412497   2411269   2410003   2408705   2407398  
  6500.000000   2406110   2404858   2403642   2402450   2401264  
  6490.000000   2400076   2398893   2397734   2396617   2395547  
  6480.000000   2394504   2393449   2392337   2391137   2389846  
  6470.000000   2388485   2387089   2385691   2384302   2382918  
  6460.000000   2381522   2380104   2378677   2377272   2375931  
  6450.000000   2374688   2373553   2372510   2371523   2370555  
  6440.000000   2369586   2368613   2367650   2366706   2365784  
  6430.000000   2364865   2363933   2362973   2362004   2361063  
  6420.000000   2360208   2359485   2358916   2358481   2358137  
  6410.000000   2357818   2357479   2357087   2356642   2356156  
  6400.000000   2355647   2355127   2354608   2354104   2353645  
  6390.000000   2353268   2353017   2352918   2352970   2353135  
  6380.000000   2353352   2353551   2353675   2353698   2353619  
  6370.000000   2353461   2353247   2352992   2352700   2352365  
  6360.000000   2351985   2351564   2351106   2350625   2350115  
  6350.000000   2349574   2348989   2348365   2347715   2347073  
  6340.000000   2346466   2345915   2345401   2344883   2344299  
  6330.000000   2343603   2342775   2341841   2340858   2339896  
  6320.000000   2339003   2338190   2337425   2336652   2335812  
  6310.000000   2334878   2333855   2332790   2331734   2330738  
  6300.000000   2329817   2328960   2328127   2327270   2326343  
  6290.000000   2325316   2324174   2322916   2321551   2320096  
  6280.000000   2318572   2317009   2315436   2313884   2312375  
  6270.000000   2310929   2309549   2308239   2306991   2305797  
  6260.000000   2304634   2303477   2302291   2301045   2299717  
  6250.000000   2298306   2296835   2295346   2293879   2292463  
  6240.000000   2291098   2289757   2288397   2286980   2285482  
  6230.000000   2283912   2282295   2280671   2279069   2277506  
  6220.000000   2275979   2274479   2273001   2271548   2270137  
  6210.000000   2268781   2267489   2266246   2265028   2263798  
  6200.000000   2262531   2261218   2259877   2258536   2257237  
  6190.000000   2256003   2254849   2253771   2252755   2251783  
  6180.000000   2250843   2249928   2249039   2248178   2247353  
  6170.000000   2246563   2245808   2245081   2244366   2243641  
  6160.000000   2242882   2242067   2241185   2240245   2239275  
  6150.000000   2238317   2237412   2236589   2235852   2235181  
  6140.000000   2234539   2233885   2233185   2232423   2231602  
  6130.000000   2230732   2229831   2228909   2227982   2227060  
  6120.000000   2226162   2225306   2224513   2223790   2223140  
  6110.000000   2222550   2222008   2221506   2221056   2220676  
  6100.000000   2220398   2220241   2220212   2220287   2220432  
  6090.000000   2220599   2220758   2220888   2220999   2221105  
  6080.000000   2221235   2221400   2221616   2221875   2222181  
  6070.000000   2222529   2222933   2223398   2223941   2224560  
  6060.000000   2225262   2226034   2226877   2227778   2228745  
  6050.000000   2229767   2230849   2231979   2233159   2234381  
  6040.000000   2235661   2237007   2238454   2240020   2241737  
  6030.000000   2243611   2245650   2247835   2250151   2252560  
  6020.000000   2255033   2257525   2260006   2262442   2264824  
  6010.000000   2267148   2269437   2271713   2274014   2276357  
  6000.000000   2278758   2281208   2283704   2286230   2288788  
  5990.000000   2291375   2294006   2296683   2299415   2302197  
  5980.000000   2305034   2307925   2310890   2313939   2317094  
  5970.000000   2320352   2323711   2327137   2330610   2334099  
  5960.000000   2337610   2341144   2344734   2348392   2352133  
  5950.000000   2355943   2359809   2363707   2367636   2371610  
  5940.000000   2375661   2379826   2384129   2388573   2393133  
  5930.000000   2397762   2402401   2406993   2411487   2415848  
  5920.000000   2420043   2424050   2427849   2431431   2434800  
  5910.000000   2437975   2440989   2443883   2446694   2449463  
  5900.000000   2452214   2454984   2457792   2460678   2463657  
  5890.000000   2466754   2469950   2473225   2476522   2479790  
  5880.000000   2482967   2486013   2488893   2491587   2494082  
  5870.000000   2496368   2498443   2500320   2502028   2503621  
  5860.000000   2505160   2506710   2508319   2510016   2511798  
  5850.000000   2513659   2515574   2517533   2519524   2521544  
  5840.000000   2523588   2525643   2527696   2529731   2531744  
  5830.000000   2533734   2535715   2537696   2539687   2541682  
  5820.000000   2543676   2545657   2547628   2549597   2551581  
  5810.000000   2553600   2555657   2557752   2559865   2561992  
  5800.000000   2564121   2566283   2568486   2570771   2573124  
  5790.000000   2575529   2577903   2580163   2582175   2583835  
  5780.000000   2585017   2585642   2585633   2584971   2583658  
  5770.000000   2581772   2579416   2576756   2573948   2571161  
  5760.000000   2568496   2566030   2563760   2561678   2559740  
  5750.000000   2557934   2556242   2554678   2553242   2551935  
  5740.000000   2550738   2549623   2548564   2547528   2546503  
  5730.000000   2545466   2544411   2543314   2542166   2540954  
  5720.000000   2539694   2538410   2537146   2535945   2534839  
  5710.000000   2533841   2532944   2532126   2531367   2530650  
  5700.000000   2529966   2529312   2528680   2528062   2527437  
  5690.000000   2526799   2526142   2525487   2524854   2524275  
  5680.000000   2523753   2523286   2522827   2522329   2521719  
  5670.000000   2520941   2519935   2518664   2517092   2515209  
  5660.000000   2513014   2510543   2507855   2505044   2502206  
  5650.000000   2499442   2496816   2494367   2492089   2489959  
  5640.000000   2487934   2485984   2484080   2482207   2480358  
  5630.000000   2478526   2476715   2474930   2473196   2471532  
  5620.000000   2469970   2468518   2467177   2465917   2464709  
  5610.000000   2463515   2462322   2461129   2459963   2458849  
  5600.000000   2457809   2456843   2455939   2455068   2454206  
  5590.000000   2453339   2452468   2451606   2450770   2449974  
  5580.000000   2449223   2448517   2447851   2447217   2446605  
  5570.000000   2445999   2445378   2444713   2443978   2443156  
  5560.000000   2442245   2441259   2440221   2439160   2438099  
  5550.000000   2437051   2436024   2435024   2434060   2433141  
  5540.000000   2432270   2431441   2430626   2429789   2428894  
  5530.000000   2427922   2426880   2425805   2424744   2423744  
  5520.000000   2422823   2421972   2421150   2420312   2419416  
  5510.000000   2418444   2417401   2416308   2415189   2414061  
  5500.000000   2412929   2411798   2410669   2409554   2408461  
  5490.000000   2407398   2406350   2405289   2404172   2402964  
  5480.000000   2401640   2400211   2398703   2397161   2395620  
  5470.000000   2394102   2392600   2391101   2389581   2388029  
  5460.000000   2386441   2384825   2383187   2381532   2379857  
  5450.000000   2378161   2376448   2374726   2373010   2371307  
  5440.000000   2369623   2367954   2366302   2364674   2363099  
  5430.000000   2361610   2360242   2359000   2357869   2356796  
  5420.000000   2355731   2354625   2353476   2352307   2351185  
  5410.000000   2350168   2349304   2348588   2348002   2347493  
  5400.000000   2347043   2346634   2346299   2346062   2345964  
  5390.000000   2346006   2346194   2346500   2346928   2347476  
  5380.000000   2348190   2349091   2350219   2351557   2353098  
  5370.000000   2354780   2356584   2358464   2360440   2362497  
  5360.000000   2364685   2366992   2369466   2372098   2374956  
  5350.000000   2378057   2381501   2385316   2389591   2394308  
  5340.000000   2399506   2405115   2411154   2417550   2424337  
  5330.000000   2431453   2438944   2446752   2454941   2463477  
  5320.000000   2472472   2481942   2492041   2502790   2514322  
  5310.000000   2526596   2539677   2553464   2567989   2583159  
  5300.000000   2599041   2615596   2632945   2651087   2670153  
  5290.000000   2690120   2711053   2732841   2755441   2778668  
  5280.000000   2802453   2826667   2851349   2876508   2902279  
  5270.000000   2928702   2955817   2983501   3011578   3039798  
  5260.000000   3067950   3095911   3123664   3151291   3178872  
  5250.000000   3206475   3234018   3261381   3288304   3314625  
  5240.000000   3340148   3364891   3388843   3412169   3434903  
  5230.000000   3457170   3478889   3500053   3520481   3540136  
  5220.000000   3558882   3576791   3593848   3610226   3625956  
  5210.000000   3641189   3655873   3670044   3683542   3696348  
  5200.000000   3708319   3719515   3729902   3739630   3748702  
  5190.000000   3757243   3765196   3772612   3779389   3785572  
  5180.000000   3791098   3796061   3800431   3804301   3807617  
  5170.000000   3810424   3812650   3814345   3815476   3816140  
  5160.000000   3816336   3816159   3815581   3814644   3813286  
  5150.000000   3811532   3809337   3806756   3803776   3800464  
  5140.000000   3796810   3792871   3788640   3784180   3779508  
  5130.000000   3774702   3769782   3764799   3759739   3754609  
  5120.000000   3749371   3744030   3738574   3733034   3727428  
  5110.000000   3721792   3716133   3710466   3704785   3699100  
  5100.000000   3693416   3687759   3682141   3676582   3671081  
  5090.000000   3665636   3660230   3654859   3649515   3644200  
  5080.000000   3638908   3633632   3628346   3623029   3617650  
  5070.000000   3612201   3606680   3601108   3595501   3589879  
  5060.000000   3584237   3578569   3572844   3567042   3561137  
  5050.000000   3555130   3549016   3542814   3536531   3530188  
  5040.000000   3523795   3517371   3510926   3504474   3498020  
  5030.000000   3491564   3485101   3478625   3472137   3465646  
  5020.000000   3459180   3452765   3446438   3440214   3434111  
  5010.000000   3428116   3422230   3416435   3410746   3405162  
  5000.000000   3399717   3394417   3389294   3384339   3379569  
  4990.000000   3374966   3370555   3366325   3362316   3358522  
  4980.000000   3354980   3351670   3348614   3345779   3343189  
  4970.000000   3340818   3338704   3336833   3335252   3333937  
  4960.000000   3332931   3332203   3331796   3331687   3331935  
  4950.000000   3332529   3333533   3334929   3336763   3338993  
  4940.000000   3341646   3344666   3348074   3351819   3355930  
  4930.000000   3360366   3365164   3370293   3375796   3381648  
  4920.000000   3387893   3394500   3401501   3408852   3416565  
  4910.000000   3424589   3432924   3441526   3450394   3459490  
  4900.000000   3468803   3478297   3487940   3497694   3507511  
  4890.000000   3517352   3527157   3536886   3546460   3555836  
  4880.000000   3564924   3573690   3582049   3589983   3597412  
  4870.000000   3604327   3610644   3616359   3621397   3625780  
  4860.000000   3629466   3632520   3634936   3636796   3638102  
  4850.000000   3638934   3639290   3639251   3638832   3638129  
  4840.000000   3637179   3636075   3634849   3633564   3632224  
  4830.000000   3630858   3629460   3628052   3626644   3625265  
  4820.000000   3623940   3622701   3621576   3620585   3619753  
  4810.000000   3619088   3618608   3618307   3618192   3618244  
  4800.000000   3618463   3618827   3619341   3619991   3620790  
  4790.000000   3621726   3622803   3623993   3625282   3626632  
  4780.000000   3628028   3629445   3630886   3632350   3633854  
  4770.000000   3635401   3636999   3638638   3640312   3642006  
  4760.000000   3643712   3645420   3647130   3648841   3650551  
  4750.000000   3652258   3653960   3655652   3657327   3658984  
  4740.000000   3660619   3662232   3663823   3665392   3666943  
  4730.000000   3668473   3669983   3671469   3672930   3674359  
  4720.000000   3675765   3677147   3678530   3679927   3681375  
  4710.000000   3682896   3684529   3686292   3688219   3690320  
  4700.000000   3692620   3695122   3697837   3700757   3703880  
  4690.000000   3707190   3710682   3714336   3718152   3722104  
  4680.000000   3726180   3730332   3734520   3738671   3742737  
  4670.000000   3746657   3750419   3754017   3757494   3760894  
  4660.000000   3764289   3767736   3771302   3775035   3778981  
  4650.000000   3783172   3787630   3792357   3797328   3802504  
  4640.000000   3807818   3813208   3818605   3823971   3829268  
  4630.000000   3834488   3839607   3844609   3849444   3854063  
  4620.000000   3858390   3862375   3865958   3869134   3871891  
  4610.000000   3874275   3876310   3878068   3879575   3880903  
  4600.000000   3882068   3883133   3884096   3885003   3885828  
  4590.000000   3886587   3887226   3887727   3888017   3888067  
  4580.000000   3887815   3887254   3886358   3885160   3883675  
  4570.000000   3881966   3880067   3878041   3875911   3873717  
  4560.000000   3871462   3869166   3866820   3864438   3862012  
  4550.000000   3859556   3857062   3854537   3851971   3849365  
  4540.000000   3846717   3844035   3841333   3838637   3835970  
  4530.000000   3833355   3830806   3828316   3825876   3823455  
  4520.000000   3821038   3818592   3816129   3813638   3811163  
  4510.000000   3808717   3806377   3804168   3802191   3800480  
  4500.000000   3799148   3798222   3797806   3797899   3798581  
  4490.000000   3799825   3801702   3804179   3807343   3811176  
  4480.000000   3815775   3821115   3827276   3834199   3841926  
  4470.000000   3850365   3859538   3869347   3879813   3890851  
  4460.000000   3902482   3914620   3927271   3940335   3953795  
  4450.000000   3967552   3981588   3995837   4010301   4024951  
  4440.000000   4039795   4054805   4069954   4085190   4100441  
  4430.000000   4115648   4130733   4145667   4160392   4174914  
  4420.000000   4189176   4203178   4216829   4230093   4242836  
  4410.000000   4254992   4266419   4277066   4286835   4295741  
  4400.000000   4303770   4311028   4317585   4323607   4329198  
  4390.000000   4334524   4339665   4344742   4349785   4354861  
  4380.000000   4359960   4365113   4370295   4375521   4380779  
  4370.000000   4386091   4391462   4396918   4402463   4408109  
  4360.000000   4413834   4419634   4425464   4431328   4437171  
  4350.000000   4443023   4448818   4454596   4460278   4465909  
  4340.000000   4471401   4476769   4481863   4486554   4490502  
  4330.000000   4493330   4494506   4493559   4490088   4483976  
  4320.000000   4475386   4464846   4453099   4441037   4429464  
  4310.000000   4419030   4410085   4402744   4396887   4392303  
  4300.000000   4388748   4386026   4384018   4382638   4381867  
  4290.000000   4381641   4381946   4382699   4383892   4385462  
  4280.000000   4387420   4389723   4392349   4395234   4398298  
  4270.000000   4401459   4404615   4407676   4410502   4412934  
  4260.000000   4414732   4415633   4415342   4413646   4410420  
  4250.000000   4405730   4399783   4392961   4385678   4378394  
  4240.000000   4371445   4365099   4359438   4354471   4350077  
  4230.000000   4346123   4342440   4338889   4335360   4331772  
  4220.000000   4328112   4324374   4320637   4316957   4313470  
  4210.000000   4310254   4307435   4305058   4303187   4301806  
  4200.000000   4300915   4300448   4300370   4300602   4301106  
  4190.000000   4301812   4302702   4303719   4304865   4306085  
  4180.000000   4307386   4308715   4310085   4311461   4312891  
  4170.000000   4314391   4316060   4317956   4320193   4322813  
  4160.000000   4325889   4329402   4333366   4337719   4342461  
  4150.000000   4347537   4352974   4358746   4364907   4371435  
  4140.000000   4378386   4385722   4393481   4401605   4410116  
  4130.000000   4418945   4428118   4437579   4447379   4457500  
  4120.000000   4468029   4478984   4490468   4502503   4515171  
  4110.000000   4528465   4542420   4556984   4572140   4587795  
  4100.000000   4603889   4620311   4636989   4653832   4670797  
  4090.000000   4687842   4704953   4722119   4739321   4756545  
  4080.000000   4773743   4790895   4807930   4824825   4841490  
  4070.000000   4857884   4873882   4889430   4904397   4918760  
  4060.000000   4932433   4945457   4957794   4969520   4980603  
  4050.000000   4991129   5001066   5010519   5019468   5028025  
  4040.000000   5036147   5043897   5051174   5057989   5064217  
  4030.000000   5069877   5074881   5079282   5083036   5086203  
  4020.000000   5088730   5090693   5092108   5093071   5093572  
  4010.000000   5093733   5093618   5093208   5092270   5090803  
  4000.000000   5089060  
##END= 
