##TITLE= Sample 007 By ssteindl date Montag, November 26 2018
##JCAMP-DX= 4.24
##DATA TYPE= INFRARED SPECTRUM
##ORIGIN= Exported PE Spectrum Data File
##OWNER= Sandra Steindl
##DATE= 18/11/26
##TIME= 11:27:42.00
##SPECTROMETER/DATA SYSTEM= PERKIN-ELMER Frontier FT-IR/NIR IR
##INSTRUMENT PARAMETERS=
  APODIZATION=stark
  DETECTOR=INGAAS
##RESOLUTION= 16.000000
##DELTAX= -2.000000
##XUNITS= 1/CM
##YUNITS= A
##XFACTOR= 1.00
##YFACTOR= 0.00000011920928955078
##FIRSTX= 10000.00
##LASTX= 4000.00
##NPOINTS= 3001
##FIRSTY= 0.262647
##MAXY= 0.557625
##MINY= 0.213438
##XYDATA= (X++(Y..Y))
 10000.000000   2203242   2198211   2194491   2193496   2194773  
  9990.000000   2196507   2197282   2196568   2194325   2190856  
  9980.000000   2186877   2183173   2180174   2177958   2176552  
  9970.000000   2176027   2176500   2177930   2180026   2182008  
  9960.000000   2182901   2181722   2178024   2172051   2164821  
  9950.000000   2157746   2152202   2149088   2148662   2150657  
  9940.000000   2154563   2159955   2166578   2174296   2182801  
  9930.000000   2191432   2199167   2204862   2207695   2207488  
  9920.000000   2204895   2201150   2197633   2195326   2194480  
  9910.000000   2194683   2195155   2195247   2194712   2193757  
  9900.000000   2192783   2192054   2191432   2190412   2188339  
  9890.000000   2184834   2180053   2174823   2170370   2167974  
  9880.000000   2168451   2171965   2177942   2185352   2192997  
  9870.000000   2199773   2204843   2207591   2207680   2204976  
  9860.000000   2199692   2192386   2184030   2175851   2169117  
  9850.000000   2164813   2163369   2164600   2167713   2171684  
  9840.000000   2175441   2178256   2179746   2179944   2179117  
  9830.000000   2177649   2175934   2174276   2172900   2171863  
  9820.000000   2171104   2170387   2169424   2167922   2165744  
  9810.000000   2162962   2159860   2156807   2154097   2151804  
  9800.000000   2149791   2147789   2145635   2143403   2141493  
  9790.000000   2140486   2140921   2143058   2146706   2151288  
  9780.000000   2156014   2160165   2163337   2165507   2166991  
  9770.000000   2168185   2169375   2170582   2171555   2171936  
  9760.000000   2171393   2169834   2167421   2164576   2161849  
  9750.000000   2159750   2158604   2158412   2158826   2159186  
  9740.000000   2158707   2156665   2152716   2147029   2140429  
  9730.000000   2134222   2129898   2128677   2131071   2136714  
  9720.000000   2144415   2152600   2159810   2165198   2168718  
  9710.000000   2171019   2173038   2175502   2178577   2181732  
  9700.000000   2184053   2184579   2182858   2179063   2174018  
  9690.000000   2168806   2164340   2161106   2158990   2157598  
  9680.000000   2156440   2155359   2154516   2154413   2155512  
  9670.000000   2158083   2161915   2166426   2170763   2174112  
  9660.000000   2175930   2176031   2174576   2171882   2168286  
  9650.000000   2164025   2159252   2154101   2148787   2143610  
  9640.000000   2138938   2135037   2132005   2129670   2127673  
  9630.000000   2125592   2123110   2120168   2116981   2114044  
  9620.000000   2111949   2111296   2112503   2115740   2120871  
  9610.000000   2127450   2134796   2142006   2148122   2152171  
  9600.000000   2153425   2151480   2146490   2139131   2130565  
  9590.000000   2122172   2115223   2110626   2108669   2109121  
  9580.000000   2111262   2114270   2117339   2119968   2121900  
  9570.000000   2123096   2123563   2123219   2121932   2119520  
  9560.000000   2116026   2111688   2107077   2102851   2099631  
  9550.000000   2097754   2097193   2097631   2098596   2099727  
  9540.000000   2100838   2102006   2103388   2105135   2107206  
  9530.000000   2109386   2111344   2112789   2113625   2113957  
  9520.000000   2114029   2114020   2113889   2113327   2111866  
  9510.000000   2109111   2104974   2099788   2094267   2089263  
  9500.000000   2085498   2083298   2082484   2082478   2082501  
  9490.000000   2081934   2080524   2078527   2076563   2075408  
  9480.000000   2075676   2077616   2081026   2085281   2089538  
  9470.000000   2092892   2094669   2094497   2092449   2088922  
  9460.000000   2084573   2080116   2076203   2073286   2071563  
  9450.000000   2070983   2071298   2072189   2073319   2074483  
  9440.000000   2075547   2076521   2077434   2078339   2079250  
  9430.000000   2080123   2080907   2081484   2081783   2081678  
  9420.000000   2081102   2079964   2078225   2075893   2073051  
  9410.000000   2069924   2066836   2064244   2062613   2062357  
  9400.000000   2063692   2066569   2070621   2075197   2079472  
  9390.000000   2082610   2083989   2083341   2080887   2077236  
  9380.000000   2073297   2069986   2068050   2067826   2069197  
  9370.000000   2071654   2074438   2076854   2078366   2078831  
  9360.000000   2078403   2077559   2076912   2077056   2078376  
  9350.000000   2080854   2084062   2087184   2089258   2089423  
  9340.000000   2087178   2082607   2076389   2069748   2064085  
  9330.000000   2060627   2059994   2062041   2065911   2070324  
  9320.000000   2073954   2075774   2075272   2072551   2068206  
  9310.000000   2063135   2058242   2054268   2051693   2050729  
  9300.000000   2051350   2053284   2056032   2058905   2061140  
  9290.000000   2062059   2061248   2058643   2054598   2049744  
  9280.000000   2044876   2040665   2037537   2035590   2034672  
  9270.000000   2034548   2035005   2035989   2037538   2039745  
  9260.000000   2042589   2045866   2049181   2051999   2053818  
  9250.000000   2054235   2053112   2050555   2046966   2042922  
  9240.000000   2039070   2036017   2034177   2033746   2034592  
  9230.000000   2036338   2038412   2040238   2041372   2041604  
  9220.000000   2040960   2039618   2037826   2035782   2033625  
  9210.000000   2031428   2029285   2027364   2025914   2025238  
  9200.000000   2025553   2026907   2029072   2031621   2034014  
  9190.000000   2035746   2036483   2036098   2034706   2032549  
  9180.000000   2029948   2027196   2024565   2022280   2020527  
  9170.000000   2019438   2019040   2019279   2019980   2020945  
  9160.000000   2021938   2022818   2023507   2024020   2024372  
  9150.000000   2024546   2024467   2024018   2023124   2021763  
  9140.000000   2020023   2018041   2015979   2013908   2011812  
  9130.000000   2009580   2007126   2004446   2001676   1999075  
  9120.000000   1996943   1995534   1994954   1995164   1996019  
  9110.000000   1997373   1999160   2001361   2003980   2006911  
  9100.000000   2009927   2012618   2014517   2015230   2014647  
  9090.000000   2012999   2010838   2008903   2007891   2008282  
  9080.000000   2010111   2013034   2016357   2019320   2021247  
  9070.000000   2021758   2020822   2018723   2015945   2012957  
  9060.000000   2010076   2007370   2004720   2001920   1998846  
  9050.000000   1995585   1992469   1990021   1988731   1988919  
  9040.000000   1990537   1993198   1996250   1998987   2000883  
  9030.000000   2001702   2001569   2000812   1999851   1998984  
  9020.000000   1998362   1997943   1997627   1997312   1996988  
  9010.000000   1996709   1996540   1996526   1996622   1996770  
  9000.000000   1996886   1996977   1997106   1997406   1997974  
  8990.000000   1998813   1999806   2000737   2001381   2001548  
  8980.000000   2001138   2000134   1998586   1996566   1994165  
  8970.000000   1991525   1988871   1986522   1984817   1984033  
  8960.000000   1984258   1985335   1986859   1988320   1989260  
  8950.000000   1989441   1988907   1987930   1986897   1986135  
  8940.000000   1985814   1985890   1986186   1986482   1986630  
  8930.000000   1986587   1986395   1986128   1985854   1985594  
  8920.000000   1985348   1985097   1984835   1984542   1984176  
  8910.000000   1983658   1982924   1981965   1980905   1980015  
  8900.000000   1979672   1980214   1981778   1984216   1987084  
  8890.000000   1989797   1991797   1992802   1992875   1992434  
  8880.000000   1992035   1992177   1993089   1994654   1996463  
  8870.000000   1997961   1998638   1998149   1996383   1993452  
  8860.000000   1989645   1985375   1981112   1977349   1974531  
  8850.000000   1972970   1972756   1973688   1975301   1976992  
  8840.000000   1978213   1978659   1978353   1977644   1977047  
  8830.000000   1977059   1977962   1979752   1982166   1984809  
  8820.000000   1987308   1989401   1990960   1991918   1992205  
  8810.000000   1991706   1990314   1987971   1984777   1980992  
  8800.000000   1977029   1973344   1970300   1968111   1966787  
  8790.000000   1966253   1966360   1967036   1968227   1969915  
  8780.000000   1972013   1974328   1976562   1978347   1979363  
  8770.000000   1979388   1978411   1976579   1974222   1971707  
  8760.000000   1969410   1967590   1966386   1965775   1965600  
  8750.000000   1965608   1965533   1965192   1964541   1963727  
  8740.000000   1963022   1962775   1963276   1964668   1966890  
  8730.000000   1969695   1972746   1975692   1978266   1980275  
  8720.000000   1981620   1982236   1982112   1981279   1979855  
  8710.000000   1978068   1976227   1974690   1973727   1973482  
  8700.000000   1973895   1974782   1975889   1977016   1978035  
  8690.000000   1978902   1979577   1979959   1979881   1979144  
  8680.000000   1977661   1975524   1973080   1970818   1969254  
  8670.000000   1968718   1969244   1970556   1972175   1973635  
  8660.000000   1974647   1975206   1975531   1975951   1976736  
  8650.000000   1977985   1979608   1981380   1983063   1984475  
  8640.000000   1985527   1986193   1986465   1986324   1985758  
  8630.000000   1984819   1983667   1982561   1981780   1981512  
  8620.000000   1981756   1982294   1982765   1982817   1982263  
  8610.000000   1981186   1979916   1978901   1978534   1978992  
  8600.000000   1980193   1981836   1983552   1985033   1986145  
  8590.000000   1986916   1987493   1988023   1988596   1989208  
  8580.000000   1989797   1990313   1990742   1991130   1991529  
  8570.000000   1991994   1992540   1993169   1993860   1994609  
  8560.000000   1995405   1996207   1996903   1997303   1997192  
  8550.000000   1996389   1994850   1992720   1990328   1988104  
  8540.000000   1986442   1985604   1985647   1986446   1987739  
  8530.000000   1989249   1990743   1992083   1993193   1994034  
  8520.000000   1994584   1994816   1994734   1994369   1993821  
  8510.000000   1993200   1992612   1992102   1991662   1991245  
  8500.000000   1990814   1990382   1990009   1989783   1989762  
  8490.000000   1989942   1990248   1990574   1990843   1991046  
  8480.000000   1991264   1991614   1992186   1992983   1993905  
  8470.000000   1994787   1995480   1995909   1996128   1996273  
  8460.000000   1996502   1996889   1997396   1997861   1998098  
  8450.000000   1997966   1997458   1996708   1995953   1995448  
  8440.000000   1995368   1995786   1996669   1997938   1999492  
  8430.000000   2001249   2003128   2005022   2006768   2008169  
  8420.000000   2009046   2009314   2009037   2008420   2007756  
  8410.000000   2007325   2007284   2007624   2008165   2008667  
  8400.000000   2008904   2008778   2008321   2007684   2007041  
  8390.000000   2006522   2006144   2005826   2005427   2004823  
  8380.000000   2003966   2002902   2001759   2000706   1999904  
  8370.000000   1999475   1999456   1999812   2000437   2001181  
  8360.000000   2001871   2002348   2002502   2002307   2001829  
  8350.000000   2001208   2000608   2000162   1999915   1999803  
  8340.000000   1999682   1999383   1998795   1997907   1996822  
  8330.000000   1995709   1994741   1994018   1993541   1993217  
  8320.000000   1992925   1992577   1992158   1991748   1991472  
  8310.000000   1991461   1991778   1992412   1993282   1994272  
  8300.000000   1995275   1996193   1996942   1997431   1997562  
  8290.000000   1997248   1996447   1995215   1993718   1992227  
  8280.000000   1991020   1990318   1990157   1990412   1990795  
  8270.000000   1990988   1990734   1989940   1988695   1987200  
  8260.000000   1985678   1984245   1982890   1981470   1979816  
  8250.000000   1977824   1975539   1973183   1971080   1969591  
  8240.000000   1968949   1969241   1970357   1972062   1974056  
  8230.000000   1976024   1977695   1978809   1979162   1978583  
  8220.000000   1977003   1974476   1971230   1967648   1964220  
  8210.000000   1961436   1959653   1959011   1959373   1960402  
  8200.000000   1961629   1962613   1963018   1962695   1961677  
  8190.000000   1960131   1958299   1956422   1954718   1953334  
  8180.000000   1952360   1951810   1951630   1951706   1951864  
  8170.000000   1951937   1951761   1951265   1950451   1949418  
  8160.000000   1948308   1947255   1946338   1945533   1944737  
  8150.000000   1943765   1942439   1940620   1938292   1935553  
  8140.000000   1932629   1929808   1927384   1925592   1924552  
  8130.000000   1924261   1924594   1925365   1926372   1927453  
  8120.000000   1928513   1929509   1930427   1931226   1931825  
  8110.000000   1932090   1931892   1931136   1929832   1928095  
  8100.000000   1926132   1924193   1922483   1921127   1920117  
  8090.000000   1919358   1918690   1917975   1917114   1916084  
  8080.000000   1914912   1913648   1912337   1911006   1909663  
  8070.000000   1908313   1906979   1905699   1904536   1903552  
  8060.000000   1902807   1902323   1902090   1902041   1902061  
  8050.000000   1902001   1901703   1901044   1899988   1898612  
  8040.000000   1897114   1895766   1894838   1894505   1894773  
  8030.000000   1895457   1896228   1896703   1896581   1895733  
  8020.000000   1894238   1892355   1890424   1888762   1887574  
  8010.000000   1886927   1886758   1886934   1887303   1887736  
  8000.000000   1888122   1888374   1888401   1888122   1887485  
  7990.000000   1886490   1885216   1883794   1882387   1881121  
  7980.000000   1880063   1879195   1878451   1877757   1877074  
  7970.000000   1876426   1875868   1875465   1875236   1875154  
  7960.000000   1875144   1875134   1875089   1875021   1874988  
  7950.000000   1875031   1875142   1875232   1875153   1874745  
  7940.000000   1873918   1872687   1871200   1869680   1868363  
  7930.000000   1867410   1866859   1866621   1866523   1866382  
  7920.000000   1866067   1865552   1864906   1864274   1863812  
  7910.000000   1863644   1863822   1864314   1865021   1865785  
  7900.000000   1866447   1866853   1866904   1866560   1865857  
  7890.000000   1864888   1863789   1862705   1861763   1861052  
  7880.000000   1860605   1860417   1860445   1860639   1860932  
  7870.000000   1861268   1861574   1861788   1861844   1861701  
  7860.000000   1861353   1860831   1860207   1859557   1858949  
  7850.000000   1858406   1857902   1857380   1856777   1856070  
  7840.000000   1855290   1854539   1853947   1853643   1853685  
  7830.000000   1854053   1854625   1855225   1855664   1855805  
  7820.000000   1855603   1855103   1854428   1853715   1853072  
  7810.000000   1852522   1852003   1851387   1850530   1849345  
  7800.000000   1847838   1846144   1844485   1843130   1842295  
  7790.000000   1842090   1842465   1843221   1844061   1844662  
  7780.000000   1844778   1844291   1843248   1841829   1840294  
  7770.000000   1838909   1837868   1837270   1837105   1837292  
  7760.000000   1837709   1838247   1838811   1839332   1839735  
  7750.000000   1839933   1839814   1839265   1838210   1836642  
  7740.000000   1834664   1832465   1830304   1828429   1827017  
  7730.000000   1826131   1825690   1825525   1825417   1825192  
  7720.000000   1824752   1824119   1823396   1822729   1822240  
  7710.000000   1821982   1821931   1821983   1822014   1821900  
  7700.000000   1821570   1821005   1820238   1819336   1818369  
  7690.000000   1817410   1816512   1815724   1815083   1814618  
  7680.000000   1814337   1814221   1814215   1814234   1814173  
  7670.000000   1813938   1813463   1812738   1811808   1810764  
  7660.000000   1809722   1808789   1808043   1807507   1807157  
  7650.000000   1806927   1806738   1806510   1806185   1805736  
  7640.000000   1805165   1804500   1803785   1803076   1802434  
  7630.000000   1801913   1801558   1801389   1801397   1801541  
  7620.000000   1801746   1801929   1802010   1801935   1801688  
  7610.000000   1801287   1800777   1800200   1799585   1798932  
  7600.000000   1798229   1797463   1796644   1795817   1795056  
  7590.000000   1794446   1794050   1793884   1793906   1794023  
  7580.000000   1794122   1794104   1793912   1793549   1793071  
  7570.000000   1792564   1792124   1791824   1791706   1791763  
  7560.000000   1791956   1792210   1792437   1792548   1792473  
  7550.000000   1792187   1791728   1791191   1790718   1790448  
  7540.000000   1790481   1790833   1791433   1792125   1792728  
  7530.000000   1793078   1793096   1792796   1792286   1791715  
  7520.000000   1791229   1790920   1790812   1790861   1790997  
  7510.000000   1791150   1791284   1791406   1791547   1791755  
  7500.000000   1792066   1792500   1793058   1793723   1794481  
  7490.000000   1795304   1796171   1797038   1797861   1798577  
  7480.000000   1799138   1799508   1799692   1799729   1799699  
  7470.000000   1799707   1799864   1800272   1800986   1802021  
  7460.000000   1803328   1804809   1806327   1807727   1808879  
  7450.000000   1809691   1810140   1810259   1810139   1809896  
  7440.000000   1809659   1809539   1809620   1809957   1810579  
  7430.000000   1811495   1812684   1814100   1815666   1817282  
  7420.000000   1818835   1820221   1821368   1822248   1822896  
  7410.000000   1823387   1823832   1824338   1824996   1825849  
  7400.000000   1826890   1828057   1829257   1830386   1831351  
  7390.000000   1832105   1832659   1833084   1833487   1833989  
  7380.000000   1834683   1835611   1836747   1838012   1839310  
  7370.000000   1840557   1841709   1842759   1843731   1844648  
  7360.000000   1845512   1846292   1846947   1847445   1847796  
  7350.000000   1848066   1848367   1848824   1849524   1850488  
  7340.000000   1851653   1852904   1854106   1855161   1856029  
  7330.000000   1856739   1857359   1857975   1858650   1859415  
  7320.000000   1860265   1861182   1862141   1863129   1864132  
  7310.000000   1865131   1866083   1866931   1867605   1868060  
  7300.000000   1868292   1868351   1868334   1868355   1868511  
  7290.000000   1868843   1869320   1869856   1870329   1870638  
  7280.000000   1870730   1870629   1870423   1870242   1870212  
  7270.000000   1870426   1870915   1871642   1872528   1873460  
  7260.000000   1874342   1875085   1875638   1875968   1876073  
  7250.000000   1875969   1875714   1875391   1875132   1875078  
  7240.000000   1875368   1876091   1877260   1878795   1880556  
  7230.000000   1882365   1884082   1885610   1886945   1888124  
  7220.000000   1889227   1890311   1891417   1892543   1893698  
  7210.000000   1894898   1896211   1897729   1899557   1901752  
  7200.000000   1904304   1907107   1909999   1912785   1915312  
  7190.000000   1917486   1919320   1920892   1922348   1923833  
  7180.000000   1925476   1927361   1929530   1931983   1934702  
  7170.000000   1937638   1940729   1943871   1946949   1949833  
  7160.000000   1952437   1954712   1956703   1958499   1960264  
  7150.000000   1962163   1964366   1966980   1970062   1973580  
  7140.000000   1977452   1981543   1985731   1989904   1994018  
  7130.000000   1998053   2002052   2006050   2010108   2014236  
  7120.000000   2018449   2022714   2027018   2031339   2035698  
  7110.000000   2040127   2044684   2049410   2054335   2059438  
  7100.000000   2064676   2069966   2075239   2080422   2085492  
  7090.000000   2090441   2095305   2100125   2104960   2109856  
  7080.000000   2114864   2120014   2125339   2130847   2136541  
  7070.000000   2142399   2148387   2154448   2160523   2166541  
  7060.000000   2172446   2178193   2183772   2189200   2194539  
  7050.000000   2199869   2205281   2210845   2216594   2222513  
  7040.000000   2228545   2234613   2240644   2246594   2252444  
  7030.000000   2258206   2263892   2269511   2275047   2280477  
  7020.000000   2285773   2290929   2295959   2300896   2305767  
  7010.000000   2310590   2315353   2320037   2324613   2329090  
  7000.000000   2333495   2337892   2342332   2346860   2351462  
  6990.000000   2356102   2360709   2365229   2369623   2373894  
  6980.000000   2378052   2382112   2386058   2389862   2393473  
  6970.000000   2396869   2400046   2403058   2405964   2408846  
  6960.000000   2411740   2414670   2417604   2420523   2423387  
  6950.000000   2426193   2428929   2431600   2434180   2436641  
  6940.000000   2438930   2441014   2442874   2444528   2446006  
  6930.000000   2447360   2448628   2449852   2451059   2452294  
  6920.000000   2453596   2455012   2456557   2458217   2459921  
  6910.000000   2461577   2463080   2464370   2465435   2466330  
  6900.000000   2467139   2467951   2468817   2469748   2470713  
  6890.000000   2471674   2472603   2473506   2474401   2475307  
  6880.000000   2476212   2477077   2477840   2478453   2478904  
  6870.000000   2479234   2479519   2479848   2480279   2480828  
  6860.000000   2481461   2482124   2482764   2483360   2483914  
  6850.000000   2484450   2484977   2485485   2485936   2486286  
  6840.000000   2486506   2486601   2486612   2486604   2486638  
  6830.000000   2486758   2486976   2487282   2487652   2488068  
  6820.000000   2488508   2488950   2489356   2489678   2489862  
  6810.000000   2489873   2489707   2489406   2489044   2488709  
  6800.000000   2488469   2488352   2488339   2488379   2488402  
  6790.000000   2488355   2488200   2487938   2487581   2487165  
  6780.000000   2486724   2486305   2485949   2485687   2485525  
  6770.000000   2485439   2485361   2485207   2484887   2484354  
  6760.000000   2483611   2482723   2481791   2480926   2480196  
  6750.000000   2479617   2479147   2478707   2478219   2477631  
  6740.000000   2476930   2476140   2475302   2474458   2473638  
  6730.000000   2472867   2472157   2471527   2470989   2470547  
  6720.000000   2470185   2469862   2469520   2469098   2468553  
  6710.000000   2467867   2467053   2466141   2465163   2464145  
  6700.000000   2463099   2462037   2460970   2459929   2458943  
  6690.000000   2458047   2457247   2456530   2455848   2455142  
  6680.000000   2454347   2453422   2452340   2451106   2449742  
  6670.000000   2448284   2446774   2445262   2443788   2442391  
  6660.000000   2441084   2439858   2438672   2437479   2436228  
  6650.000000   2434895   2433482   2432026   2430566   2429138  
  6640.000000   2427742   2426354   2424931   2423432   2421835  
  6630.000000   2420148   2418398   2416617   2414829   2413042  
  6620.000000   2411257   2409480   2407726   2406026   2404407  
  6610.000000   2402880   2401424   2399990   2398518   2396966  
  6600.000000   2395327   2393640   2391965   2390360   2388851  
  6590.000000   2387418   2386008   2384556   2383021   2381400  
  6580.000000   2379731   2378070   2376467   2374941   2373476  
  6570.000000   2372032   2370569   2369062   2367515   2365949  
  6560.000000   2364393   2362867   2361376   2359917   2358483  
  6550.000000   2357075   2355701   2354368   2353076   2351804  
  6540.000000   2350528   2349219   2347872   2346501   2345143  
  6530.000000   2343841   2342628   2341509   2340463   2339453  
  6520.000000   2338439   2337392   2336306   2335185   2334047  
  6510.000000   2332902   2331761   2330626   2329505   2328403  
  6500.000000   2327334   2326302   2325307   2324339   2323387  
  6490.000000   2322447   2321527   2320651   2319845   2319124  
  6480.000000   2318482   2317888   2317300   2316670   2315971  
  6470.000000   2315196   2314361   2313483   2312578   2311651  
  6460.000000   2310699   2309724   2308743   2307788   2306895  
  6450.000000   2306092   2305379   2304726   2304084   2303401  
  6440.000000   2302647   2301823   2300965   2300121   2299337  
  6430.000000   2298635   2298015   2297455   2296935   2296442  
  6420.000000   2295980   2295557   2295181   2294844   2294523  
  6410.000000   2294184   2293797   2293343   2292825   2292256  
  6400.000000   2291662   2291065   2290484   2289928   2289407  
  6390.000000   2288921   2288468   2288034   2287597   2287130  
  6380.000000   2286610   2286031   2285409   2284782   2284192  
  6370.000000   2283679   2283251   2282892   2282558   2282201  
  6360.000000   2281777   2281264   2280659   2279974   2279224  
  6350.000000   2278418   2277568   2276683   2275786   2274906  
  6340.000000   2274072   2273312   2272626   2272003   2271415  
  6330.000000   2270838   2270250   2269655   2269054   2268457  
  6320.000000   2267854   2267224   2266538   2265768   2264902  
  6310.000000   2263945   2262912   2261821   2260673   2259464  
  6300.000000   2258181   2256826   2255421   2254014   2252659  
  6290.000000   2251402   2250250   2249181   2248130   2247032  
  6280.000000   2245825   2244487   2243020   2241457   2239833  
  6270.000000   2238181   2236517   2234852   2233192   2231546  
  6260.000000   2229921   2228318   2226722   2225106   2223434  
  6250.000000   2221683   2219850   2217963   2216061   2214189  
  6240.000000   2212367   2210591   2208827   2207041   2205205  
  6230.000000   2203322   2201412   2199515   2197655   2195844  
  6220.000000   2194065   2192292   2190504   2188692   2186867  
  6210.000000   2185049   2183255   2181486   2179727   2177955  
  6200.000000   2176155   2174329   2172501   2170710   2168988  
  6190.000000   2167354   2165804   2164312   2162850   2161390  
  6180.000000   2159917   2158425   2156911   2155371   2153799  
  6170.000000   2152189   2150553   2148913   2147308   2145780  
  6160.000000   2144354   2143031   2141782   2140556   2139297  
  6150.000000   2137965   2136543   2135043   2133503   2131964  
  6140.000000   2130466   2129034   2127680   2126402   2125192  
  6130.000000   2124031   2122901   2121779   2120645   2119488  
  6120.000000   2118306   2117111   2115927   2114777   2113681  
  6110.000000   2112644   2111663   2110717   2109793   2108877  
  6100.000000   2107971   2107078   2106216   2105394   2104626  
  6090.000000   2103915   2103269   2102685   2102170   2101721  
  6080.000000   2101338   2101009   2100725   2100467   2100228  
  6070.000000   2099994   2099766   2099540   2099328   2099132  
  6060.000000   2098972   2098857   2098809   2098838   2098957  
  6050.000000   2099160   2099442   2099782   2100174   2100607  
  6040.000000   2101093   2101638   2102259   2102953   2103714  
  6030.000000   2104514   2105333   2106151   2106971   2107802  
  6020.000000   2108671   2109592   2110570   2111587   2112621  
  6010.000000   2113638   2114625   2115578   2116517   2117465  
  6000.000000   2118448   2119480   2120568   2121708   2122899  
  5990.000000   2124137   2125426   2126760   2128137   2129541  
  5980.000000   2130961   2132384   2133819   2135277   2136786  
  5970.000000   2138364   2140027   2141763   2143553   2145362  
  5960.000000   2147168   2148950   2150708   2152444   2154172  
  5950.000000   2155900   2157640   2159403   2161211   2163089  
  5940.000000   2165065   2167158   2169373   2171689   2174070  
  5930.000000   2176469   2178841   2181157   2183403   2185580  
  5920.000000   2187693   2189747   2191740   2193666   2195525  
  5910.000000   2197321   2199064   2200773   2202462   2204141  
  5900.000000   2205816   2207490   2209169   2210868   2212605  
  5890.000000   2214398   2216256   2218178   2220149   2222149  
  5880.000000   2224155   2226151   2228129   2230080   2231995  
  5870.000000   2233853   2235636   2237318   2238895   2240372  
  5860.000000   2241784   2243168   2244574   2246039   2247593  
  5850.000000   2249251   2251021   2252910   2254923   2257060  
  5840.000000   2259316   2261672   2264102   2266570   2269044  
  5830.000000   2271498   2273919   2276304   2278655   2280970  
  5820.000000   2283248   2285477   2287648   2289752   2291784  
  5810.000000   2293750   2295651   2297504   2299308   2301090  
  5800.000000   2302852   2304626   2306410   2308225   2310041  
  5790.000000   2311844   2313570   2315171   2316560   2317675  
  5780.000000   2318431   2318771   2318635   2318007   2316887  
  5770.000000   2315340   2313451   2311355   2309174   2307036  
  5760.000000   2305012   2303151   2301449   2299900   2298478  
  5750.000000   2297180   2296003   2294953   2294027   2293207  
  5740.000000   2292470   2291780   2291119   2290470   2289843  
  5730.000000   2289242   2288690   2288186   2287743   2287354  
  5720.000000   2287031   2286777   2286604   2286513   2286499  
  5710.000000   2286541   2286615   2286692   2286764   2286827  
  5700.000000   2286900   2286996   2287132   2287307   2287512  
  5690.000000   2287737   2287970   2288213   2288467   2288739  
  5680.000000   2289022   2289303   2289551   2289736   2289821  
  5670.000000   2289784   2289595   2289236   2288681   2287912  
  5660.000000   2286919   2285721   2284354   2282893   2281410  
  5650.000000   2279982   2278650   2277430   2276301   2275232  
  5640.000000   2274186   2273146   2272106   2271074   2270060  
  5630.000000   2269065   2268090   2267132   2266198   2265300  
  5620.000000   2264460   2263690   2262994   2262348   2261718  
  5610.000000   2261066   2260365   2259609   2258814   2258009  
  5600.000000   2257223   2256475   2255765   2255083   2254413  
  5590.000000   2253741   2253057   2252356   2251630   2250867  
  5580.000000   2250054   2249183   2248259   2247305   2246349  
  5570.000000   2245424   2244547   2243716   2242907   2242087  
  5560.000000   2241225   2240305   2239328   2238312   2237281  
  5550.000000   2236261   2235265   2234300   2233365   2232456  
  5540.000000   2231565   2230684   2229797   2228889   2227949  
  5530.000000   2226974   2225975   2224975   2224002   2223076  
  5520.000000   2222200   2221359   2220526   2219670   2218770  
  5510.000000   2217825   2216844   2215848   2214850   2213859  
  5500.000000   2212872   2211887   2210904   2209934   2208986  
  5490.000000   2208067   2207160   2206234   2205241   2204141  
  5480.000000   2202905   2201540   2200072   2198551   2197020  
  5470.000000   2195511   2194033   2192579   2191128   2189662  
  5460.000000   2188164   2186624   2185031   2183376   2181653  
  5450.000000   2179866   2178031   2176182   2174362   2172607  
  5440.000000   2170944   2169375   2167887   2166456   2165066  
  5430.000000   2163699   2162354   2161019   2159688   2158343  
  5420.000000   2156980   2155599   2154236   2152934   2151755  
  5410.000000   2150735   2149891   2149191   2148599   2148059  
  5400.000000   2147556   2147081   2146668   2146340   2146131  
  5390.000000   2146031   2146034   2146107   2146246   2146447  
  5380.000000   2146750   2147179   2147775   2148536   2149463  
  5370.000000   2150518   2151693   2152952   2154313   2155755  
  5360.000000   2157308   2158948   2160708   2162576   2164618  
  5350.000000   2166860   2169403   2172285   2175585   2179289  
  5340.000000   2183421   2187915   2192783   2197963   2203487  
  5330.000000   2209307   2215462   2221899   2228661   2235707  
  5320.000000   2243120   2250900   2259169   2267933   2277300  
  5310.000000   2287230   2297782   2308872   2320548   2332746  
  5300.000000   2345551   2358948   2373064   2387909   2403609  
  5290.000000   2420147   2437587   2455830   2474841   2494455  
  5280.000000   2514615   2535205   2556274   2577834   2600028  
  5270.000000   2622900   2646503   2670721   2695393   2720269  
  5260.000000   2745150   2769902   2794515   2819061   2843626  
  5250.000000   2868262   2892895   2917386   2941481   2965007  
  5240.000000   2987783   3009827   3031155   3051938   3072230  
  5230.000000   3092153   3111630   3130632   3148967   3166574  
  5220.000000   3183309   3199232   3214330   3228773   3242597  
  5210.000000   3255947   3268773   3281101   3292769   3303749  
  5200.000000   3313896   3323269   3331838   3339756   3347041  
  5190.000000   3353819   3360042   3365753   3370846   3375351  
  5180.000000   3379195   3382462   3385129   3387288   3388904  
  5170.000000   3390034   3390618   3390713   3390296   3389463  
  5160.000000   3388225   3386676   3384795   3382622   3380094  
  5150.000000   3377232   3373995   3370442   3366583   3362495  
  5140.000000   3358189   3353710   3349034   3344178   3339111  
  5130.000000   3333857   3328410   3322810   3317067   3311220  
  5120.000000   3305281   3299290   3293262   3287239   3281233  
  5110.000000   3275268   3269335   3263432   3257540   3251655  
  5100.000000   3245773   3239912   3234083   3228303   3222573  
  5090.000000   3216886   3211228   3205590   3199967   3194368  
  5080.000000   3188804   3183284   3177803   3172344   3166874  
  5070.000000   3161361   3155776   3150109   3144360   3138550  
  5060.000000   3132696   3126822   3120935   3115045   3109146  
  5050.000000   3103241   3097320   3091385   3085429   3079447  
  5040.000000   3073427   3067360   3061237   3055055   3048818  
  5030.000000   3042540   3036242   3029948   3023691   3017496  
  5020.000000   3011393   3005401   2999541   2993812   2988223  
  5010.000000   2982760   2977428   2972209   2967115   2962137  
  5000.000000   2957300   2952600   2948068   2943702   2939539  
  4990.000000   2935579   2931870   2928415   2925261   2922398  
  4980.000000   2919855   2917594   2915622   2913889   2912410  
  4970.000000   2911150   2910152   2909405   2908965   2908821  
  4960.000000   2909017   2909528   2910387   2911566   2913101  
  4950.000000   2914966   2917197   2919756   2922665   2925874  
  4940.000000   2929396   2933189   2937281   2941643   2946312  
  4930.000000   2951258   2956504   2962007   2967776   2973769  
  4920.000000   2980003   2986451   2993137   3000036   3007166  
  4910.000000   3014492   3022020   3029716   3037584   3045598  
  4900.000000   3053763   3062054   3070465   3078971   3087557  
  4890.000000   3096202   3104889   3113601   3122312   3130996  
  4880.000000   3139610   3148121   3156483   3164678   3172679  
  4870.000000   3180487   3188083   3195472   3202625   3209544  
  4860.000000   3216198   3222599   3228734   3234634   3240297  
  4850.000000   3245757   3251007   3256072   3260940   3265638  
  4840.000000   3270162   3274551   3278808   3282969   3287027  
  4830.000000   3291002   3294877   3298662   3302343   3305932  
  4820.000000   3309416   3312806   3316086   3319263   3322322  
  4810.000000   3325275   3328123   3330891   3333592   3336253  
  4800.000000   3338878   3341479   3344046   3346579   3349066  
  4790.000000   3351512   3353916   3356291   3358639   3360975  
  4780.000000   3363293   3365598   3367875   3370118   3372301  
  4770.000000   3374413   3376420   3378309   3380052   3381646  
  4760.000000   3383076   3384360   3385495   3386509   3387399  
  4750.000000   3388182   3388844   3389386   3389780   3390026  
  4740.000000   3390098   3390007   3389743   3389332   3388780  
  4730.000000   3388115   3387342   3386478   3385516   3384459  
  4720.000000   3383294   3382023   3380645   3379178   3377642  
  4710.000000   3376072   3374499   3372955   3371461   3370033  
  4700.000000   3368673   3367381   3366153   3364987   3363882  
  4690.000000   3362837   3361851   3360916   3360023   3359155  
  4680.000000   3358294   3357421   3356524   3355590   3354622  
  4670.000000   3353615   3352583   3351529   3350475   3349428  
  4660.000000   3348414   3347446   3346554   3345757   3345087  
  4650.000000   3344564   3344217   3344058   3344100   3344331  
  4640.000000   3344734   3345273   3345909   3346596   3347302  
  4630.000000   3347995   3348664   3349301   3349911   3350494  
  4620.000000   3351051   3351574   3352051   3352466   3352802  
  4610.000000   3353047   3353197   3353259   3353247   3353191  
  4600.000000   3353117   3353060   3353036   3353060   3353122  
  4590.000000   3353210   3353295   3353355   3353365   3353318  
  4580.000000   3353204   3353030   3352792   3352496   3352133  
  4570.000000   3351704   3351197   3350614   3349948   3349205  
  4560.000000   3348379   3347473   3346477   3345396   3344223  
  4550.000000   3342967   3341630   3340223   3338750   3337214  
  4540.000000   3335615   3333954   3332241   3330493   3328738  
  4530.000000   3327005   3325329   3323723   3322207   3320771  
  4520.000000   3319427   3318160   3316998   3315941   3315045  
  4510.000000   3314319   3313834   3313595   3313676   3314079  
  4500.000000   3314880   3316077   3317749   3319884   3322556  
  4490.000000   3325742   3329513   3333839   3338787   3344318  
  4480.000000   3350486   3357237   3364604   3372521   3381014  
  4470.000000   3390020   3399564   3409591   3420115   3431068  
  4460.000000   3442437   3454132   3466116   3478293   3490623  
  4450.000000   3503029   3515484   3527940   3540384   3552794  
  4440.000000   3565163   3577484   3589749   3601965   3614114  
  4430.000000   3626210   3638219   3650151   3661945   3673596  
  4420.000000   3685014   3696175   3706964   3717346   3727200  
  4410.000000   3736494   3745111   3753035   3760172   3766532  
  4400.000000   3772058   3776800   3780754   3784013   3786620  
  4390.000000   3788701   3790331   3791645   3792722   3793677  
  4380.000000   3794567   3795470   3796422   3797476   3798671  
  4370.000000   3800061   3801708   3803672   3806019   3808786  
  4360.000000   3812007   3815675   3819772   3824253   3829055  
  4350.000000   3834119   3839364   3844758   3850248   3855857  
  4340.000000   3861578   3867447   3873412   3879377   3885090  
  4330.000000   3890214   3894295   3896903   3897676   3896467  
  4320.000000   3893364   3888735   3883113   3877151   3871422  
  4310.000000   3866399   3862313   3859245   3857078   3855663  
  4300.000000   3854795   3854331   3854152   3854189   3854391  
  4290.000000   3854705   3855104   3855535   3856000   3856484  
  4280.000000   3857021   3857632   3858347   3859194   3860182  
  4270.000000   3861338   3862652   3864121   3865668   3867177  
  4260.000000   3868437   3869205   3869206   3868225   3866138  
  4250.000000   3862976   3858902   3854209   3849229   3844307  
  4240.000000   3839693   3835566   3831962   3828856   3826132  
  4230.000000   3823674   3821351   3819061   3816727   3814298  
  4220.000000   3811768   3809137   3806464   3803795   3801231  
  4210.000000   3798838   3796710   3794885   3793410   3792273  
  4200.000000   3791468   3790945   3790672   3790581   3790643  
  4190.000000   3790793   3791023   3791293   3791629   3792017  
  4180.000000   3792513   3793117   3793891   3794835   3796017  
  4170.000000   3797443   3799196   3801297   3803833   3806813  
  4160.000000   3810294   3814242   3818672   3823515   3828782  
  4150.000000   3834415   3840453   3846866   3853713   3860970  
  4140.000000   3868692   3876842   3885465   3894513   3904029  
  4130.000000   3913962   3924345   3935126   3946335   3957927  
  4120.000000   3969942   3982356   3995223   4008530   4022321  
  4110.000000   4036565   4051272   4066376   4081851   4097611  
  4100.000000   4113614   4129781   4146082   4162472   4178950  
  4090.000000   4195510   4212170   4228945   4245844   4262879  
  4080.000000   4280037   4297317   4314685   4332125   4349571  
  4070.000000   4366981   4384252   4401329   4418106   4434559  
  4060.000000   4450623   4466330   4481639   4496601   4511159  
  4050.000000   4525350   4539098   4552447   4565321   4577778  
  4040.000000   4589724   4601190   4612039   4622272   4631735  
  4030.000000   4640445   4648276   4655267   4661319   4666467  
  4020.000000   4670595   4673765   4675953   4677271   4677696  
  4010.000000   4677403   4676486   4674996   4672725   4669763  
  4000.000000   4666451  
##END= 
