##TITLE= Sample 004 By ssteindl date Montag, November 26 2018
##JCAMP-DX= 4.24
##DATA TYPE= INFRARED SPECTRUM
##ORIGIN= Exported PE Spectrum Data File
##OWNER= Sandra Steindl
##DATE= 18/11/26
##TIME= 11:25:03.00
##SPECTROMETER/DATA SYSTEM= PERKIN-ELMER Frontier FT-IR/NIR IR
##INSTRUMENT PARAMETERS=
  APODIZATION=stark
  DETECTOR=INGAAS
##RESOLUTION= 16.000000
##DELTAX= -2.000000
##XUNITS= 1/CM
##YUNITS= A
##XFACTOR= 1.00
##YFACTOR= 0.00000011920928955078
##FIRSTX= 10000.00
##LASTX= 4000.00
##NPOINTS= 3001
##FIRSTY= 0.275674
##MAXY= 0.611110
##MINY= 0.219274
##XYDATA= (X++(Y..Y))
 10000.000000   2312519   2308785   2304111   2297996   2291868  
  9990.000000   2287774   2286559   2287819   2291041   2295781  
  9980.000000   2301269   2306439   2310394   2312521   2312529  
  9970.000000   2310552   2307318   2303904   2301428   2300631  
  9960.000000   2301663   2303983   2306604   2308460   2308727  
  9950.000000   2307143   2303945   2299824   2295583   2291994  
  9940.000000   2289564   2288552   2288887   2290226   2291950  
  9930.000000   2293251   2293330   2291582   2287912   2282737  
  9920.000000   2276961   2271570   2267316   2264370   2262349  
  9910.000000   2260545   2258350   2255695   2253138   2251800  
  9900.000000   2252762   2256679   2263293   2271537   2279808  
  9890.000000   2286484   2290451   2291265   2289255   2285066  
  9880.000000   2279480   2272993   2265911   2258398   2250715  
  9870.000000   2243353   2236915   2232055   2229131   2228288  
  9860.000000   2229346   2232077   2236227   2241533   2247633  
  9850.000000   2253823   2259161   2262444   2262718   2259486  
  9840.000000   2253153   2244933   2236686   2230369   2227499  
  9830.000000   2228765   2233823   2241570   2250416   2258843  
  9820.000000   2265649   2270186   2272298   2272234   2270500  
  9810.000000   2267711   2264497   2261349   2258614   2256394  
  9800.000000   2254667   2253318   2252251   2251466   2250969  
  9790.000000   2250804   2250843   2250868   2250555   2249659  
  9780.000000   2248190   2246470   2245123   2244782   2245837  
  9770.000000   2248158   2251087   2253650   2254935   2254483  
  9760.000000   2252498   2249799   2247520   2246649   2247671  
  9750.000000   2250362   2253915   2257239   2259356   2259719  
  9740.000000   2258322   2255665   2252510   2249709   2247950  
  9730.000000   2247713   2249124   2251999   2255770   2259617  
  9720.000000   2262581   2263833   2262897   2259838   2255239  
  9710.000000   2250018   2245096   2241067   2238037   2235631  
  9700.000000   2233257   2230404   2226902   2223006   2219232  
  9690.000000   2216147   2214081   2213060   2212839   2213069  
  9680.000000   2213485   2213960   2214516   2215175   2215881  
  9670.000000   2216443   2216634   2216305   2215528   2214568  
  9660.000000   2213824   2213578   2213895   2214507   2214940  
  9650.000000   2214681   2213420   2211173   2208313   2205412  
  9640.000000   2203060   2201689   2201456   2202289   2203895  
  9630.000000   2205923   2208009   2209897   2211467   2212729  
  9620.000000   2213823   2214902   2216095   2217349   2218420  
  9610.000000   2218851   2218134   2215918   2212220   2207586  
  9600.000000   2202971   2199576   2198362   2199786   2203509  
  9590.000000   2208544   2213514   2217111   2218470   2217342  
  9580.000000   2214077   2209377   2204044   2198732   2193875  
  9570.000000   2189687   2186283   2183751   2182181   2181631  
  9560.000000   2182016   2183121   2184549   2185903   2186839  
  9550.000000   2187225   2187127   2186719   2186206   2185656  
  9540.000000   2185072   2184339   2183391   2182169   2180714  
  9530.000000   2179063   2177278   2175396   2173454   2171554  
  9520.000000   2169846   2168606   2168092   2168576   2170145  
  9510.000000   2172759   2176146   2179941   2183694   2186970  
  9500.000000   2189389   2190606   2190363   2188442   2184772  
  9490.000000   2179430   2172723   2165160   2157380   2150077  
  9480.000000   2143847   2139158   2136232   2135104   2135560  
  9470.000000   2137220   2139520   2141798   2143392   2143754  
  9460.000000   2142648   2140173   2136863   2133447   2130746  
  9450.000000   2129323   2129405   2130770   2132891   2135131  
  9440.000000   2136928   2138027   2138440   2138467   2138459  
  9430.000000   2138724   2139394   2140380   2141478   2142335  
  9420.000000   2142652   2142091   2140426   2137468   2133188  
  9410.000000   2127772   2121678   2115677   2110688   2107678  
  9400.000000   2107349   2110042   2115516   2123044   2131457  
  9390.000000   2139452   2145852   2149852   2151184   2150029  
  9380.000000   2146963   2142672   2137852   2133014   2128502  
  9370.000000   2124504   2121130   2118511   2116727   2115874  
  9360.000000   2115868   2116546   2117530   2118415   2118787  
  9350.000000   2118381   2117142   2115198   2112830   2110297  
  9340.000000   2107818   2105446   2103180   2100943   2098732  
  9330.000000   2096578   2094588   2092857   2091430   2090276  
  9320.000000   2089315   2088502   2087903   2087721   2088259  
  9310.000000   2089779   2092361   2095836   2099765   2103569  
  9300.000000   2106655   2108620   2109365   2109112   2108310  
  9290.000000   2107436   2106830   2106560   2106420   2105984  
  9280.000000   2104762   2102379   2098739   2094086   2088941  
  9270.000000   2083984   2079830   2076929   2075403   2075092  
  9260.000000   2075592   2076442   2077280   2077936   2078443  
  9250.000000   2078929   2079511   2080160   2080688   2080784  
  9240.000000   2080192   2078788   2076739   2074427   2072403  
  9230.000000   2071132   2070833   2071390   2072391   2073302  
  9220.000000   2073630   2073120   2071834   2070135   2068579  
  9210.000000   2067704   2067867   2069132   2071240   2073690  
  9200.000000   2075855   2077206   2077463   2076695   2075301  
  9190.000000   2073908   2073184   2073561   2075052   2077174  
  9180.000000   2079126   2080014   2079191   2076474   2072263  
  9170.000000   2067446   2063095   2060152   2059089   2059860  
  9160.000000   2061947   2064621   2067168   2069129   2070358  
  9150.000000   2070974   2071176   2071114   2070811   2070169  
  9140.000000   2069100   2067550   2065647   2063558   2061498  
  9130.000000   2059571   2057769   2056009   2054179   2052305  
  9120.000000   2050552   2049289   2048937   2049859   2052184  
  9110.000000   2055747   2060084   2064500   2068224   2070581  
  9100.000000   2071207   2070072   2067520   2064153   2060710  
  9090.000000   2057853   2055984   2055195   2055276   2055853  
  9080.000000   2056475   2056823   2056737   2056277   2055571  
  9070.000000   2054762   2053910   2052983   2051913   2050616  
  9060.000000   2049099   2047429   2045742   2044151   2042708  
  9050.000000   2041405   2040216   2039164   2038340   2037885  
  9040.000000   2037928   2038498   2039479   2040609   2041577  
  9030.000000   2042121   2042141   2041714   2041065   2040448  
  9020.000000   2040044   2039890   2039899   2039925   2039849  
  9010.000000   2039640   2039343   2039045   2038791   2038557  
  9000.000000   2038243   2037740   2036985   2036001   2034892  
  8990.000000   2033785   2032783   2031916   2031147   2030424  
  8980.000000   2029723   2029087   2028593   2028326   2028317  
  8970.000000   2028531   2028872   2029235   2029543   2029775  
  8960.000000   2029940   2030039   2030027   2029806   2029274  
  8950.000000   2028383   2027213   2025957   2024862   2024123  
  8940.000000   2023793   2023748   2023716   2023416   2022660  
  8930.000000   2021474   2020073   2018805   2018004   2017875  
  8920.000000   2018409   2019392   2020475   2021278   2021491  
  8910.000000   2020936   2019613   2017655   2015329   2012947  
  8900.000000   2010851   2009279   2008346   2007965   2007911  
  8890.000000   2007865   2007559   2006890   2005988   2005208  
  8880.000000   2004985   2005707   2007527   2010332   2013748  
  8870.000000   2017295   2020526   2023144   2025043   2026238  
  8860.000000   2026802   2026737   2025977   2024416   2022024  
  8850.000000   2018905   2015323   2011664   2008344   2005709  
  8840.000000   2003940   2003068   2002985   2003515   2004424  
  8830.000000   2005468   2006405   2007027   2007213   2006964  
  8820.000000   2006455   2005990   2005943   2006614   2008137  
  8810.000000   2010395   2013064   2015707   2017926   2019473  
  8800.000000   2020282   2020432   2020060   2019285   2018186  
  8790.000000   2016805   2015209   2013524   2011929   2010610  
  8780.000000   2009659   2009052   2008638   2008248   2007776  
  8770.000000   2007269   2006903   2006900   2007393   2008315  
  8760.000000   2009403   2010261   2010560   2010150   2009175  
  8750.000000   2007981   2007000   2006542   2006699   2007309  
  8740.000000   2008071   2008689   2009024   2009137   2009236  
  8730.000000   2009557   2010224   2011198   2012304   2013336  
  8720.000000   2014171   2014818   2015417   2016119   2017012  
  8710.000000   2018030   2018985   2019642   2019834   2019558  
  8700.000000   2018986   2018407   2018109   2018286   2018959  
  8690.000000   2020016   2021256   2022495   2023616   2024582  
  8680.000000   2025397   2026053   2026496   2026637   2026395  
  8670.000000   2025760   2024821   2023772   2022862   2022338  
  8660.000000   2022343   2022902   2023878   2025049   2026147  
  8650.000000   2026944   2027294   2027158   2026608   2025775  
  8640.000000   2024821   2023861   2022956   2022081   2021178  
  8630.000000   2020178   2019083   2017965   2016987   2016347  
  8620.000000   2016227   2016715   2017774   2019241   2020887  
  8610.000000   2022482   2023885   2025079   2026174   2027344  
  8600.000000   2028772   2030558   2032701   2035072   2037457  
  8590.000000   2039602   2041275   2042316   2042672   2042419  
  8580.000000   2041751   2040948   2040311   2040087   2040391  
  8570.000000   2041169   2042194   2043149   2043710   2043697  
  8560.000000   2043110   2042188   2041294   2040827   2041053  
  8550.000000   2042030   2043573   2045317   2046842   2047799  
  8540.000000   2048026   2047546   2046543   2045259   2043929  
  8530.000000   2042717   2041712   2040948   2040456   2040280  
  8520.000000   2040462   2041034   2041967   2043184   2044539  
  8510.000000   2045890   2047127   2048208   2049167   2050060  
  8500.000000   2050948   2051813   2052580   2053099   2053231  
  8490.000000   2052878   2052063   2050914   2049659   2048560  
  8480.000000   2047858   2047703   2048124   2049035   2050270  
  8470.000000   2051636   2052970   2054178   2055256   2056271  
  8460.000000   2057327   2058520   2059902   2061453   2063090  
  8450.000000   2064695   2066156   2067402   2068409   2069199  
  8440.000000   2069810   2070273   2070581   2070693   2070556  
  8430.000000   2070135   2069452   2068583   2067644   2066757  
  8420.000000   2066008   2065443   2065045   2064793   2064674  
  8410.000000   2064737   2065070   2065794   2066975   2068603  
  8400.000000   2070532   2072520   2074261   2075483   2076022  
  8390.000000   2075870   2075180   2074201   2073214   2072419  
  8380.000000   2071884   2071532   2071176   2070608   2069669  
  8370.000000   2068342   2066759   2065183   2063915   2063200  
  8360.000000   2063147   2063666   2064497   2065275   2065664  
  8350.000000   2065456   2064641   2063414   2062111   2061127  
  8340.000000   2060788   2061269   2062542   2064403   2066531  
  8330.000000   2068565   2070162   2071064   2071125   2070339  
  8320.000000   2068815   2066771   2064493   2062309   2060517  
  8310.000000   2059321   2058769   2058744   2058995   2059207  
  8300.000000   2059073   2058389   2057104   2055325   2053274  
  8290.000000   2051216   2049387   2047954   2047001   2046550  
  8280.000000   2046572   2047012   2047783   2048774   2049835  
  8270.000000   2050788   2051439   2051621   2051237   2050281  
  8260.000000   2048865   2047167   2045419   2043827   2042546  
  8250.000000   2041631   2041013   2040540   2040005   2039242  
  8240.000000   2038165   2036830   2035410   2034166   2033345  
  8230.000000   2033096   2033384   2033979   2034520   2034628  
  8220.000000   2034048   2032729   2030847   2028747   2026815  
  8210.000000   2025356   2024486   2024124   2024050   2024005  
  8200.000000   2023790   2023322   2022615   2021745   2020771  
  8190.000000   2019714   2018544   2017240   2015823   2014385  
  8180.000000   2013059   2011970   2011162   2010584   2010074  
  8170.000000   2009452   2008559   2007344   2005857   2004225  
  8160.000000   2002587   2001021   1999540   1998072   1996532  
  8150.000000   1994833   1992949   1990887   1988702   1986463  
  8140.000000   1984269   1982248   1980566   1979410   1978935  
  8130.000000   1979208   1980144   1981506   1982946   1984099  
  8120.000000   1984704   1984675   1984125   1983288   1982418  
  8110.000000   1981662   1981014   1980325   1979401   1978099  
  8100.000000   1976409   1974473   1972512   1970744   1969271  
  8090.000000   1968066   1966982   1965856   1964581   1963166  
  8080.000000   1961712   1960348   1959159   1958138   1957195  
  8070.000000   1956218   1955146   1954003   1952912   1952014  
  8060.000000   1951410   1951084   1950908   1950684   1950244  
  8050.000000   1949520   1948591   1947633   1946848   1946358  
  8040.000000   1946155   1946107   1946025   1945763   1945292  
  8030.000000   1944728   1944271   1944118   1944352   1944898  
  8020.000000   1945528   1945953   1945925   1945328   1944213  
  8010.000000   1942758   1941188   1939686   1938331   1937105  
  8000.000000   1935936   1934769   1933613   1932553   1931701  
  7990.000000   1931140   1930853   1930721   1930539   1930107  
  7980.000000   1929298   1928117   1926704   1925273   1924049  
  7970.000000   1923163   1922640   1922379   1922231   1922033  
  7960.000000   1921681   1921140   1920436   1919639   1918827  
  7950.000000   1918086   1917497   1917150   1917118   1917446  
  7940.000000   1918107   1918986   1919889   1920572   1920823  
  7930.000000   1920510   1919645   1918357   1916859   1915359  
  7920.000000   1914007   1912856   1911878   1911023   1910262  
  7910.000000   1909632   1909214   1909095   1909302   1909773  
  7900.000000   1910359   1910864   1911125   1911052   1910673  
  7890.000000   1910097   1909476   1908942   1908569   1908376  
  7880.000000   1908340   1908445   1908687   1909091   1909665  
  7870.000000   1910381   1911139   1911787   1912141   1912055  
  7860.000000   1911456   1910376   1908941   1907329   1905724  
  7850.000000   1904271   1903045   1902049   1901230   1900498  
  7840.000000   1899762   1898946   1898011   1896968   1895872  
  7830.000000   1894818   1893916   1893268   1892941   1892948  
  7820.000000   1893247   1893747   1894336   1894895   1895326  
  7810.000000   1895555   1895536   1895257   1894733   1894016  
  7800.000000   1893185   1892345   1891596   1891015   1890621  
  7790.000000   1890376   1890186   1889937   1889525   1888890  
  7780.000000   1888023   1886965   1885777   1884528   1883275  
  7770.000000   1882067   1880955   1879997   1879247   1878744  
  7760.000000   1878475   1878370   1878303   1878128   1877727  
  7750.000000   1877055   1876158   1875161   1874221   1873468  
  7740.000000   1872962   1872671   1872497   1872309   1871996  
  7730.000000   1871499   1870813   1869979   1869045   1868061  
  7720.000000   1867059   1866071   1865134   1864304   1863636  
  7710.000000   1863170   1862904   1862785   1862717   1862583  
  7700.000000   1862283   1861753   1860990   1860033   1858959  
  7690.000000   1857848   1856777   1855808   1854994   1854376  
  7680.000000   1853983   1853827   1853887   1854111   1854419  
  7670.000000   1854718   1854928   1854986   1854870   1854575  
  7660.000000   1854121   1853525   1852810   1852006   1851155  
  7650.000000   1850329   1849607   1849073   1848774   1848714  
  7640.000000   1848831   1849015   1849137   1849077   1848763  
  7630.000000   1848173   1847347   1846347   1845251   1844117  
  7620.000000   1842997   1841931   1840970   1840179   1839634  
  7610.000000   1839406   1839528   1839980   1840676   1841478  
  7600.000000   1842230   1842792   1843083   1843083   1842844  
  7590.000000   1842451   1842004   1841577   1841212   1840912  
  7580.000000   1840666   1840465   1840315   1840246   1840292  
  7570.000000   1840480   1840806   1841227   1841670   1842040  
  7560.000000   1842260   1842277   1842086   1841721   1841253  
  7550.000000   1840773   1840367   1840110   1840048   1840197  
  7540.000000   1840542   1841040   1841627   1842223   1842747  
  7530.000000   1843124   1843310   1843284   1843076   1842733  
  7520.000000   1842337   1841967   1841700   1841593   1841684  
  7510.000000   1841983   1842491   1843195   1844079   1845117  
  7500.000000   1846271   1847475   1848652   1849700   1850541  
  7490.000000   1851111   1851417   1851515   1851539   1851641  
  7480.000000   1851976   1852639   1853652   1854954   1856430  
  7470.000000   1857951   1859414   1860774   1862053   1863307  
  7460.000000   1864603   1865969   1867392   1868806   1870138  
  7450.000000   1871321   1872340   1873218   1874024   1874832  
  7440.000000   1875703   1876671   1877731   1878866   1880051  
  7430.000000   1881276   1882543   1883864   1885246   1886688  
  7420.000000   1888177   1889685   1891185   1892650   1894064  
  7410.000000   1895417   1896712   1897959   1899184   1900419  
  7400.000000   1901697   1903042   1904456   1905919   1907386  
  7390.000000   1908812   1910168   1911459   1912727   1914034  
  7380.000000   1915436   1916951   1918547   1920140   1921633  
  7370.000000   1922943   1924040   1924951   1925755   1926548  
  7360.000000   1927413   1928396   1929505   1930725   1932039  
  7350.000000   1933449   1934970   1936622   1938399   1940260  
  7340.000000   1942131   1943920   1945552   1946988   1948238  
  7330.000000   1949345   1950369   1951364   1952368   1953402  
  7320.000000   1954481   1955630   1956872   1958240   1959730  
  7310.000000   1961310   1962897   1964391   1965688   1966729  
  7300.000000   1967511   1968092   1968565   1969017   1969507  
  7290.000000   1970035   1970556   1971000   1971306   1971454  
  7280.000000   1971467   1971421   1971411   1971535   1971857  
  7270.000000   1972411   1973186   1974140   1975214   1976340  
  7260.000000   1977457   1978506   1979446   1980239   1980875  
  7250.000000   1981356   1981722   1982021   1982332   1982720  
  7240.000000   1983254   1983959   1984841   1985870   1987013  
  7230.000000   1988236   1989532   1990913   1992415   1994066  
  7220.000000   1995891   1997872   1999983   2002159   2004356  
  7210.000000   2006525   2008659   2010764   2012874   2015016  
  7200.000000   2017222   2019506   2021888   2024377   2026995  
  7190.000000   2029743   2032618   2035571   2038537   2041420  
  7180.000000   2044146   2046672   2049029   2051300   2053626  
  7170.000000   2056135   2058939   2062059   2065461   2069035  
  7160.000000   2072668   2076244   2079713   2083060   2086336  
  7150.000000   2089596   2092926   2096384   2100041   2103930  
  7140.000000   2108095   2112533   2117243   2122179   2127289  
  7130.000000   2132488   2137713   2142894   2148013   2153063  
  7120.000000   2158096   2163153   2168310   2173590   2179011  
  7110.000000   2184526   2190082   2195595   2201018   2206326  
  7100.000000   2211572   2216845   2222281   2227992   2234055  
  7090.000000   2240461   2247135   2253934   2260719   2267369  
  7080.000000   2273841   2280146   2286357   2292550   2298797  
  7070.000000   2305119   2311513   2317952   2324425   2330939  
  7060.000000   2337527   2344221   2351040   2357965   2364939  
  7050.000000   2371879   2378705   2385357   2391811   2398078  
  7040.000000   2404193   2410199   2416142   2422062   2427998  
  7030.000000   2433988   2440061   2446238   2452509   2458858  
  7020.000000   2465235   2471601   2477909   2484138   2490261  
  7010.000000   2496267   2502127   2507822   2513327   2518641  
  7000.000000   2523776   2528776   2533679   2538528   2543326  
  6990.000000   2548068   2552719   2557264   2561689   2566019  
  6980.000000   2570266   2574457   2578575   2582606   2586509  
  6970.000000   2590278   2593921   2597495   2601046   2604621  
  6960.000000   2608204   2611750   2615171   2618403   2621409  
  6950.000000   2624228   2626931   2629614   2632331   2635097  
  6940.000000   2637858   2640549   2643099   2645491   2647742  
  6930.000000   2649915   2652055   2654189   2656288   2658298  
  6920.000000   2660147   2661797   2663236   2664502   2665642  
  6910.000000   2666716   2667757   2668795   2669844   2670931  
  6900.000000   2672080   2673321   2674654   2676058   2677466  
  6890.000000   2678801   2679981   2680964   2681747   2682379  
  6880.000000   2682933   2683489   2684111   2684834   2685661  
  6870.000000   2686577   2687550   2688547   2689533   2690483  
  6860.000000   2691374   2692200   2692964   2693690   2694406  
  6850.000000   2695143   2695920   2696739   2697587   2698437  
  6840.000000   2699257   2700020   2700699   2701279   2701746  
  6830.000000   2702102   2702362   2702566   2702765   2703023  
  6820.000000   2703388   2703883   2704487   2705146   2705785  
  6810.000000   2706337   2706758   2707044   2707214   2707309  
  6800.000000   2707362   2707396   2707418   2707433   2707443  
  6790.000000   2707466   2707509   2707582   2707663   2707725  
  6780.000000   2707727   2707652   2707500   2707310   2707126  
  6770.000000   2706986   2706893   2706811   2706672   2706408  
  6760.000000   2705976   2705376   2704656   2703890   2703154  
  6750.000000   2702500   2701947   2701489   2701106   2700782  
  6740.000000   2700507   2700282   2700103   2699956   2699815  
  6730.000000   2699651   2699438   2699163   2698822   2698422  
  6720.000000   2697964   2697445   2696856   2696198   2695479  
  6710.000000   2694729   2693977   2693253   2692560   2691880  
  6700.000000   2691173   2690404   2689543   2688597   2687583  
  6690.000000   2686538   2685479   2684413   2683319   2682180  
  6680.000000   2680978   2679724   2678445   2677186   2675979  
  6670.000000   2674842   2673762   2672709   2671644   2670529  
  6660.000000   2669337   2668055   2666673   2665193   2663625  
  6650.000000   2661995   2660346   2658738   2657226   2655855  
  6640.000000   2654627   2653510   2652431   2651312   2650077  
  6630.000000   2648688   2647142   2645472   2643730   2641969  
  6620.000000   2640231   2638539   2636897   2635299   2633723  
  6610.000000   2632151   2630556   2628924   2627248   2625543  
  6600.000000   2623836   2622169   2620571   2619052   2617592  
  6590.000000   2616142   2614640   2613035   2611307   2609471  
  6580.000000   2607580   2605699   2603890   2602191   2600610  
  6570.000000   2599126   2597703   2596297   2594871   2593398  
  6560.000000   2591865   2590277   2588652   2587028   2585451  
  6550.000000   2583964   2582595   2581342   2580172   2579031  
  6540.000000   2577861   2576624   2575315   2573962   2572613  
  6530.000000   2571315   2570094   2568950   2567858   2566785  
  6520.000000   2565706   2564610   2563499   2562378   2561250  
  6510.000000   2560103   2558926   2557711   2556467   2555219  
  6500.000000   2554001   2552842   2551751   2550720   2549724  
  6490.000000   2548744   2547774   2546831   2545940   2545120  
  6480.000000   2544364   2543631   2542859   2541981   2540953  
  6470.000000   2539769   2538469   2537117   2535788   2534543  
  6460.000000   2533413   2532404   2531503   2530683   2529920  
  6450.000000   2529183   2528448   2527683   2526866   2525980  
  6440.000000   2525033   2524047   2523064   2522125   2521265  
  6430.000000   2520500   2519828   2519232   2518695   2518197  
  6420.000000   2517727   2517270   2516810   2516324   2515796  
  6410.000000   2515216   2514598   2513970   2513376   2512852  
  6400.000000   2512416   2512056   2511735   2511404   2511024  
  6390.000000   2510575   2510071   2509550   2509059   2508641  
  6380.000000   2508317   2508086   2507918   2507769   2507587  
  6370.000000   2507330   2506966   2506489   2505913   2505275  
  6360.000000   2504619   2503992   2503423   2502917   2502454  
  6350.000000   2501992   2501488   2500910   2500247   2499517  
  6340.000000   2498754   2497999   2497284   2496631   2496039  
  6330.000000   2495503   2495005   2494528   2494048   2493537  
  6320.000000   2492957   2492276   2491461   2490503   2489409  
  6310.000000   2488214   2486958   2485691   2484445   2483246  
  6300.000000   2482095   2480994   2479930   2478891   2477848  
  6290.000000   2476775   2475628   2474378   2472999   2471499  
  6280.000000   2469904   2468267   2466637   2465057   2463535  
  6270.000000   2462062   2460597   2459107   2457552   2455915  
  6260.000000   2454184   2452361   2450446   2448448   2446382  
  6250.000000   2444277   2442167   2440096   2438084   2436140  
  6240.000000   2434235   2432332   2430385   2428373   2426296  
  6230.000000   2424187   2422082   2420013   2417989   2415996  
  6220.000000   2414003   2411981   2409921   2407830   2405734  
  6210.000000   2403662   2401633   2399649   2397703   2395786  
  6200.000000   2393896   2392044   2390244   2388505   2386827  
  6190.000000   2385191   2383576   2381959   2380331   2378691  
  6180.000000   2377049   2375405   2373752   2372070   2370341  
  6170.000000   2368558   2366735   2364906   2363114   2361398  
  6160.000000   2359775   2358244   2356787   2355387   2354031  
  6150.000000   2352721   2351459   2350240   2349041   2347822  
  6140.000000   2346540   2345162   2343690   2342155   2340614  
  6130.000000   2339127   2337738   2336456   2335267   2334133  
  6120.000000   2333023   2331915   2330813   2329725   2328667  
  6110.000000   2327639   2326638   2325650   2324672   2323705  
  6100.000000   2322773   2321898   2321103   2320395   2319767  
  6090.000000   2319194   2318653   2318119   2317583   2317037  
  6080.000000   2316494   2315958   2315448   2314974   2314559  
  6070.000000   2314218   2313971   2313822   2313777   2313822  
  6060.000000   2313953   2314153   2314427   2314773   2315206  
  6050.000000   2315721   2316319   2316977   2317682   2318412  
  6040.000000   2319172   2319967   2320830   2321784   2322857  
  6030.000000   2324052   2325364   2326767   2328237   2329738  
  6020.000000   2331248   2332740   2334206   2335632   2337027  
  6010.000000   2338395   2339757   2341122   2342507   2343908  
  6000.000000   2345324   2346742   2348162   2349588   2351041  
  5990.000000   2352543   2354118   2355770   2357495   2359267  
  5980.000000   2361072   2362892   2364736   2366617   2368562  
  5970.000000   2370577   2372666   2374808   2376989   2379193  
  5960.000000   2381429   2383710   2386063   2388491   2390989  
  5950.000000   2393521   2396051   2398541   2400985   2403399  
  5940.000000   2405829   2408321   2410918   2413634   2416460  
  5930.000000   2419368   2422320   2425278   2428210   2431085  
  5920.000000   2433874   2436549   2439088   2441480   2443736  
  5910.000000   2445882   2447958   2450002   2452039   2454082  
  5900.000000   2456127   2458173   2460222   2462292   2464398  
  5890.000000   2466562   2468784   2471051   2473337   2475612  
  5880.000000   2477858   2480069   2482250   2484407   2486540  
  5870.000000   2488633   2490667   2492624   2494503   2496324  
  5860.000000   2498125   2499944   2501813   2503742   2505729  
  5850.000000   2507761   2509834   2511958   2514153   2516439  
  5840.000000   2518828   2521306   2523844   2526399   2528940  
  5830.000000   2531448   2533928   2536395   2538866   2541347  
  5820.000000   2543828   2546289   2548708   2551071   2553367  
  5810.000000   2555604   2557777   2559894   2561939   2563921  
  5800.000000   2565831   2567701   2569537   2571370   2573183  
  5790.000000   2574963   2576638   2578154   2579416   2580369  
  5780.000000   2580942   2581107   2580822   2580089   2578905  
  5770.000000   2577317   2575386   2573222   2570928   2568624  
  5760.000000   2566386   2564273   2562293   2560452   2558735  
  5750.000000   2557148   2555698   2554399   2553253   2552247  
  5740.000000   2551352   2550530   2549759   2549017   2548316  
  5730.000000   2547659   2547060   2546510   2546000   2545505  
  5720.000000   2545021   2544548   2544112   2543737   2543452  
  5710.000000   2543257   2543144   2543082   2543043   2543004  
  5700.000000   2542962   2542923   2542903   2542916   2542970  
  5690.000000   2543070   2543211   2543397   2543618   2543867  
  5680.000000   2544116   2544333   2544469   2544486   2544343  
  5670.000000   2544025   2543519   2542824   2541935   2540848  
  5660.000000   2539556   2538073   2536426   2534677   2532893  
  5650.000000   2531153   2529512   2528003   2526622   2525348  
  5640.000000   2524144   2522984   2521842   2520705   2519566  
  5630.000000   2518419   2517265   2516113   2514984   2513908  
  5620.000000   2512918   2512032   2511249   2510536   2509848  
  5610.000000   2509135   2508364   2507525   2506639   2505740  
  5600.000000   2504863   2504029   2503239   2502479   2501728  
  5590.000000   2500970   2500197   2499412   2498613   2497803  
  5580.000000   2496973   2496119   2495238   2494335   2493421  
  5570.000000   2492503   2491579   2490635   2489652   2488610  
  5560.000000   2487505   2486355   2485190   2484053   2482975  
  5550.000000   2481974   2481044   2480164   2479307   2478449  
  5540.000000   2477575   2476676   2475750   2474794   2473806  
  5530.000000   2472790   2471755   2470718   2469700   2468716  
  5520.000000   2467769   2466849   2465932   2464996   2464023  
  5510.000000   2463012   2461966   2460897   2459806   2458693  
  5500.000000   2457547   2456370   2455165   2453959   2452775  
  5490.000000   2451633   2450528   2449435   2448307   2447101  
  5480.000000   2445787   2444367   2442862   2441316   2439762  
  5470.000000   2438224   2436693   2435152   2433571   2431935  
  5460.000000   2430234   2428478   2426675   2424838   2422970  
  5450.000000   2421078   2419168   2417251   2415340   2413449  
  5440.000000   2411582   2409738   2407919   2406126   2404377  
  5430.000000   2402690   2401082   2399548   2398071   2396606  
  5420.000000   2395122   2393592   2392040   2390509   2389079  
  5410.000000   2387809   2386744   2385870   2385158   2384549  
  5400.000000   2384013   2383522   2383093   2382728   2382452  
  5390.000000   2382257   2382150   2382117   2382189   2382392  
  5380.000000   2382791   2383415   2384298   2385400   2386683  
  5370.000000   2388059   2389488   2390915   2392364   2393838  
  5360.000000   2395403   2397076   2398927   2400967   2403275  
  5350.000000   2405871   2408842   2412199   2415998   2420197  
  5340.000000   2424809   2429760   2435074   2440702   2446702  
  5330.000000   2453042   2459783   2466873   2474360   2482189  
  5320.000000   2490441   2499104   2508307   2518062   2528500  
  5310.000000   2539594   2551422   2563904   2577086   2590884  
  5300.000000   2605368   2620494   2636374   2653003   2670509  
  5290.000000   2688875   2708180   2728330   2749300   2770919  
  5280.000000   2793129   2815804   2838986   2862683   2887040  
  5270.000000   2912102   2937918   2964372   2991291   3018416  
  5260.000000   3045533   3072504   3099309   3126025   3152730  
  5250.000000   3179481   3206189   3232712   3258775   3284196  
  5240.000000   3308772   3332516   3355425   3377675   3399319  
  5230.000000   3420498   3441149   3461277   3480705   3499391  
  5220.000000   3517189   3534157   3550266   3565683   3580438  
  5210.000000   3594691   3608403   3621619   3634179   3646054  
  5200.000000   3657081   3667301   3676664   3685318   3693278  
  5190.000000   3700686   3707504   3713794   3719455   3724520  
  5180.000000   3728911   3732707   3735879   3738524   3740608  
  5170.000000   3742197   3743236   3743785   3743815   3743416  
  5160.000000   3742586   3741414   3739878   3738025   3735803  
  5150.000000   3733247   3730326   3727101   3723569   3719796  
  5140.000000   3715770   3711525   3707032   3702320   3697378  
  5130.000000   3692260   3686986   3681618   3676172   3670687  
  5120.000000   3665156   3659595   3653989   3648350   3642661  
  5110.000000   3636922   3631114   3625231   3619266   3613238  
  5100.000000   3607176   3601127   3595131   3589221   3583402  
  5090.000000   3577663   3571977   3566322   3560681   3555058  
  5080.000000   3549463   3543910   3538400   3532924   3527455  
  5070.000000   3521966   3516428   3510830   3505164   3499440  
  5060.000000   3493659   3487832   3481957   3476038   3470073  
  5050.000000   3464069   3458028   3451955   3445845   3439695  
  5040.000000   3433491   3427232   3420918   3414567   3408202  
  5030.000000   3401852   3395541   3389283   3383082   3376931  
  5020.000000   3370828   3364766   3358758   3352811   3346952  
  5010.000000   3341188   3335539   3329996   3324569   3319238  
  5000.000000   3314019   3308902   3303926   3299101   3294483  
  4990.000000   3290089   3285974   3282138   3278617   3275386  
  4980.000000   3272460   3269797   3267413   3265273   3263414  
  4970.000000   3261822   3260558   3259613   3259040   3258814  
  4960.000000   3258966   3259448   3260287   3261439   3262944  
  4950.000000   3264775   3266979   3269526   3272450   3275706  
  4940.000000   3279314   3283226   3287472   3292015   3296897  
  4930.000000   3302088   3307622   3313461   3319628   3326081  
  4920.000000   3332840   3339870   3347195   3354782   3362646  
  4910.000000   3370750   3379099   3387653   3396413   3405349  
  4900.000000   3414461   3423726   3433137   3442669   3452303  
  4890.000000   3462007   3471746   3481485   3491179   3500794  
  4880.000000   3510282   3519621   3528767   3537706   3546394  
  4870.000000   3554818   3562929   3570715   3578136   3585202  
  4860.000000   3591897   3598259   3604289   3610033   3615484  
  4850.000000   3620679   3625602   3630289   3634737   3638997  
  4840.000000   3643083   3647049   3650904   3654686   3658386  
  4830.000000   3662025   3665587   3669086   3672505   3675852  
  4820.000000   3679103   3682256   3685290   3688210   3691016  
  4810.000000   3693736   3696391   3699015   3701622   3704225  
  4800.000000   3706813   3709382   3711916   3714416   3716877  
  4790.000000   3719314   3721727   3724129   3726518   3728900  
  4780.000000   3731272   3733641   3735999   3738347   3740663  
  4770.000000   3742932   3745119   3747206   3749167   3751006  
  4760.000000   3752720   3754330   3755836   3757251   3758558  
  4750.000000   3759749   3760792   3761681   3762392   3762937  
  4740.000000   3763312   3763543   3763637   3763621   3763502  
  4730.000000   3763300   3763012   3762647   3762195   3761659  
  4720.000000   3761032   3760324   3759543   3758712   3757851  
  4710.000000   3756983   3756125   3755286   3754471   3753681  
  4700.000000   3752918   3752188   3751498   3750861   3750288  
  4690.000000   3749791   3749378   3749053   3748820   3748672  
  4680.000000   3748602   3748585   3748597   3748596   3748554  
  4670.000000   3748435   3748232   3747943   3747597   3747218  
  4660.000000   3746853   3746530   3746291   3746156   3746157  
  4650.000000   3746308   3746632   3747133   3747812   3748651  
  4640.000000   3749628   3750707   3751862   3753065   3754305  
  4630.000000   3755571   3756859   3758158   3759454   3760725  
  4620.000000   3761942   3763079   3764109   3765012   3765767  
  4610.000000   3766366   3766801   3767081   3767221   3767258  
  4600.000000   3767227   3767178   3767138   3767137   3767170  
  4590.000000   3767236   3767305   3767366   3767390   3767372  
  4580.000000   3767286   3767125   3766858   3766470   3765936  
  4570.000000   3765255   3764424   3763468   3762400   3761248  
  4560.000000   3760012   3758697   3757286   3755776   3754157  
  4550.000000   3752442   3750636   3748759   3746819   3744824  
  4540.000000   3742774   3740675   3738540   3736392   3734263  
  4530.000000   3732179   3730169   3728237   3726392   3724617  
  4520.000000   3722927   3721309   3719804   3718410   3717182  
  4510.000000   3716113   3715262   3714620   3714265   3714210  
  4500.000000   3714564   3715354   3716693   3718581   3721100  
  4490.000000   3724213   3727979   3732353   3737403   3743095  
  4480.000000   3749506   3756594   3764415   3772903   3782084  
  4470.000000   3791874   3802286   3813235   3824727   3836679  
  4460.000000   3849085   3861856   3874973   3888350   3901958  
  4450.000000   3915717   3929594   3943523   3957472   3971398  
  4440.000000   3985278   3999096   4012833   4026491   4040039  
  4430.000000   4053477   4066752   4079863   4092738   4105377  
  4420.000000   4117698   4129703   4141296   4152470   4163115  
  4410.000000   4173209   4182635   4191372   4199314   4206459  
  4400.000000   4212735   4218181   4222778   4226618   4229745  
  4390.000000   4232303   4234388   4236165   4237740   4239248  
  4380.000000   4240756   4242339   4244020   4245839   4247821  
  4370.000000   4250014   4252474   4255265   4258452   4262076  
  4360.000000   4266163   4270705   4275671   4281006   4286624  
  4350.000000   4292450   4298370   4304329   4310242   4316121  
  4340.000000   4321953   4327794   4333617   4339365   4344814  
  4330.000000   4349646   4353404   4355641   4355970   4354229  
  4320.000000   4350497   4345165   4338804   4332116   4325720  
  4310.000000   4320125   4315576   4312146   4309699   4308056  
  4300.000000   4306990   4306344   4306001   4305901   4306014  
  4290.000000   4306299   4306738   4307275   4307901   4308585  
  4280.000000   4309342   4310178   4311110   4312158   4313323  
  4270.000000   4314626   4316048   4317579   4319133   4320589  
  4260.000000   4321728   4322302   4322030   4320696   4318172  
  4250.000000   4314495   4309835   4304505   4298857   4293266  
  4240.000000   4288009   4283288   4279155   4275593   4272489  
  4230.000000   4269724   4267158   4264677   4262190   4259626  
  4220.000000   4256956   4254158   4251277   4248355   4245504  
  4210.000000   4242808   4240390   4238309   4236631   4235344  
  4200.000000   4234436   4233843   4233521   4233398   4233443  
  4190.000000   4233600   4233863   4234187   4234587   4235029  
  4180.000000   4235548   4236125   4236818   4237624   4238622  
  4170.000000   4239832   4241349   4243210   4245516   4248298  
  4160.000000   4251636   4255520   4259984   4264968   4270473  
  4150.000000   4276416   4282801   4289557   4296711   4304219  
  4140.000000   4312138   4320439   4329195   4338380   4348055  
  4130.000000   4358177   4368775   4379780   4391201   4402971  
  4120.000000   4415113   4427595   4440479   4453773   4467549  
  4110.000000   4481808   4496587   4511835   4527522   4543550  
  4100.000000   4559856   4576340   4592960   4609666   4626464  
  4090.000000   4643354   4660362   4677503   4694781   4712197  
  4080.000000   4729729   4747372   4765089   4782875   4800670  
  4070.000000   4818445   4836103   4853593   4870802   4887700  
  4060.000000   4904194   4920287   4935901   4951050   4965647  
  4050.000000   4979720   4993199   5006161   5018567   5030514  
  4040.000000   5041938   5052889   5063231   5072971   5081960  
  4030.000000   5090233   5097685   5104380   5110229   5115265  
  4020.000000   5119348   5122506   5124686   5125978   5126363  
  4010.000000   5126031   5125100   5123638   5121449   5118609  
  4000.000000   5115436  
##END= 
