##TITLE= Sample 016 By ssteindl date Montag, November 26 2018
##JCAMP-DX= 4.24
##DATA TYPE= INFRARED SPECTRUM
##ORIGIN= Exported PE Spectrum Data File
##OWNER= Sandra Steindl
##DATE= 18/11/26
##TIME= 11:35:57.00
##SPECTROMETER/DATA SYSTEM= PERKIN-ELMER Frontier FT-IR/NIR IR
##INSTRUMENT PARAMETERS=
  APODIZATION=stark
  DETECTOR=INGAAS
##RESOLUTION= 16.000000
##DELTAX= -2.000000
##XUNITS= 1/CM
##YUNITS= A
##XFACTOR= 1.00
##YFACTOR= 0.00000011920928955078
##FIRSTX= 10000.00
##LASTX= 4000.00
##NPOINTS= 3001
##FIRSTY= 0.287197
##MAXY= 0.654087
##MINY= 0.219403
##XYDATA= (X++(Y..Y))
 10000.000000   2409184   2409888   2409640   2407334   2403074  
  9990.000000   2397420   2390411   2381743   2371794   2361635  
  9980.000000   2352433   2345103   2340178   2337792   2337527  
  9970.000000   2338817   2341136   2344267   2348141   2352747  
  9960.000000   2357889   2363029   2367395   2370064   2370363  
  9950.000000   2367922   2362952   2356008   2347990   2339819  
  9940.000000   2332320   2326122   2321531   2318636   2317213  
  9930.000000   2316936   2317388   2318278   2319444   2320880  
  9920.000000   2322593   2324456   2326112   2326979   2326455  
  9910.000000   2324154   2320181   2315200   2310294   2306629  
  9900.000000   2305016   2305602   2307793   2310445   2312292  
  9890.000000   2312315   2310056   2305613   2299510   2292453  
  9880.000000   2285146   2278232   2272289   2267898   2265557  
  9870.000000   2265592   2267949   2272120   2277183   2282012  
  9860.000000   2285606   2287322   2287057   2285084   2281931  
  9850.000000   2278010   2273656   2269046   2264496   2260485  
  9840.000000   2257685   2256735   2257924   2261047   2265312  
  9830.000000   2269692   2273227   2275477   2276626   2277353  
  9820.000000   2278474   2280436   2283136   2285835   2287608  
  9810.000000   2287658   2285785   2282389   2278328   2274559  
  9800.000000   2271735   2270162   2269718   2270264   2271683  
  9790.000000   2274117   2277706   2282460   2287978   2293455  
  9780.000000   2297848   2300155   2299784   2296631   2291141  
  9770.000000   2284022   2276098   2268075   2260539   2253998  
  9760.000000   2248925   2245793   2244887   2246226   2249350  
  9750.000000   2253456   2257502   2260602   2262242   2262437  
  9740.000000   2261668   2260595   2259844   2259695   2260098  
  9730.000000   2260672   2260957   2260537   2259211   2256997  
  9720.000000   2254107   2250860   2247588   2244609   2242146  
  9710.000000   2240334   2239156   2238462   2238011   2237567  
  9700.000000   2237035   2236528   2236325   2236754   2237957  
  9690.000000   2239796   2241822   2243453   2244223   2243991  
  9680.000000   2243038   2241924   2241233   2241263   2241843  
  9670.000000   2242367   2242057   2240295   2236955   2232443  
  9660.000000   2227596   2223317   2220268   2218628   2218092  
  9650.000000   2218059   2217937   2217405   2216554   2215811  
  9640.000000   2215738   2216774   2219042   2222325   2226125  
  9630.000000   2229861   2233023   2235315   2236701   2237369  
  9620.000000   2237635   2237815   2238107   2238514   2238837  
  9610.000000   2238707   2237720   2235536   2232047   2227434  
  9600.000000   2222176   2216958   2212458   2209219   2207432  
  9590.000000   2207031   2207658   2208938   2210505   2212192  
  9580.000000   2213985   2215975   2218259   2220760   2223208  
  9570.000000   2225056   2225666   2224397   2220908   2215253  
  9560.000000   2208018   2200231   2193152   2188012   2185597  
  9550.000000   2186108   2188985   2193177   2197395   2200556  
  9540.000000   2202034   2201772   2200172   2197815   2195237  
  9530.000000   2192664   2190105   2187368   2184387   2181253  
  9520.000000   2178288   2175877   2174268   2173505   2173379  
  9510.000000   2173642   2174127   2174887   2176142   2178087  
  9500.000000   2180727   2183692   2186349   2187954   2188001  
  9490.000000   2186433   2183722   2180710   2178299   2177144  
  9480.000000   2177452   2178995   2181261   2183698   2185856  
  9470.000000   2187466   2188333   2188294   2187150   2184812  
  9460.000000   2181421   2177485   2173797   2171235   2170373  
  9450.000000   2171272   2173326   2175516   2176714   2176172  
  9440.000000   2173783   2170099   2166071   2162547   2159921  
  9430.000000   2157943   2155922   2153083   2148959   2143664  
  9420.000000   2137862   2132600   2128887   2127416   2128301  
  9410.000000   2131124   2135068   2139154   2142474   2144276  
  9400.000000   2144105   2141768   2137466   2131733   2125476  
  9390.000000   2119726   2115456   2113257   2113188   2114771  
  9380.000000   2117133   2119355   2120731   2121077   2120707  
  9370.000000   2120285   2120461   2121552   2123411   2125450  
  9360.000000   2126931   2127185   2125920   2123253   2119722  
  9350.000000   2116038   2112879   2110673   2109518   2109241  
  9340.000000   2109480   2109858   2110069   2109996   2109699  
  9330.000000   2109417   2109444   2110042   2111326   2113212  
  9320.000000   2115438   2117570   2119142   2119732   2119125  
  9310.000000   2117369   2114761   2111779   2108927   2106659  
  9300.000000   2105266   2104868   2105373   2106535   2107949  
  9290.000000   2109180   2109770   2109376   2107803   2105112  
  9280.000000   2101633   2097892   2094484   2091844   2090137  
  9270.000000   2089184   2088544   2087656   2086048   2083556  
  9260.000000   2080427   2077247   2074725   2073443   2073659  
  9250.000000   2075210   2077584   2080049   2081937   2082814  
  9240.000000   2082648   2081726   2080528   2079532   2079061  
  9230.000000   2079216   2079895   2080885   2081981   2083053  
  9220.000000   2084049   2084946   2085658   2086039   2085878  
  9210.000000   2085012   2083410   2081230   2078823   2076615  
  9200.000000   2074972   2074043   2073701   2073616   2073380  
  9190.000000   2072699   2071482   2069930   2068420   2067380  
  9180.000000   2067068   2067497   2068431   2069481   2070252  
  9170.000000   2070461   2070028   2069032   2067650   2066032  
  9160.000000   2064272   2062385   2060386   2058319   2056319  
  9150.000000   2054558   2053200   2052338   2051939   2051892  
  9140.000000   2052045   2052312   2052697   2053311   2054279  
  9130.000000   2055649   2057297   2058933   2060184   2060695  
  9120.000000   2060293   2059007   2057128   2055036   2053093  
  9110.000000   2051475   2050115   2048781   2047179   2045165  
  9100.000000   2042826   2040556   2038916   2038479   2039545  
  9090.000000   2042033   2045405   2048825   2051390   2052400  
  9080.000000   2051613   2049255   2045973   2042538   2039630  
  9070.000000   2037573   2036317   2035482   2034605   2033314  
  9060.000000   2031504   2029384   2027367   2025942   2025430  
  9050.000000   2025977   2027475   2029687   2032290   2034988  
  9040.000000   2037568   2039865   2041750   2043059   2043646  
  9030.000000   2043367   2042178   2040111   2037352   2034154  
  9020.000000   2030844   2027724   2025051   2023035   2021797  
  9010.000000   2021419   2021837   2022960   2024609   2026628  
  9000.000000   2028842   2031136   2033438   2035679   2037760  
  8990.000000   2039472   2040557   2040695   2039655   2037365  
  8980.000000   2034021   2030055   2026031   2022525   2019943  
  8970.000000   2018483   2018043   2018364   2019066   2019822  
  8960.000000   2020367   2020564   2020348   2019695   2018590  
  8950.000000   2017006   2014974   2012554   2009925   2007282  
  8940.000000   2004868   2002848   2001315   2000243   1999513  
  8930.000000   1998981   1998517   1998098   1997809   1997846  
  8920.000000   1998456   1999835   2002033   2004886   2008015  
  8910.000000   2010885   2012956   2013816   2013347   2011747  
  8900.000000   2009501   2007206   2005388   2004338   2004038  
  8890.000000   2004196   2004380   2004199   2003447   2002172  
  8880.000000   2000626   1999154   1998071   1997562   1997668  
  8870.000000   1998288   1999250   2000363   2001468   2002460  
  8860.000000   2003285   2003974   2004626   2005433   2006601  
  8850.000000   2008309   2010596   2013294   2016018   2018249  
  8840.000000   2019508   2019486   2018179   2015856   2013000  
  8830.000000   2010109   2007552   2005473   2003803   2002394  
  8820.000000   2001112   1999984   1999147   1998842   1999246  
  8810.000000   2000413   2002208   2004343   2006487   2008310  
  8800.000000   2009590   2010164   2009978   2009024   2007415  
  8790.000000   2005366   2003242   2001497   2000592   2000838  
  8780.000000   2002272   2004621   2007361   2009891   2011723  
  8770.000000   2012643   2012747   2012386   2011984   2011893  
  8760.000000   2012258   2013041   2014080   2015218   2016369  
  8750.000000   2017539   2018743   2019938   2020945   2021493  
  8740.000000   2021303   2020207   2018252   2015683   2012908  
  8730.000000   2010321   2008200   2006618   2005466   2004573  
  8720.000000   2003794   2003136   2002732   2002816   2003586  
  8710.000000   2005124   2007327   2009918   2012525   2014750  
  8700.000000   2016286   2016946   2016725   2015754   2014297  
  8690.000000   2012673   2011207   2010170   2009712   2009844  
  8680.000000   2010426   2011224   2011974   2012468   2012611  
  8670.000000   2012423   2012032   2011580   2011196   2010916  
  8660.000000   2010720   2010542   2010349   2010181   2010162  
  8650.000000   2010478   2011312   2012804   2014979   2017742  
  8640.000000   2020872   2024061   2026975   2029290   2030761  
  8630.000000   2031253   2030806   2029615   2028016   2026404  
  8620.000000   2025160   2024556   2024675   2025418   2026519  
  8610.000000   2027668   2028584   2029143   2029380   2029484  
  8600.000000   2029696   2030208   2031095   2032269   2033534  
  8590.000000   2034642   2035406   2035762   2035801   2035734  
  8580.000000   2035807   2036224   2037063   2038267   2039664  
  8570.000000   2041025   2042144   2042884   2043201   2043140  
  8560.000000   2042797   2042292   2041733   2041218   2040839  
  8550.000000   2040671   2040774   2041162   2041788   2042542  
  8540.000000   2043256   2043775   2043990   2043922   2043713  
  8530.000000   2043618   2043919   2044813   2046342   2048324  
  8520.000000   2050422   2052190   2053242   2053330   2052466  
  8510.000000   2050884   2048997   2047268   2046109   2045778  
  8500.000000   2046347   2047713   2049650   2051888   2054162  
  8490.000000   2056290   2058160   2059762   2061143   2062389  
  8480.000000   2063596   2064832   2066125   2067429   2068645  
  8470.000000   2069627   2070231   2070357   2069987   2069220  
  8460.000000   2068245   2067317   2066670   2066464   2066716  
  8450.000000   2067321   2068072   2068754   2069205   2069384  
  8440.000000   2069378   2069362   2069514   2069946   2070645  
  8430.000000   2071484   2072267   2072815   2073035   2072960  
  8420.000000   2072729   2072528   2072497   2072673   2072973  
  8410.000000   2073225   2073243   2072903   2072203   2071256  
  8400.000000   2070248   2069371   2068759   2068466   2068453  
  8390.000000   2068645   2068951   2069318   2069710   2070124  
  8380.000000   2070543   2070948   2071301   2071575   2071767  
  8370.000000   2071881   2071924   2071860   2071618   2071073  
  8360.000000   2070107   2068646   2066730   2064539   2062365  
  8350.000000   2060557   2059407   2059096   2059618   2060816  
  8340.000000   2062400   2064053   2065502   2066567   2067184  
  8330.000000   2067360   2067162   2066656   2065903   2064946  
  8320.000000   2063830   2062616   2061398   2060298   2059442  
  8310.000000   2058930   2058788   2058974   2059342   2059702  
  8300.000000   2059832   2059560   2058800   2057602   2056133  
  8290.000000   2054645   2053392   2052571   2052254   2052372  
  8280.000000   2052732   2053072   2053146   2052782   2051921  
  8270.000000   2050608   2048962   2047122   2045211   2043319  
  8260.000000   2041509   2039845   2038400   2037272   2036548  
  8250.000000   2036285   2036456   2036952   2037575   2038097  
  8240.000000   2038306   2038070   2037366   2036274   2034951  
  8230.000000   2033573   2032286   2031168   2030218   2029375  
  8220.000000   2028543   2027635   2026585   2025369   2023988  
  8210.000000   2022474   2020861   2019198   2017527   2015898  
  8200.000000   2014364   2012969   2011750   2010711   2009833  
  8190.000000   2009063   2008328   2007547   2006654   2005611  
  8180.000000   2004423   2003136   2001836   2000632   1999636  
  8170.000000   1998938   1998574   1998509   1998617   1998706  
  8160.000000   1998553   1997973   1996865   1995253   1993290  
  8150.000000   1991204   1989243   1987578   1986252   1985174  
  8140.000000   1984158   1983016   1981633   1980035   1978371  
  8130.000000   1976875   1975754   1975125   1974954   1975064  
  8120.000000   1975202   1975105   1974601   1973637   1972294  
  8110.000000   1970728   1969126   1967629   1966323   1965224  
  8100.000000   1964303   1963513   1962807   1962157   1961552  
  8090.000000   1960995   1960496   1960061   1959691   1959370  
  8080.000000   1959064   1958711   1958248   1957609   1956769  
  8070.000000   1955755   1954649   1953580   1952678   1952045  
  8060.000000   1951705   1951613   1951653   1951682   1951570  
  8050.000000   1951227   1950613   1949729   1948592   1947233  
  8040.000000   1945684   1944007   1942297   1940693   1939350  
  8030.000000   1938396   1937883   1937748   1937814   1937827  
  8020.000000   1937529   1936736   1935399   1933616   1931612  
  8010.000000   1929662   1928022   1926857   1926212   1926012  
  8000.000000   1926102   1926297   1926432   1926391   1926121  
  7990.000000   1925628   1924954   1924166   1923338   1922532  
  7980.000000   1921804   1921178   1920664   1920236   1919850  
  7970.000000   1919450   1918984   1918421   1917760   1917038  
  7960.000000   1916317   1915673   1915170   1914845   1914689  
  7950.000000   1914657   1914678   1914679   1914609   1914450  
  7940.000000   1914220   1913953   1913681   1913411   1913119  
  7930.000000   1912750   1912254   1911594   1910784   1909876  
  7920.000000   1908959   1908122   1907423   1906880   1906464  
  7910.000000   1906128   1905825   1905548   1905324   1905211  
  7900.000000   1905261   1905498   1905891   1906355   1906777  
  7890.000000   1907033   1907039   1906753   1906198   1905439  
  7880.000000   1904576   1903712   1902941   1902339   1901938  
  7870.000000   1901745   1901714   1901788   1901887   1901957  
  7860.000000   1901973   1901947   1901921   1901923   1901945  
  7850.000000   1901908   1901681   1901118   1900123   1898717  
  7840.000000   1897067   1895464   1894243   1893684   1893905  
  7830.000000   1894819   1896134   1897459   1898404   1898717  
  7820.000000   1898339   1897414   1896218   1895061   1894188  
  7810.000000   1893706   1893582   1893664   1893759   1893688  
  7800.000000   1893332   1892661   1891709   1890576   1889383  
  7790.000000   1888267   1887343   1886691   1886335   1886224  
  7780.000000   1886244   1886224   1885991   1885402   1884401  
  7770.000000   1883032   1881435   1879816   1878392   1877340  
  7760.000000   1876758   1876649   1876925   1877440   1878015  
  7750.000000   1878492   1878752   1878743   1878481   1878037  
  7740.000000   1877509   1876978   1876485   1876001   1875448  
  7730.000000   1874724   1873758   1872555   1871210   1869909  
  7720.000000   1868853   1868216   1868060   1868322   1868824  
  7710.000000   1869326   1869606   1869519   1869033   1868217  
  7700.000000   1867207   1866152   1865170   1864330   1863656  
  7690.000000   1863141   1862776   1862551   1862459   1862475  
  7680.000000   1862540   1862566   1862440   1862054   1861341  
  7670.000000   1860294   1858987   1857554   1856175   1855022  
  7660.000000   1854227   1853841   1853817   1854035   1854328  
  7650.000000   1854546   1854595   1854478   1854274   1854112  
  7640.000000   1854100   1854274   1854567   1854810   1854799  
  7630.000000   1854349   1853388   1851967   1850266   1848519  
  7620.000000   1846944   1845679   1844754   1844120   1843691  
  7610.000000   1843412   1843276   1843336   1843651   1844243  
  7600.000000   1845056   1845950   1846746   1847259   1847376  
  7590.000000   1847053   1846353   1845384   1844292   1843200  
  7580.000000   1842211   1841397   1840811   1840498   1840482  
  7570.000000   1840760   1841279   1841947   1842638   1843235  
  7560.000000   1843660   1843894   1843989   1844034   1844138  
  7550.000000   1844374   1844771   1845292   1845869   1846413  
  7540.000000   1846865   1847201   1847447   1847657   1847899  
  7530.000000   1848224   1848652   1849163   1849711   1850234  
  7520.000000   1850686   1851048   1851343   1851622   1851953  
  7510.000000   1852397   1852986   1853713   1854545   1855418  
  7500.000000   1856271   1857041   1857694   1858206   1858586  
  7490.000000   1858849   1859044   1859233   1859502   1859937  
  7480.000000   1860611   1861556   1862759   1864153   1865650  
  7470.000000   1867155   1868609   1869990   1871317   1872625  
  7460.000000   1873942   1875263   1876567   1877819   1879011  
  7450.000000   1880165   1881340   1882597   1883979   1885460  
  7440.000000   1886959   1888354   1889538   1890456   1891148  
  7430.000000   1891730   1892376   1893251   1894461   1896029  
  7420.000000   1897889   1899936   1902052   1904160   1906231  
  7410.000000   1908283   1910354   1912468   1914619   1916759  
  7400.000000   1918813   1920689   1922314   1923636   1924655  
  7390.000000   1925408   1925981   1926487   1927046   1927772  
  7380.000000   1928739   1929983   1931478   1933163   1934956  
  7370.000000   1936779   1938572   1940296   1941933   1943469  
  7360.000000   1944895   1946202   1947402   1948525   1949631  
  7350.000000   1950806   1952136   1953692   1955489   1957495  
  7340.000000   1959623   1961766   1963809   1965664   1967277  
  7330.000000   1968629   1969732   1970621   1971350   1971982  
  7320.000000   1972583   1973211   1973907   1974700   1975590  
  7310.000000   1976567   1977609   1978702   1979830   1980996  
  7300.000000   1982197   1983429   1984681   1985929   1987151  
  7290.000000   1988326   1989443   1990499   1991497   1992437  
  7280.000000   1993321   1994151   1994936   1995698   1996465  
  7270.000000   1997272   1998140   1999077   2000068   2001093  
  7260.000000   2002130   2003177   2004248   2005366   2006550  
  7250.000000   2007787   2009040   2010236   2011310   2012209  
  7240.000000   2012938   2013548   2014144   2014832   2015713  
  7230.000000   2016829   2018187   2019733   2021413   2023158  
  7220.000000   2024935   2026722   2028544   2030429   2032432  
  7210.000000   2034598   2036982   2039613   2042513   2045662  
  7200.000000   2049029   2052544   2056138   2059726   2063245  
  7190.000000   2066628   2069847   2072873   2075724   2078421  
  7180.000000   2081027   2083603   2086225   2088951   2091828  
  7170.000000   2094873   2098086   2101442   2104922   2108491  
  7160.000000   2112134   2115815   2119516   2123198   2126847  
  7150.000000   2130446   2134030   2137640   2141371   2145296  
  7140.000000   2149490   2153971   2158733   2163724   2168904  
  7130.000000   2174221   2179662   2185206   2190848   2196546  
  7120.000000   2202268   2207950   2213572   2219118   2224633  
  7110.000000   2230161   2235768   2241471   2247280   2253156  
  7100.000000   2259075   2265011   2270982   2277017   2283166  
  7090.000000   2289450   2295876   2302414   2309037   2315714  
  7080.000000   2322447   2329240   2336113   2343060   2350063  
  7070.000000   2357074   2364057   2370989   2377881   2384760  
  7060.000000   2391658   2398577   2405490   2412342   2419082  
  7050.000000   2425687   2432185   2438646   2445150   2451752  
  7040.000000   2458454   2465205   2471920   2478525   2484982  
  7030.000000   2491314   2497576   2503841   2510150   2516513  
  7020.000000   2522896   2529255   2535548   2541762   2547890  
  7010.000000   2553933   2559867   2565659   2571258   2576646  
  7000.000000   2581831   2586886   2591890   2596935   2602062  
  6990.000000   2607268   2612489   2617647   2622659   2627481  
  6980.000000   2632085   2636481   2640670   2644667   2648474  
  6970.000000   2652130   2655681   2659217   2662817   2666554  
  6960.000000   2670434   2674425   2678431   2682358   2686109  
  6950.000000   2689642   2692935   2696009   2698875   2701555  
  6940.000000   2704053   2706392   2708600   2710733   2712833  
  6930.000000   2714944   2717060   2719159   2721185   2723112  
  6920.000000   2724923   2726652   2728333   2730008   2731672  
  6910.000000   2733293   2734811   2736180   2737387   2738473  
  6900.000000   2739504   2740560   2741684   2742886   2744130  
  6890.000000   2745375   2746590   2747783   2748981   2750217  
  6880.000000   2751494   2752782   2754013   2755116   2756044  
  6870.000000   2756800   2757430   2758014   2758621   2759301  
  6860.000000   2760061   2760892   2761772   2762700   2763676  
  6850.000000   2764715   2765808   2766926   2768014   2769013  
  6840.000000   2769875   2770584   2771155   2771620   2772015  
  6830.000000   2772364   2772673   2772946   2773185   2773409  
  6820.000000   2773635   2773886   2774156   2774432   2774681  
  6810.000000   2774884   2775034   2775160   2775294   2775469  
  6800.000000   2775684   2775906   2776073   2776123   2776020  
  6790.000000   2775770   2775419   2775037   2774691   2774427  
  6780.000000   2774258   2774180   2774175   2774233   2774344  
  6770.000000   2774498   2774669   2774818   2774895   2774859  
  6760.000000   2774688   2774391   2774002   2773565   2773116  
  6750.000000   2772678   2772256   2771855   2771483   2771164  
  6740.000000   2770922   2770774   2770710   2770694   2770670  
  6730.000000   2770585   2770406   2770136   2769802   2769451  
  6720.000000   2769121   2768834   2768588   2768368   2768154  
  6710.000000   2767931   2767685   2767403   2767061   2766640  
  6700.000000   2766117   2765495   2764794   2764062   2763340  
  6690.000000   2762661   2762017   2761377   2760687   2759906  
  6680.000000   2759015   2758037   2757010   2755987   2754998  
  6670.000000   2754059   2753161   2752302   2751479   2750703  
  6660.000000   2749973   2749270   2748534   2747684   2746634  
  6650.000000   2745335   2743795   2742088   2740321   2738609  
  6640.000000   2737019   2735568   2734216   2732911   2731605  
  6630.000000   2730296   2729004   2727771   2726609   2725500  
  6620.000000   2724381   2723178   2721832   2720326   2718687  
  6610.000000   2716972   2715239   2713519   2711807   2710077  
  6600.000000   2708302   2706475   2704620   2702782   2701001  
  6590.000000   2699300   2697667   2696070   2694471   2692847  
  6580.000000   2691200   2689555   2687948   2686406   2684939  
  6570.000000   2683535   2682168   2680811   2679443   2678050  
  6560.000000   2676629   2675178   2673702   2672207   2670710  
  6550.000000   2669231   2667787   2666385   2665015   2663649  
  6540.000000   2662255   2660810   2659323   2657830   2656390  
  6530.000000   2655062   2653884   2652855   2651937   2651066  
  6520.000000   2650180   2649231   2648205   2647113   2645988  
  6510.000000   2644862   2643766   2642715   2641715   2640761  
  6500.000000   2639842   2638936   2638015   2637045   2636000  
  6490.000000   2634867   2633657   2632403   2631153   2629955  
  6480.000000   2628844   2627831   2626903   2626032   2625185  
  6470.000000   2624328   2623436   2622488   2621474   2620395  
  6460.000000   2619270   2618132   2617032   2616021   2615133  
  6450.000000   2614372   2613708   2613077   2612417   2611678  
  6440.000000   2610851   2609960   2609061   2608209   2607443  
  6430.000000   2606768   2606168   2605610   2605070   2604537  
  6420.000000   2604016   2603517   2603045   2602592   2602148  
  6410.000000   2601704   2601272   2600876   2600555   2600335  
  6400.000000   2600225   2600201   2600220   2600232   2600200  
  6390.000000   2600108   2599961   2599773   2599560   2599327  
  6380.000000   2599070   2598791   2598502   2598228   2597998  
  6370.000000   2597835   2597731   2597654   2597544   2597346  
  6360.000000   2597019   2596560   2595999   2595385   2594765  
  6350.000000   2594172   2593609   2593066   2592522   2591967  
  6340.000000   2591400   2590833   2590271   2589723   2589180  
  6330.000000   2588636   2588076   2587504   2586918   2586328  
  6320.000000   2585735   2585133   2584506   2583838   2583112  
  6310.000000   2582318   2581449   2580506   2579484   2578388  
  6300.000000   2577223   2576014   2574789   2573586   2572428  
  6290.000000   2571321   2570239   2569141   2567975   2566712  
  6280.000000   2565341   2563891   2562402   2560920   2559466  
  6270.000000   2558046   2556641   2555233   2553806   2552362  
  6260.000000   2550909   2549451   2547976   2546457   2544858  
  6250.000000   2543156   2541353   2539484   2537605   2535776  
  6240.000000   2534035   2532392   2530821   2529287   2527752  
  6230.000000   2526202   2524634   2523061   2521491   2519921  
  6220.000000   2518335   2516712   2515042   2513328   2511590  
  6210.000000   2509854   2508143   2506460   2504798   2503142  
  6200.000000   2501483   2499827   2498198   2496627   2495137  
  6190.000000   2493736   2492411   2491131   2489862   2488577  
  6180.000000   2487264   2485928   2484587   2483263   2481980  
  6170.000000   2480754   2479598   2478511   2477479   2476473  
  6160.000000   2475452   2474377   2473215   2471959   2470632  
  6150.000000   2469280   2467959   2466714   2465562   2464482  
  6140.000000   2463427   2462337   2461166   2459889   2458520  
  6130.000000   2457096   2455671   2454296   2453015   2451855  
  6120.000000   2450832   2449946   2449194   2448557   2448011  
  6110.000000   2447521   2447059   2446595   2446122   2445636  
  6100.000000   2445155   2444691   2444262   2443866   2443507  
  6090.000000   2443175   2442871   2442595   2442358   2442162  
  6080.000000   2442016   2441913   2441858   2441847   2441894  
  6070.000000   2442005   2442200   2442477   2442839   2443264  
  6060.000000   2443743   2444259   2444822   2445441   2446147  
  6050.000000   2446953   2447876   2448899   2450010   2451172  
  6040.000000   2452369   2453579   2454810   2456063   2457363  
  6030.000000   2458722   2460167   2461711   2463377   2465172  
  6020.000000   2467097   2469127   2471229   2473351   2475452  
  6010.000000   2477493   2479468   2481379   2483253   2485112  
  6000.000000   2486981   2488866   2490781   2492725   2494713  
  5990.000000   2496751   2498854   2501018   2503238   2505498  
  5980.000000   2507792   2510123   2512520   2515018   2517660  
  5970.000000   2520461   2523419   2526489   2529626   2532769  
  5960.000000   2535895   2538990   2542080   2545180   2548319  
  5950.000000   2551492   2554696   2557914   2561146   2564404  
  5940.000000   2567716   2571115   2574623   2578243   2581954  
  5930.000000   2585727   2589521   2593305   2597048   2600727  
  5920.000000   2604310   2607761   2611042   2614122   2616989  
  5910.000000   2619654   2622150   2624519   2626803   2629040  
  5900.000000   2631253   2633470   2635715   2638028   2640434  
  5890.000000   2642964   2645611   2648350   2651129   2653892  
  5880.000000   2656584   2659172   2661642   2663994   2666235  
  5870.000000   2668364   2670383   2672291   2674105   2675855  
  5860.000000   2677586   2679344   2681167   2683070   2685051  
  5850.000000   2687099   2689202   2691358   2693574   2695860  
  5840.000000   2698221   2700650   2703130   2705642   2708175  
  5830.000000   2710729   2713317   2715949   2718623   2721318  
  5820.000000   2723994   2726606   2729116   2731510   2733793  
  5810.000000   2735992   2738135   2740250   2742344   2744434  
  5800.000000   2746514   2748614   2750734   2752909   2755119  
  5790.000000   2757359   2759556   2761653   2763540   2765135  
  5780.000000   2766326   2767038   2767182   2766714   2765607  
  5770.000000   2763907   2761696   2759128   2756365   2753589  
  5760.000000   2750922   2748462   2746223   2744206   2742368  
  5750.000000   2740692   2739150   2737738   2736440   2735238  
  5740.000000   2734100   2732992   2731895   2730797   2729717  
  5730.000000   2728669   2727680   2726752   2725883   2725054  
  5720.000000   2724255   2723477   2722726   2722007   2721327  
  5710.000000   2720676   2720044   2719415   2718785   2718165  
  5700.000000   2717580   2717054   2716605   2716232   2715915  
  5690.000000   2715630   2715351   2715073   2714797   2714542  
  5680.000000   2714307   2714089   2713848   2713545   2713121  
  5670.000000   2712531   2711733   2710703   2709418   2707872  
  5660.000000   2706063   2704015   2701771   2699404   2696993  
  5650.000000   2694625   2692362   2690245   2688280   2686458  
  5640.000000   2684753   2683144   2681612   2680140   2678710  
  5630.000000   2677300   2675897   2674489   2673087   2671709  
  5620.000000   2670389   2669146   2667990   2666902   2665855  
  5610.000000   2664813   2663758   2662690   2661628   2660597  
  5600.000000   2659616   2658684   2657785   2656891   2655977  
  5590.000000   2655033   2654065   2653091   2652131   2651199  
  5580.000000   2650300   2649431   2648585   2647756   2646936  
  5570.000000   2646115   2645270   2644374   2643398   2642322  
  5560.000000   2641147   2639896   2638610   2637333   2636100  
  5550.000000   2634924   2633799   2632709   2631630   2630553  
  5540.000000   2629470   2628385   2627296   2626196   2625074  
  5530.000000   2623926   2622752   2621566   2620387   2619232  
  5520.000000   2618104   2616993   2615878   2614743   2613578  
  5510.000000   2612393   2611203   2610024   2608860   2607700  
  5500.000000   2606521   2605306   2604044   2602751   2601448  
  5490.000000   2600160   2598889   2597619   2596309   2594923  
  5480.000000   2593429   2591830   2590147   2588423   2586692  
  5470.000000   2584981   2583292   2581617   2579936   2578236  
  5460.000000   2576502   2574730   2572904   2571015   2569050  
  5450.000000   2567013   2564924   2562825   2560761   2558773  
  5440.000000   2556878   2555063   2553305   2551570   2549842  
  5430.000000   2548119   2546414   2544730   2543071   2541415  
  5420.000000   2539753   2538081   2536440   2534887   2533508  
  5410.000000   2532358   2531464   2530785   2530265   2529825  
  5400.000000   2529426   2529050   2528730   2528497   2528393  
  5390.000000   2528415   2528558   2528784   2529095   2529490  
  5380.000000   2530027   2530743   2531690   2532857   2534230  
  5370.000000   2535735   2537333   2538966   2540646   2542367  
  5360.000000   2544193   2546139   2548281   2550637   2553292  
  5350.000000   2556266   2559647   2563435   2567683   2572337  
  5340.000000   2577408   2582820   2588606   2594725   2601254  
  5330.000000   2608168   2615540   2623316   2631547   2640171  
  5320.000000   2649272   2658835   2669003   2679788   2691334  
  5310.000000   2703605   2716682   2730466   2744997   2760181  
  5300.000000   2776095   2792700   2810137   2828417   2847694  
  5290.000000   2867956   2889281   2911553   2934721   2958576  
  5280.000000   2983035   3007948   3033355   3059265   3085833  
  5270.000000   3113113   3141164   3169869   3199055   3228463  
  5260.000000   3257880   3287181   3316357   3345497   3374676  
  5250.000000   3403939   3433161   3462168   3490646   3518397  
  5240.000000   3545215   3571136   3596182   3620560   3644334  
  5230.000000   3667646   3690410   3712607   3734026   3754618  
  5220.000000   3774233   3792955   3810775   3827891   3844345  
  5210.000000   3860305   3875712   3890598   3904776   3918207  
  5200.000000   3930720   3942364   3953091   3963056   3972269  
  5190.000000   3980872   3988817   3996174   4002851   4008910  
  5180.000000   4014292   4019100   4023304   4026994   4030100  
  5170.000000   4032660   4034580   4035907   4036600   4036762  
  5160.000000   4036405   4035638   4034447   4032891   4030914  
  5150.000000   4028553   4025771   4022631   4019125   4015324  
  5140.000000   4011210   4006828   4002152   3997225   3992047  
  5130.000000   3986684   3981152   3975503   3969727   3963841  
  5120.000000   3957817   3951673   3945411   3939081   3932712  
  5110.000000   3926351   3920003   3913673   3907337   3900986  
  5100.000000   3894612   3888236   3881883   3875590   3869377  
  5090.000000   3863256   3857218   3851253   3845340   3839472  
  5080.000000   3833635   3827819   3822007   3816181   3810319  
  5070.000000   3804409   3798445   3792437   3786391   3780320  
  5060.000000   3774216   3768070   3761855   3755558   3749161  
  5050.000000   3742677   3736117   3729512   3722880   3716240  
  5040.000000   3709592   3702930   3696240   3689514   3682744  
  5030.000000   3675932   3669084   3662213   3655336   3648471  
  5020.000000   3641649   3634892   3628235   3621694   3615293  
  5010.000000   3609027   3602902   3596897   3591017   3585246  
  5000.000000   3579607   3574100   3568765   3563607   3558672  
  4990.000000   3553958   3549507   3545308   3541400   3537767  
  4980.000000   3534443   3531401   3528674   3526227   3524095  
  4970.000000   3522251   3520742   3519550   3518732   3518269  
  4960.000000   3518215   3518543   3519298   3520447   3522030  
  4950.000000   3524004   3526398   3529153   3532287   3535736  
  4940.000000   3539524   3543603   3548024   3552763   3557884  
  4930.000000   3563363   3569246   3575492   3582123   3589089  
  4920.000000   3596410   3604048   3612032   3620336   3628988  
  4910.000000   3637957   3647259   3656854   3666740   3676872  
  4900.000000   3687229   3697765   3708447   3719233   3730088  
  4890.000000   3740982   3751880   3762756   3773558   3784249  
  4880.000000   3794750   3805014   3814955   3824540   3833701  
  4870.000000   3842434   3850691   3858494   3865807   3872660  
  4860.000000   3879023   3884935   3890370   3895375   3899933  
  4850.000000   3904099   3907870   3911313   3914439   3917326  
  4840.000000   3919993   3922511   3924892   3927188   3929400  
  4830.000000   3931561   3933668   3935747   3937794   3939827  
  4820.000000   3941842   3943845   3945830   3947798   3949749  
  4810.000000   3951695   3953646   3955622   3957640   3959715  
  4800.000000   3961861   3964080   3966372   3968728   3971133  
  4790.000000   3973567   3976011   3978449   3980873   3983285  
  4780.000000   3985701   3988143   3990632   3993187   3995805  
  4770.000000   3998475   4001158   4003812   4006385   4008839  
  4760.000000   4011137   4013269   4015228   4017028   4018678  
  4750.000000   4020198   4021592   4022875   4024045   4025117  
  4740.000000   4026091   4026993   4027831   4028635   4029412  
  4730.000000   4030175   4030912   4031609   4032238   4032778  
  4720.000000   4033210   4033534   4033763   4033925   4034060  
  4710.000000   4034207   4034408   4034695   4035095   4035623  
  4700.000000   4036287   4037086   4038015   4039061   4040216  
  4690.000000   4041471   4042822   4044264   4045796   4047398  
  4680.000000   4049050   4050703   4052313   4053821   4055192  
  4670.000000   4056395   4057440   4058346   4059167   4059949  
  4660.000000   4060755   4061631   4062629   4063784   4065136  
  4650.000000   4066712   4068533   4070606   4072920   4075442  
  4640.000000   4078128   4080923   4083772   4086629   4089461  
  4630.000000   4092246   4094968   4097620   4100182   4102638  
  4620.000000   4104951   4107088   4109000   4110658   4112023  
  4610.000000   4113093   4113863   4114375   4114657   4114781  
  4600.000000   4114785   4114731   4114631   4114516   4114361  
  4590.000000   4114165   4113887   4113519   4113023   4112394  
  4580.000000   4111603   4110649   4109505   4108176   4106646  
  4570.000000   4104931   4103036   4100995   4098826   4096572  
  4560.000000   4094251   4091896   4089512   4087120   4084713  
  4550.000000   4082299   4079866   4077413   4074926   4072401  
  4540.000000   4069827   4067204   4064539   4061842   4059136  
  4530.000000   4056433   4053760   4051116   4048519   4045958  
  4520.000000   4043459   4041014   4038675   4036454   4034428  
  4510.000000   4032617   4031109   4029915   4029126   4028742  
  4500.000000   4028852   4029445   4030608   4032318   4034657  
  4490.000000   4037597   4041226   4045520   4050578   4056373  
  4480.000000   4062990   4070377   4078582   4087516   4097196  
  4470.000000   4107521   4118505   4130059   4142209   4154877  
  4460.000000   4168082   4181739   4195840   4210289   4225057  
  4450.000000   4240051   4255242   4270564   4285998   4301506  
  4440.000000   4317073   4332675   4348285   4363880   4379416  
  4430.000000   4394873   4410187   4425341   4440249   4454894  
  4420.000000   4469176   4483079   4496498   4509425   4521753  
  4410.000000   4533471   4544467   4554720   4564126   4572689  
  4400.000000   4580352   4587188   4593217   4598577   4603343  
  4390.000000   4607673   4611648   4615408   4619014   4622577  
  4380.000000   4626131   4629746   4633430   4637210   4641072  
  4370.000000   4645027   4649070   4653222   4657508   4661967  
  4360.000000   4666636   4671551   4676722   4682157   4687803  
  4350.000000   4693636   4699548   4705509   4711417   4717296  
  4340.000000   4723102   4728899   4734627   4740221   4745405  
  4330.000000   4749812   4752898   4754133   4753043   4749416  
  4320.000000   4743333   4735250   4725860   4716028   4706544  
  4310.000000   4698063   4690929   4685262   4680916   4677665  
  4300.000000   4675219   4673359   4671929   4670848   4670097  
  4290.000000   4669652   4669532   4669702   4670172   4670897  
  4280.000000   4671876   4673067   4674443   4675971   4677619  
  4270.000000   4679381   4681232   4683157   4685065   4686818  
  4260.000000   4688167   4688821   4688453   4686813   4683757  
  4250.000000   4679328   4673724   4667302   4660461   4653621  
  4240.000000   4647094   4641112   4635745   4630992   4626749  
  4230.000000   4622906   4619331   4615917   4612583   4609263  
  4220.000000   4605943   4602608   4599313   4596097   4593075  
  4210.000000   4590316   4587940   4585987   4584516   4583501  
  4200.000000   4582924   4582699   4582777   4583067   4583539  
  4190.000000   4584133   4584858   4585681   4586636   4587694  
  4180.000000   4588890   4590188   4591624   4593171   4594884  
  4170.000000   4596767   4598905   4601329   4604135   4607348  
  4160.000000   4611044   4615210   4619884   4625020   4630633  
  4150.000000   4636666   4643136   4649988   4657251   4664877  
  4140.000000   4672906   4681293   4690088   4699247   4708819  
  4130.000000   4718760   4729117   4739847   4751003   4762558  
  4120.000000   4774579   4787057   4800070   4813621   4827780  
  4110.000000   4842541   4857945   4873951   4890545   4907632  
  4100.000000   4925145   4942955   4960979   4979112   4997307  
  4090.000000   5015526   5033763   5052019   5070293   5088591  
  4080.000000   5106891   5125196   5143464   5161696   5179820  
  4070.000000   5197809   5215545   5232974   5249961   5266481  
  4060.000000   5282440   5297869   5312712   5327023   5340742  
  4050.000000   5353922   5366500   5378555   5390038   5401045  
  4040.000000   5411508   5421483   5430849   5439628   5447692  
  4030.000000   5455086   5461721   5467664   5472835   5477268  
  4020.000000   5480835   5483571   5485443   5486549   5486877  
  4010.000000   5486610   5485859   5484660   5482781   5480263  
  4000.000000   5477415  
##END= 
