##TITLE= Sample 020 By ssteindl date Montag, November 26 2018
##JCAMP-DX= 4.24
##DATA TYPE= INFRARED SPECTRUM
##ORIGIN= Exported PE Spectrum Data File
##OWNER= Sandra Steindl
##DATE= 18/11/26
##TIME= 11:39:57.00
##SPECTROMETER/DATA SYSTEM= PERKIN-ELMER Frontier FT-IR/NIR IR
##INSTRUMENT PARAMETERS=
  APODIZATION=stark
  DETECTOR=INGAAS
##RESOLUTION= 16.000000
##DELTAX= -2.000000
##XUNITS= 1/CM
##YUNITS= A
##XFACTOR= 1.00
##YFACTOR= 0.00000011920928955078
##FIRSTX= 10000.00
##LASTX= 4000.00
##NPOINTS= 3001
##FIRSTY= 0.310423
##MAXY= 0.659473
##MINY= 0.233062
##XYDATA= (X++(Y..Y))
 10000.000000   2604018   2607356   2611960   2618825   2626533  
  9990.000000   2632457   2634955   2633830   2629494   2622750  
  9980.000000   2614864   2607222   2600590   2595198   2590984  
  9970.000000   2587966   2586233   2586023   2587461   2590292  
  9960.000000   2593720   2596564   2597621   2596153   2592180  
  9950.000000   2586508   2580434   2575317   2572185   2571506  
  9940.000000   2573212   2576811   2581625   2586849   2591670  
  9930.000000   2595178   2596505   2594875   2589956   2582055  
  9920.000000   2572301   2562451   2554481   2549996   2549754  
  9910.000000   2553506   2560151   2568198   2576224   2583241  
  9900.000000   2588767   2592696   2595066   2595864   2595067  
  9890.000000   2592743   2589291   2585489   2582362   2580915  
  9880.000000   2581670   2584560   2588766   2593154   2596528  
  9870.000000   2598126   2597736   2595603   2592196   2587798  
  9860.000000   2582440   2575866   2567873   2558572   2548608  
  9850.000000   2539145   2531541   2527036   2526267   2529188  
  9840.000000   2534998   2542461   2550199   2557000   2562034  
  9830.000000   2564843   2565344   2563685   2560241   2555551  
  9820.000000   2550352   2545476   2541774   2539886   2540082  
  9810.000000   2542115   2545213   2548230   2549935   2549310  
  9800.000000   2545913   2539940   2532278   2524161   2516902  
  9790.000000   2511519   2508526   2507983   2509561   2512909  
  9780.000000   2517710   2523892   2531399   2540099   2549516  
  9770.000000   2558752   2566604   2571723   2573104   2570239  
  9760.000000   2563496   2553892   2542974   2532343   2523313  
  9750.000000   2516721   2512790   2511351   2511885   2513856  
  9740.000000   2516703   2520038   2523476   2526746   2529490  
  9730.000000   2531430   2532323   2532125   2531050   2529512  
  9720.000000   2528109   2527303   2527338   2527965   2528505  
  9710.000000   2527919   2525151   2519459   2510767   2499817  
  9700.000000   2488066   2477363   2469420   2465386   2465494  
  9690.000000   2469120   2474979   2481593   2487655   2492337  
  9680.000000   2495343   2496813   2497142   2496739   2495968  
  9670.000000   2495036   2494095   2493204   2492377   2491561  
  9660.000000   2490598   2489320   2487541   2485260   2482622  
  9650.000000   2479975   2477664   2475870   2474422   2472784  
  9640.000000   2470223   2466093   2460183   2452879   2445168  
  9630.000000   2438324   2433517   2431393   2431888   2434279  
  9620.000000   2437467   2440357   2442194   2442742   2442274  
  9610.000000   2441379   2440729   2440794   2441773   2443496  
  9600.000000   2445619   2447634   2449113   2449685   2449158  
  9590.000000   2447515   2444925   2441778   2438589   2435978  
  9580.000000   2434471   2434444   2435951   2438757   2442329  
  9570.000000   2445991   2449049   2450938   2451358   2450253  
  9560.000000   2447864   2444538   2440718   2436737   2432858  
  9550.000000   2429214   2425909   2423089   2420972   2419905  
  9540.000000   2420223   2422210   2425891   2431012   2436994  
  9530.000000   2443052   2448376   2452308   2454519   2455029  
  9520.000000   2454150   2452366   2450164   2447991   2446161  
  9510.000000   2444908   2444330   2444416   2444970   2445627  
  9500.000000   2445835   2444991   2442534   2438159   2431904  
  9490.000000   2424237   2415987   2408180   2401823   2397666  
  9480.000000   2396045   2396827   2399417   2402930   2406336  
  9470.000000   2408730   2409514   2408556   2406230   2403269  
  9460.000000   2400580   2398882   2398526   2399290   2400526  
  9450.000000   2401349   2401015   2399182   2396036   2392234  
  9440.000000   2388609   2385904   2384439   2384107   2384431  
  9430.000000   2384853   2384943   2384542   2383745   2382771  
  9420.000000   2381812   2380900   2379896   2378550   2376649  
  9410.000000   2374110   2371046   2367712   2364447   2361575  
  9400.000000   2359353   2357950   2357408   2357646   2358436  
  9390.000000   2359422   2360197   2360383   2359784   2358428  
  9380.000000   2356601   2354712   2353177   2352227   2351868  
  9370.000000   2351888   2352012   2352051   2351990   2351991  
  9360.000000   2352256   2352926   2353957   2355145   2356197  
  9350.000000   2356883   2357117   2356970   2356570   2355994  
  9340.000000   2355198   2354048   2352436   2350398   2348170  
  9330.000000   2346112   2344538   2343558   2342964   2342316  
  9320.000000   2341116   2339076   2336294   2333274   2330747  
  9310.000000   2329342   2329315   2330424   2332051   2333434  
  9300.000000   2333972   2333422   2331974   2330108   2328376  
  9290.000000   2327180   2326674   2326806   2327402   2328288  
  9280.000000   2329306   2330316   2331146   2331603   2331510  
  9270.000000   2330781   2329506   2327918   2326326   2324920  
  9260.000000   2323693   2322412   2320757   2318509   2315695  
  9250.000000   2312691   2310097   2308574   2308532   2310000  
  9240.000000   2312563   2315561   2318272   2320152   2320911  
  9230.000000   2320540   2319226   2317233   2314832   2312255  
  9220.000000   2309739   2307476   2305589   2304020   2302536  
  9210.000000   2300772   2298395   2295258   2291497   2287574  
  9200.000000   2284121   2281743   2280743   2281044   2282235  
  9190.000000   2283792   2285307   2286628   2287871   2289226  
  9180.000000   2290798   2292403   2293627   2293912   2292849  
  9170.000000   2290366   2286845   2282971   2279511   2277088  
  9160.000000   2276008   2276249   2277479   2279259   2281144  
  9150.000000   2282781   2283873   2284190   2283592   2282076  
  9140.000000   2279839   2277263   2274859   2273101   2272275  
  9130.000000   2272340   2272942   2273573   2273761   2273286  
  9120.000000   2272198   2270816   2269538   2268678   2268327  
  9110.000000   2268337   2268433   2268311   2267779   2266769  
  9100.000000   2265359   2263660   2261787   2259833   2257902  
  9090.000000   2256152   2254756   2253897   2253669   2254066  
  9080.000000   2254955   2256156   2257497   2258880   2260248  
  9070.000000   2261529   2262559   2263071   2262753   2261358  
  9060.000000   2258850   2255489   2251820   2248490   2246023  
  9050.000000   2244627   2244123   2244026   2243720   2242718  
  9040.000000   2240843   2238272   2235432   2232833   2230886  
  9030.000000   2229794   2229530   2229910   2230720   2231758  
  9020.000000   2232886   2233976   2234917   2235580   2235855  
  9010.000000   2235680   2235082   2234163   2233086   2232015  
  9000.000000   2231106   2230458   2230133   2230142   2230456  
  8990.000000   2230989   2231586   2232034   2232096   2231618  
  8980.000000   2230573   2229142   2227631   2226445   2225914  
  8970.000000   2226219   2227295   2228893   2230641   2232153  
  8960.000000   2233087   2233196   2232336   2230436   2227510  
  8950.000000   2223665   2219174   2214439   2209947   2206176  
  8940.000000   2203473   2201967   2201509   2201783   2202407  
  8930.000000   2203091   2203674   2204153   2204614   2205120  
  8920.000000   2205654   2206072   2206232   2205991   2205362  
  8910.000000   2204432   2203419   2202492   2201769   2201230  
  8900.000000   2200790   2200350   2199861   2199392   2199104  
  8890.000000   2199237   2199995   2201531   2203865   2206896  
  8880.000000   2210378   2213974   2217288   2219923   2221552  
  8870.000000   2221997   2221293   2219671   2217493   2215145  
  8860.000000   2212935   2211026   2209396   2207926   2206452  
  8850.000000   2204899   2203276   2201699   2200290   2199133  
  8840.000000   2198218   2197454   2196734   2195965   2195132  
  8830.000000   2194267   2193448   2192737   2192181   2191825  
  8820.000000   2191748   2192075   2192953   2194479   2196615  
  8810.000000   2199139   2201657   2203698   2204871   2204992  
  8800.000000   2204170   2202744   2201163   2199815   2198889  
  8790.000000   2198354   2197989   2197548   2196855   2195918  
  8780.000000   2194893   2194012   2193453   2193242   2193231  
  8770.000000   2193144   2192691   2191672   2190071   2188048  
  8760.000000   2185928   2184087   2182880   2182545   2183166  
  8750.000000   2184643   2186715   2188998   2191079   2192606  
  8740.000000   2193377   2193406   2192897   2192208   2191722  
  8730.000000   2191737   2192380   2193557   2195014   2196398  
  8720.000000   2197380   2197720   2197308   2196166   2194412  
  8710.000000   2192248   2189924   2187731   2185958   2184873  
  8700.000000   2184641   2185310   2186738   2188647   2190650  
  8690.000000   2192382   2193577   2194126   2194080   2193567  
  8680.000000   2192761   2191756   2190591   2189222   2187634  
  8670.000000   2185868   2184080   2182514   2181433   2181059  
  8660.000000   2181478   2182638   2184346   2186337   2188347  
  8650.000000   2190157   2191639   2192733   2193455   2193854  
  8640.000000   2194021   2194067   2194135   2194370   2194909  
  8630.000000   2195822   2197084   2198567   2200055   2201316  
  8620.000000   2202159   2202513   2202433   2202094   2201722  
  8610.000000   2201516   2201581   2201909   2202395   2202904  
  8600.000000   2203336   2203670   2203972   2204348   2204887  
  8590.000000   2205603   2206411   2207161   2207692   2207904  
  8580.000000   2207802   2207512   2207236   2207195   2207554  
  8570.000000   2208371   2209587   2211035   2212481   2213673  
  8560.000000   2214387   2214479   2213916   2212806   2211395  
  8550.000000   2210028   2209075   2208826   2209399   2210684  
  8540.000000   2212359   2213965   2215049   2215313   2214721  
  8530.000000   2213492   2212018   2210715   2209898   2209679  
  8520.000000   2209978   2210595   2211337   2212099   2212894  
  8510.000000   2213813   2214943   2216288   2217735   2219086  
  8500.000000   2220149   2220801   2221053   2221026   2220908  
  8490.000000   2220871   2220999   2221303   2221732   2222247  
  8480.000000   2222835   2223521   2224316   2225170   2225934  
  8470.000000   2226384   2226289   2225511   2224082   2222213  
  8460.000000   2220253   2218586   2217522   2217216   2217634  
  8450.000000   2218607   2219885   2221240   2222480   2223504  
  8440.000000   2224265   2224775   2225077   2225232   2225327  
  8430.000000   2225429   2225594   2225789   2225909   2225767  
  8420.000000   2225178   2224032   2222364   2220394   2218474  
  8410.000000   2217022   2216372   2216692   2217908   2219760  
  8400.000000   2221880   2223898   2225533   2226627   2227165  
  8390.000000   2227201   2226832   2226132   2225185   2224076  
  8380.000000   2222917   2221845   2220989   2220463   2220309  
  8370.000000   2220517   2220991   2221622   2222283   2222871  
  8360.000000   2223281   2223406   2223134   2222366   2221063  
  8350.000000   2219270   2217149   2214955   2212989   2211506  
  8340.000000   2210633   2210341   2210447   2210698   2210840  
  8330.000000   2210712   2210271   2209596   2208825   2208089  
  8320.000000   2207464   2206950   2206498   2206033   2205504  
  8310.000000   2204884   2204178   2203399   2202557   2201659  
  8300.000000   2200711   2199743   2198813   2197997   2197359  
  8290.000000   2196919   2196643   2196438   2196187   2195786  
  8280.000000   2195188   2194416   2193559   2192736   2192050  
  8270.000000   2191565   2191283   2191163   2191130   2191119  
  8260.000000   2191074   2190973   2190808   2190589   2190320  
  8250.000000   2189996   2189592   2189057   2188314   2187275  
  8240.000000   2185863   2184054   2181892   2179520   2177141  
  8230.000000   2175008   2173328   2172241   2171741   2171714  
  8220.000000   2171941   2172187   2172236   2171945   2171240  
  8210.000000   2170104   2168553   2166622   2164368   2161887  
  8200.000000   2159323   2156858   2154683   2152946   2151691  
  8190.000000   2150850   2150241   2149638   2148832   2147698  
  8180.000000   2146226   2144493   2142637   2140774   2138985  
  8170.000000   2137278   2135627   2133995   2132383   2130828  
  8160.000000   2129409   2128203   2127262   2126584   2126121  
  8150.000000   2125784   2125471   2125091   2124583   2123922  
  8140.000000   2123126   2122245   2121356   2120539   2119858  
  8130.000000   2119338   2118948   2118605   2118188   2117577  
  8120.000000   2116686   2115492   2114036   2112409   2110710  
  8110.000000   2109015   2107358   2105740   2104149   2102597  
  8100.000000   2101134   2099839   2098795   2098045   2097559  
  8090.000000   2097232   2096905   2096416   2095660   2094624  
  8080.000000   2093396   2092139   2091037   2090233   2089792  
  8070.000000   2089672   2089745   2089825   2089729   2089310  
  8060.000000   2088502   2087326   2085880   2084318   2082799  
  8050.000000   2081465   2080392   2079602   2079052   2078679  
  8040.000000   2078410   2078198   2078004   2077800   2077539  
  8030.000000   2077139   2076493   2075485   2074040   2072156  
  8020.000000   2069933   2067558   2065268   2063289   2061774  
  8010.000000   2060767   2060196   2059897   2059666   2059316  
  8000.000000   2058719   2057836   2056709   2055449   2054205  
  7990.000000   2053129   2052350   2051937   2051894   2052135  
  7980.000000   2052509   2052811   2052833   2052412   2051483  
  7970.000000   2050095   2048417   2046683   2045138   2043957  
  7960.000000   2043203   2042808   2042599   2042374   2041967  
  7950.000000   2041327   2040527   2039744   2039183   2038989  
  7940.000000   2039174   2039592   2039979   2040033   2039541  
  7930.000000   2038442   2036890   2035182   2033681   2032679  
  7920.000000   2032298   2032451   2032877   2033248   2033289  
  7910.000000   2032882   2032106   2031198   2030459   2030134  
  7900.000000   2030323   2030945   2031776   2032529   2032960  
  7890.000000   2032935   2032475   2031722   2030888   2030183  
  7880.000000   2029750   2029633   2029776   2030045   2030277  
  7870.000000   2030312   2030047   2029455   2028593   2027601  
  7860.000000   2026655   2025938   2025566   2025580   2025907  
  7850.000000   2026406   2026900   2027240   2027343   2027213  
  7840.000000   2026914   2026530   2026118   2025674   2025145  
  7830.000000   2024447   2023524   2022386   2021123   2019895  
  7820.000000   2018875   2018212   2017965   2018107   2018517  
  7810.000000   2019037   2019501   2019785   2019822   2019605  
  7800.000000   2019168   2018566   2017850   2017056   2016204  
  7790.000000   2015305   2014368   2013412   2012461   2011553  
  7780.000000   2010717   2009974   2009319   2008725   2008141  
  7770.000000   2007506   2006768   2005898   2004904   2003836  
  7760.000000   2002768   2001792   2000984   2000395   2000030  
  7750.000000   1999864   1999838   1999877   1999906   1999846  
  7740.000000   1999628   1999188   1998477   1997471   1996186  
  7730.000000   1994686   1993086   1991535   1990183   1989150  
  7720.000000   1988482   1988148   1988033   1987978   1987818  
  7710.000000   1987428   1986753   1985813   1984697   1983528  
  7700.000000   1982427   1981486   1980748   1980203   1979803  
  7690.000000   1979477   1979151   1978765   1978283   1977692  
  7680.000000   1977004   1976246   1975450   1974641   1973839  
  7670.000000   1973054   1972296   1971576   1970921   1970367  
  7660.000000   1969952   1969704   1969622   1969669   1969767  
  7650.000000   1969823   1969747   1969479   1969014   1968390  
  7640.000000   1967687   1966988   1966367   1965857   1965456  
  7630.000000   1965129   1964835   1964541   1964232   1963921  
  7620.000000   1963630   1963388   1963215   1963118   1963088  
  7610.000000   1963096   1963098   1963028   1962824   1962429  
  7600.000000   1961826   1961043   1960162   1959305   1958606  
  7590.000000   1958171   1958044   1958191   1958506   1958851  
  7580.000000   1959099   1959174   1959073   1958848   1958578  
  7570.000000   1958322   1958098   1957868   1957575   1957165  
  7560.000000   1956640   1956058   1955527   1955165   1955062  
  7550.000000   1955240   1955648   1956181   1956717   1957162  
  7540.000000   1957480   1957690   1957859   1958052   1958320  
  7530.000000   1958659   1959030   1959361   1959594   1959691  
  7520.000000   1959666   1959566   1959463   1959421   1959482  
  7510.000000   1959656   1959923   1960255   1960634   1961061  
  7500.000000   1961559   1962156   1962871   1963686   1964555  
  7490.000000   1965399   1966149   1966752   1967211   1967570  
  7480.000000   1967916   1968332   1968880   1969571   1970381  
  7470.000000   1971250   1972125   1972969   1973781   1974578  
  7460.000000   1975389   1976219   1977062   1977890   1978689  
  7450.000000   1979461   1980250   1981121   1982154   1983404  
  7440.000000   1984886   1986564   1988369   1990217   1992040  
  7430.000000   1993791   1995459   1997044   1998555   1999985  
  7420.000000   2001322   2002548   2003664   2004696   2005705  
  7410.000000   2006776   2007998   2009443   2011141   2013068  
  7400.000000   2015147   2017257   2019267   2021056   2022543  
  7390.000000   2023707   2024596   2025312   2025984   2026741  
  7380.000000   2027684   2028866   2030279   2031879   2033596  
  7370.000000   2035367   2037134   2038856   2040495   2042020  
  7360.000000   2043396   2044599   2045625   2046499   2047279  
  7350.000000   2048037   2048849   2049763   2050789   2051900  
  7340.000000   2053048   2054190   2055304   2056400   2057505  
  7330.000000   2058658   2059878   2061166   2062500   2063847  
  7320.000000   2065179   2066478   2067736   2068951   2070120  
  7310.000000   2071230   2072267   2073214   2074068   2074840  
  7300.000000   2075552   2076238   2076933   2077673   2078488  
  7290.000000   2079406   2080443   2081603   2082859   2084163  
  7280.000000   2085441   2086616   2087619   2088420   2089036  
  7270.000000   2089528   2089980   2090465   2091025   2091654  
  7260.000000   2092306   2092914   2093427   2093818   2094116  
  7250.000000   2094377   2094689   2095128   2095763   2096619  
  7240.000000   2097709   2099008   2100492   2102117   2103857  
  7230.000000   2105679   2107576   2109538   2111581   2113710  
  7220.000000   2115945   2118277   2120701   2123178   2125685  
  7210.000000   2128186   2130679   2133160   2135657   2138180  
  7200.000000   2140745   2143340   2145960   2148585   2151227  
  7190.000000   2153903   2156656   2159522   2162530   2165677  
  7180.000000   2168942   2172276   2175645   2179010   2182370  
  7170.000000   2185712   2189051   2192369   2195667   2198916  
  7160.000000   2202129   2205319   2208551   2211893   2215437  
  7150.000000   2219251   2223388   2227848   2232609   2237598  
  7140.000000   2242751   2247980   2253234   2258455   2263633  
  7130.000000   2268742   2273797   2278792   2283761   2288722  
  7120.000000   2293734   2298836   2304100   2309565   2315276  
  7110.000000   2321234   2327429   2333816   2340355   2346989  
  7100.000000   2353691   2360435   2367223   2374046   2380904  
  7090.000000   2387764   2394598   2401358   2408023   2414582  
  7080.000000   2421067   2427518   2433994   2440535   2447165  
  7070.000000   2453878   2460656   2467474   2474311   2481154  
  7060.000000   2487997   2494830   2501645   2508431   2515193  
  7050.000000   2521943   2528714   2535537   2542428   2549373  
  7040.000000   2556325   2563214   2569974   2576568   2583000  
  7030.000000   2589321   2595598   2601900   2608259   2614674  
  7020.000000   2621104   2627498   2633805   2640003   2646080  
  7010.000000   2652052   2657927   2663727   2669460   2675153  
  7000.000000   2680822   2686493   2692158   2697800   2703356  
  6990.000000   2708762   2713950   2718895   2723604   2728132  
  6980.000000   2732529   2736839   2741054   2745152   2749083  
  6970.000000   2752843   2756459   2760027   2763642   2767404  
  6960.000000   2771330   2775389   2779469   2783458   2787247  
  6950.000000   2790799   2794117   2797256   2800256   2803155  
  6940.000000   2805945   2808616   2811145   2813545   2815838  
  6930.000000   2818071   2820266   2822433   2824538   2826546  
  6920.000000   2828407   2830106   2831639   2833038   2834330  
  6910.000000   2835556   2836737   2837907   2839086   2840311  
  6900.000000   2841602   2842975   2844414   2845887   2847342  
  6890.000000   2848736   2850037   2851239   2852347   2853371  
  6880.000000   2854307   2855147   2855884   2856532   2857135  
  6870.000000   2857768   2858506   2859403   2860455   2861610  
  6860.000000   2862767   2863828   2864719   2865428   2865992  
  6850.000000   2866488   2866989   2867544   2868161   2868816  
  6840.000000   2869469   2870088   2870653   2871164   2871620  
  6830.000000   2872026   2872372   2872657   2872880   2873064  
  6820.000000   2873235   2873427   2873657   2873922   2874196  
  6810.000000   2874447   2874636   2874748   2874776   2874736  
  6800.000000   2874647   2874537   2874424   2874334   2874280  
  6790.000000   2874272   2874297   2874326   2874305   2874177  
  6780.000000   2873898   2873456   2872879   2872230   2871579  
  6770.000000   2870988   2870483   2870060   2869693   2869365  
  6760.000000   2869072   2868834   2868676   2868602   2868581  
  6750.000000   2868546   2868409   2868101   2867597   2866926  
  6740.000000   2866164   2865399   2864704   2864108   2863597  
  6730.000000   2863130   2862663   2862175   2861665   2861156  
  6720.000000   2860668   2860209   2859768   2859323   2858854  
  6710.000000   2858351   2857818   2857263   2856689   2856092  
  6700.000000   2855456   2854776   2854054   2853316   2852589  
  6690.000000   2851901   2851247   2850598   2849896   2849084  
  6680.000000   2848117   2846991   2845729   2844386   2843018  
  6670.000000   2841675   2840385   2839164   2838012   2836930  
  6660.000000   2835906   2834924   2833944   2832925   2831810  
  6650.000000   2830565   2829173   2827655   2826051   2824412  
  6640.000000   2822780   2821176   2819596   2818026   2816440  
  6630.000000   2814828   2813181   2811504   2809798   2808075  
  6620.000000   2806339   2804605   2802888   2801204   2799560  
  6610.000000   2797948   2796344   2794715   2793035   2791302  
  6600.000000   2789539   2787792   2786103   2784499   2782972  
  6590.000000   2781486   2779992   2778452   2776855   2775224  
  6580.000000   2773594   2771998   2770443   2768902   2767332  
  6570.000000   2765685   2763936   2762088   2760173   2758226  
  6560.000000   2756279   2754347   2752431   2750534   2748672  
  6550.000000   2746877   2745193   2743648   2742245   2740952  
  6540.000000   2739710   2738457   2737148   2735771   2734352  
  6530.000000   2732935   2731576   2730312   2729168   2728145  
  6520.000000   2727234   2726411   2725641   2724879   2724071  
  6510.000000   2723159   2722104   2720895   2719559   2718157  
  6500.000000   2716762   2715435   2714209   2713080   2712019  
  6490.000000   2710993   2709980   2708982   2708015   2707092  
  6480.000000   2706204   2705316   2704375   2703329   2702155  
  6470.000000   2700872   2699535   2698220   2696999   2695915  
  6460.000000   2694976   2694156   2693412   2692694   2691958  
  6450.000000   2691167   2690297   2689335   2688287   2687182  
  6440.000000   2686072   2685023   2684100   2683336   2682731  
  6430.000000   2682236   2681782   2681293   2680723   2680063  
  6420.000000   2679346   2678624   2677949   2677351   2676834  
  6410.000000   2676380   2675967   2675575   2675200   2674840  
  6400.000000   2674498   2674169   2673843   2673516   2673192  
  6390.000000   2672890   2672635   2672451   2672341   2672287  
  6380.000000   2672247   2672173   2672024   2671780   2671447  
  6370.000000   2671051   2670621   2670185   2669753   2669331  
  6360.000000   2668909   2668484   2668044   2667586   2667099  
  6350.000000   2666577   2666013   2665414   2664793   2664178  
  6340.000000   2663588   2663038   2662514   2661988   2661418  
  6330.000000   2660772   2660029   2659199   2658304   2657379  
  6320.000000   2656445   2655514   2654573   2653610   2652608  
  6310.000000   2651568   2650497   2649418   2648342   2647285  
  6300.000000   2646242   2645209   2644168   2643105   2641993  
  6290.000000   2640811   2639528   2638129   2636609   2634991  
  6280.000000   2633316   2631642   2630018   2628475   2627006  
  6270.000000   2625582   2624146   2622652   2621064   2619381  
  6260.000000   2617616   2615801   2613959   2612113   2610273  
  6250.000000   2608448   2606647   2604881   2603156   2601472  
  6240.000000   2599812   2598157   2596487   2594797   2593097  
  6230.000000   2591410   2589758   2588143   2586550   2584941  
  6220.000000   2583279   2581540   2579726   2577866   2576000  
  6210.000000   2574162   2572366   2570603   2568851   2567091  
  6200.000000   2565326   2563585   2561905   2560322   2558844  
  6190.000000   2557451   2556099   2554736   2553329   2551866  
  6180.000000   2550365   2548855   2547365   2545910   2544489  
  6170.000000   2543092   2541710   2540339   2538984   2537647  
  6160.000000   2536325   2535006   2533673   2532312   2530923  
  6150.000000   2529518   2528119   2526743   2525398   2524075  
  6140.000000   2522758   2521435   2520106   2518789   2517514  
  6130.000000   2516306   2515182   2514130   2513129   2512147  
  6120.000000   2511163   2510168   2509177   2508208   2507287  
  6110.000000   2506428   2505644   2504936   2504311   2503762  
  6100.000000   2503290   2502873   2502492   2502109   2501704  
  6090.000000   2501263   2500808   2500371   2500003   2499737  
  6080.000000   2499596   2499564   2499618   2499720   2499856  
  6070.000000   2500016   2500221   2500482   2500817   2501213  
  6060.000000   2501658   2502123   2502599   2503079   2503584  
  6050.000000   2504133   2504756   2505465   2506275   2507182  
  6040.000000   2508195   2509307   2510523   2511830   2513215  
  6030.000000   2514650   2516117   2517597   2519099   2520635  
  6020.000000   2522235   2523909   2525661   2527466   2529298  
  6010.000000   2531120   2532920   2534694   2536461   2538234  
  6000.000000   2540026   2541825   2543623   2545402   2547166  
  5990.000000   2548931   2550734   2552607   2554576   2556642  
  5980.000000   2558796   2561010   2563273   2565577   2567939  
  5970.000000   2570370   2572887   2575486   2578160   2580885  
  5960.000000   2583656   2586461   2589314   2592215   2595168  
  5950.000000   2598157   2601168   2604177   2607185   2610204  
  5940.000000   2613270   2616420   2619686   2623080   2626589  
  5930.000000   2630184   2633823   2637467   2641075   2644610  
  5920.000000   2648033   2651304   2654387   2657264   2659941  
  5910.000000   2662452   2664849   2667192   2669522   2671863  
  5900.000000   2674210   2676549   2678862   2681155   2683439  
  5890.000000   2685748   2688100   2690510   2692964   2695441  
  5880.000000   2697907   2700337   2702708   2705008   2707225  
  5870.000000   2709342   2711347   2713228   2714996   2716676  
  5860.000000   2718319   2719980   2721715   2723561   2725540  
  5850.000000   2727651   2729889   2732237   2734684   2737208  
  5840.000000   2739789   2742396   2745006   2747600   2750185  
  5830.000000   2752779   2755419   2758128   2760918   2763765  
  5820.000000   2766626   2769441   2772165   2774771   2777259  
  5810.000000   2779653   2781976   2784259   2786504   2788729  
  5800.000000   2790930   2793138   2795355   2797620   2799907  
  5790.000000   2802203   2804421   2806488   2808280   2809717  
  5780.000000   2810700   2811182   2811113   2810488   2809308  
  5770.000000   2807631   2805528   2803130   2800566   2797985  
  5760.000000   2795489   2793161   2791016   2789058   2787250  
  5750.000000   2785577   2784013   2782555   2781194   2779922  
  5740.000000   2778722   2777573   2776466   2775387   2774346  
  5730.000000   2773339   2772377   2771444   2770535   2769633  
  5720.000000   2768741   2767865   2767030   2766254   2765552  
  5710.000000   2764917   2764337   2763787   2763259   2762751  
  5700.000000   2762284   2761880   2761556   2761318   2761155  
  5690.000000   2761049   2760978   2760933   2760900   2760876  
  5680.000000   2760838   2760761   2760597   2760308   2759848  
  5670.000000   2759194   2758322   2757226   2755890   2754309  
  5660.000000   2752478   2750423   2748186   2745851   2743506  
  5650.000000   2741243   2739123   2737175   2735387   2733730  
  5640.000000   2732164   2730662   2729207   2727789   2726401  
  5630.000000   2725024   2723642   2722236   2720810   2719381  
  5620.000000   2717990   2716672   2715457   2714345   2713318  
  5610.000000   2712344   2711393   2710453   2709527   2708633  
  5600.000000   2707785   2706984   2706218   2705460   2704685  
  5590.000000   2703874   2703022   2702132   2701211   2700259  
  5580.000000   2699273   2698250   2697194   2696121   2695056  
  5570.000000   2694024   2693032   2692073   2691118   2690133  
  5560.000000   2689083   2687956   2686755   2685501   2684220  
  5550.000000   2682932   2681649   2680375   2679114   2677873  
  5540.000000   2676660   2675482   2674339   2673219   2672103  
  5530.000000   2670973   2669822   2668659   2667506   2666390  
  5520.000000   2665327   2664320   2663351   2662392   2661413  
  5510.000000   2660393   2659317   2658185   2656993   2655747  
  5500.000000   2654446   2653104   2651739   2650380   2649053  
  5490.000000   2647775   2646533   2645299   2644020   2642654  
  5480.000000   2641168   2639564   2637861   2636100   2634313  
  5470.000000   2632523   2630734   2628944   2627143   2625335  
  5460.000000   2623520   2621703   2619873   2618012   2616094  
  5450.000000   2614100   2612030   2609905   2607769   2605668  
  5440.000000   2603638   2601695   2599839   2598055   2596336  
  5430.000000   2594677   2593083   2591545   2590054   2588575  
  5420.000000   2587089   2585576   2584061   2582585   2581224  
  5410.000000   2580031   2579047   2578256   2577628   2577104  
  5400.000000   2576660   2576274   2575975   2575777   2575715  
  5390.000000   2575781   2575976   2576268   2576664   2577160  
  5380.000000   2577803   2578613   2579629   2580834   2582227  
  5370.000000   2583752   2585402   2587141   2588999   2590964  
  5360.000000   2593086   2595350   2597806   2600443   2603338  
  5350.000000   2606514   2610079   2614058   2618534   2623474  
  5340.000000   2628903   2634742   2641018   2647670   2654760  
  5330.000000   2662246   2670191   2678536   2687333   2696520  
  5320.000000   2706183   2716306   2727028   2738358   2750437  
  5310.000000   2763234   2776840   2791167   2806275   2822077  
  5300.000000   2838656   2855969   2874143   2893170   2913190  
  5290.000000   2934174   2956199   2979148   3002983   3027512  
  5280.000000   3052666   3078315   3104507   3131260   3158726  
  5270.000000   3186951   3215977   3245665   3275819   3306159  
  5260.000000   3336459   3366589   3396538   3426400   3456261  
  5250.000000   3486176   3516032   3545667   3574774   3603162  
  5240.000000   3630620   3657186   3682869   3707876   3732269  
  5230.000000   3756199   3779584   3802414   3824473   3845697  
  5220.000000   3865906   3885148   3903385   3920797   3937424  
  5210.000000   3953458   3968874   3983744   3997917   4011377  
  5200.000000   4023955   4035702   4046557   4056673   4066050  
  5190.000000   4074831   4082966   4090515   4097372   4103581  
  5180.000000   4109069   4113927   4118124   4121759   4124776  
  5170.000000   4127231   4129049   4130288   4130913   4131029  
  5160.000000   4130639   4129848   4128630   4127033   4124996  
  5150.000000   4122553   4119664   4116400   4112757   4108815  
  5140.000000   4104563   4100053   4095260   4090231   4084960  
  5130.000000   4079511   4073894   4068161   4062303   4056336  
  5120.000000   4050235   4044016   4037675   4031256   4024779  
  5110.000000   4018288   4011789   4005296   3998798   3992300  
  5100.000000   3985800   3979316   3972861   3966451   3960083  
  5090.000000   3953758   3947463   3941200   3934972   3928797  
  5080.000000   3922684   3916643   3910661   3904720   3898781  
  5070.000000   3892822   3886812   3880749   3874624   3868444  
  5060.000000   3862201   3855896   3849514   3843050   3836491  
  5050.000000   3829836   3823077   3816216   3809248   3802181  
  5040.000000   3795024   3787807   3780559   3773323   3766126  
  5030.000000   3758988   3751909   3744877   3737879   3730903  
  5020.000000   3723952   3717034   3710173   3703379   3696671  
  5010.000000   3690045   3683512   3677068   3670742   3664546  
  5000.000000   3658529   3652704   3647114   3641747   3636624  
  4990.000000   3631717   3627050   3622606   3618427   3614508  
  4980.000000   3610898   3607581   3604595   3601905   3599546  
  4970.000000   3597486   3595770   3594374   3593347   3592661  
  4960.000000   3592356   3592393   3592813   3593582   3594752  
  4950.000000   3596300   3598277   3600651   3603454   3606631  
  4940.000000   3610199   3614101   3618364   3622949   3627903  
  4930.000000   3633199   3638883   3644921   3651342   3658097  
  4920.000000   3665203   3672605   3680317   3688292   3696547  
  4910.000000   3705048   3713813   3722816   3732066   3741528  
  4900.000000   3751188   3761001   3770937   3780957   3791034  
  4890.000000   3801147   3811268   3821375   3831418   3841355  
  4880.000000   3851107   3860631   3869854   3878759   3887301  
  4870.000000   3895492   3903297   3910729   3917745   3924357  
  4860.000000   3930526   3936280   3941600   3946535   3951083  
  4850.000000   3955300   3959187   3962799   3966136   3969253  
  4840.000000   3972158   3974907   3977511   3980023   3982455  
  4830.000000   3984850   3987218   3989586   3991948   3994308  
  4820.000000   3996643   3998942   4001186   4003377   4005525  
  4810.000000   4007660   4009811   4012008   4014265   4016583  
  4800.000000   4018945   4021331   4023720   4026103   4028479  
  4790.000000   4030857   4033247   4035658   4038089   4040536  
  4780.000000   4042986   4045430   4047854   4050255   4052619  
  4770.000000   4054947   4057223   4059445   4061597   4063677  
  4760.000000   4065667   4067566   4069357   4071037   4072589  
  4750.000000   4074017   4075307   4076469   4077497   4078402  
  4740.000000   4079185   4079864   4080444   4080953   4081403  
  4730.000000   4081820   4082214   4082591   4082940   4083248  
  4720.000000   4083496   4083673   4083779   4083829   4083853  
  4710.000000   4083885   4083964   4084116   4084362   4084704  
  4700.000000   4085138   4085652   4086232   4086867   4087554  
  4690.000000   4088293   4089092   4089956   4090892   4091891  
  4680.000000   4092938   4093999   4095042   4096021   4096915  
  4670.000000   4097701   4098394   4099010   4099595   4100185  
  4660.000000   4100834   4101579   4102466   4103522   4104780  
  4650.000000   4106253   4107949   4109854   4111943   4114177  
  4640.000000   4116514   4118912   4121342   4123788   4126237  
  4630.000000   4128686   4131121   4133523   4135856   4138083  
  4620.000000   4140154   4142031   4143671   4145055   4146160  
  4610.000000   4146998   4147575   4147936   4148116   4148182  
  4600.000000   4148170   4148139   4148092   4148050   4147980  
  4590.000000   4147870   4147669   4147362   4146905   4146290  
  4580.000000   4145486   4144494   4143295   4141907   4140332  
  4570.000000   4138607   4136750   4134804   4132779   4130700  
  4560.000000   4128558   4126357   4124084   4121744   4119334  
  4550.000000   4116869   4114351   4111791   4109185   4106535  
  4540.000000   4103841   4101114   4098375   4095647   4092964  
  4530.000000   4090339   4087790   4085303   4082877   4080489  
  4520.000000   4078152   4075859   4073662   4071571   4069658  
  4510.000000   4067934   4066474   4065280   4064435   4063945  
  4500.000000   4063910   4064340   4065340   4066906   4069131  
  4490.000000   4071991   4075570   4079832   4084859   4090609  
  4480.000000   4097155   4104440   4112515   4121303   4130838  
  4470.000000   4141034   4151913   4163383   4175454   4188029  
  4460.000000   4201102   4214576   4228437   4242595   4257032  
  4450.000000   4271669   4286484   4301410   4316423   4331478  
  4440.000000   4346553   4361626   4376674   4391688   4406630  
  4430.000000   4421491   4436209   4450767   4465078   4479122  
  4420.000000   4492796   4506083   4518881   4531181   4542885  
  4410.000000   4553990   4564393   4574084   4582961   4591024  
  4400.000000   4598206   4604559   4610092   4614936   4619175  
  4390.000000   4622986   4626472   4629791   4633006   4636210  
  4380.000000   4639413   4642650   4645908   4649210   4652563  
  4370.000000   4656003   4659564   4663290   4667219   4671377  
  4360.000000   4675787   4680461   4685400   4690613   4696065  
  4350.000000   4701754   4707602   4713598   4719654   4725786  
  4340.000000   4731942   4738158   4744348   4750415   4756061  
  4330.000000   4760900   4764385   4765997   4765282   4762057  
  4320.000000   4756427   4748859   4740040   4730810   4721921  
  4310.000000   4713990   4707332   4702056   4698030   4695063  
  4300.000000   4692906   4691384   4690363   4689764   4689544  
  4290.000000   4689637   4690012   4690587   4691344   4692233  
  4280.000000   4693262   4694416   4695701   4697115   4698649  
  4270.000000   4700316   4702104   4704007   4705940   4707769  
  4260.000000   4709243   4710066   4709897   4708472   4705632  
  4250.000000   4701421   4696041   4689868   4683326   4676858  
  4240.000000   4670792   4665363   4660632   4656574   4653055  
  4230.000000   4649932   4647046   4644270   4641511   4638707  
  4220.000000   4635850   4632940   4630047   4627223   4624587  
  4210.000000   4622205   4620187   4618562   4617379   4616604  
  4200.000000   4616219   4616151   4616357   4616763   4617349  
  4190.000000   4618063   4618921   4619893   4621012   4622248  
  4180.000000   4623628   4625105   4626699   4628371   4630169  
  4170.000000   4632100   4634268   4636731   4639618   4642981  
  4160.000000   4646909   4651389   4656442   4661989   4668019  
  4150.000000   4674442   4681263   4688419   4695948   4703813  
  4140.000000   4712077   4720714   4729795   4739291   4749262  
  4130.000000   4759667   4770545   4781844   4793596   4805755  
  4120.000000   4818365   4831398   4844903   4858860   4873308  
  4110.000000   4888212   4903591   4919396   4935622   4952205  
  4100.000000   4969120   4986293   5003686   5021237   5038918  
  4090.000000   5056698   5074565   5092509   5110520   5128594  
  4080.000000   5146709   5164864   5183020   5201174   5219255  
  4070.000000   5237232   5254991   5272479   5289573   5306251  
  4060.000000   5322428   5338136   5353319   5368024   5382179  
  4050.000000   5395825   5408885   5421422   5433379   5444839  
  4040.000000   5455728   5466093   5475803   5484865   5493134  
  4030.000000   5500641   5507290   5513153   5518174   5522422  
  4020.000000   5525815   5528435   5530286   5531485   5532020  
  4010.000000   5532057   5531682   5530898   5529440   5527330  
  4000.000000   5524881  
##END= 
