##TITLE= Sample 014 By ssteindl date Montag, November 26 2018
##JCAMP-DX= 4.24
##DATA TYPE= INFRARED SPECTRUM
##ORIGIN= Exported PE Spectrum Data File
##OWNER= Sandra Steindl
##DATE= 18/11/26
##TIME= 11:34:14.00
##SPECTROMETER/DATA SYSTEM= PERKIN-ELMER Frontier FT-IR/NIR IR
##INSTRUMENT PARAMETERS=
  APODIZATION=stark
  DETECTOR=INGAAS
##RESOLUTION= 16.000000
##DELTAX= -2.000000
##XUNITS= 1/CM
##YUNITS= A
##XFACTOR= 1.00
##YFACTOR= 0.00000011920928955078
##FIRSTX= 10000.00
##LASTX= 4000.00
##NPOINTS= 3001
##FIRSTY= 0.303837
##MAXY= 0.651429
##MINY= 0.236769
##XYDATA= (X++(Y..Y))
 10000.000000   2548766   2550601   2552546   2554499   2555900  
  9990.000000   2556260   2555547   2554155   2552420   2550504  
  9980.000000   2548443   2546159   2543506   2540299   2536549  
  9970.000000   2532375   2528005   2523635   2519370   2515259  
  9960.000000   2511325   2507807   2505181   2504199   2505650  
  9950.000000   2510043   2517322   2526706   2536824   2546002  
  9940.000000   2552668   2555723   2554824   2550435   2543827  
  9930.000000   2536686   2530819   2527567   2527505   2530208  
  9920.000000   2534354   2538129   2539726   2538045   2532989  
  9910.000000   2525718   2518185   2512663   2510858   2513417  
  9900.000000   2519650   2527814   2535721   2541447   2543844  
  9890.000000   2542747   2538734   2532833   2526075   2519291  
  9880.000000   2513085   2507833   2503874   2501324   2500092  
  9870.000000   2499601   2498889   2496826   2492540   2485925  
  9860.000000   2477773   2469726   2463710   2461369   2463500  
  9850.000000   2469819   2479132   2489716   2499866   2508232  
  9840.000000   2514009   2516836   2516715   2513848   2508743  
  9830.000000   2502177   2495313   2489410   2485580   2484320  
  9820.000000   2485301   2487449   2489287   2489627   2487963  
  9810.000000   2484797   2481282   2478813   2478349   2480103  
  9800.000000   2483481   2487423   2490871   2493174   2494255  
  9790.000000   2494455   2494230   2493802   2493092   2491758  
  9780.000000   2489536   2486348   2482462   2478275   2474147  
  9770.000000   2470254   2466542   2463016   2459833   2457578  
  9760.000000   2457024   2458959   2463698   2470865   2479310  
  9750.000000   2487366   2493333   2495925   2494704   2490041  
  9740.000000   2483029   2474985   2467166   2460465   2455343  
  9730.000000   2451924   2450036   2449422   2449705   2450575  
  9720.000000   2451692   2452869   2453941   2454850   2455495  
  9710.000000   2455675   2455119   2453470   2450581   2446500  
  9700.000000   2441660   2436647   2432083   2428326   2425404  
  9690.000000   2423034   2420860   2418684   2416632   2415148  
  9680.000000   2414763   2415843   2418333   2421767   2425456  
  9670.000000   2428793   2431538   2433840   2436108   2438653  
  9660.000000   2441471   2444112   2445902   2446249   2444974  
  9650.000000   2442478   2439540   2437062   2435570   2435130  
  9640.000000   2435288   2435463   2435202   2434445   2433431  
  9630.000000   2432454   2431536   2430262   2427902   2423731  
  9620.000000   2417496   2409640   2401310   2393953   2388808  
  9610.000000   2386457   2386635   2388459   2390807   2392796  
  9600.000000   2394081   2394827   2395550   2396656   2398270  
  9590.000000   2400045   2401422   2401825   2401017   2399160  
  9580.000000   2396821   2394762   2393719   2394247   2396551  
  9570.000000   2400530   2405719   2411414   2416753   2420878  
  9560.000000   2423132   2423186   2421155   2417535   2413081  
  9550.000000   2408569   2404602   2401493   2399276   2397869  
  9540.000000   2397158   2397160   2397873   2399287   2401168  
  9530.000000   2403144   2404726   2405519   2405354   2404324  
  9520.000000   2402717   2400806   2398720   2396352   2393515  
  9510.000000   2390104   2386291   2382548   2379474   2377552  
  9500.000000   2376857   2377010   2377277   2376904   2375468  
  9490.000000   2373066   2370309   2367976   2366683   2366541  
  9480.000000   2367163   2367854   2367955   2367165   2365633  
  9470.000000   2363909   2362668   2362466   2363526   2365711  
  9460.000000   2368597   2371603   2374119   2375544   2375391  
  9450.000000   2373285   2369160   2363303   2356463   2349704  
  9440.000000   2344159   2340682   2339535   2340339   2342220  
  9430.000000   2344222   2345667   2346428   2346875   2347619  
  9420.000000   2349147   2351476   2354162   2356411   2357563  
  9410.000000   2357301   2355879   2353927   2352169   2351150  
  9400.000000   2350998   2351561   2352517   2353722   2355238  
  9390.000000   2357318   2360105   2363410   2366597   2368754  
  9380.000000   2368987   2366773   2362157   2355780   2348688  
  9370.000000   2342007   2336632   2333017   2331162   2330735  
  9360.000000   2331211   2332019   2332574   2332367   2331025  
  9350.000000   2328459   2324958   2321174   2318015   2316311  
  9340.000000   2316600   2318816   2322338   2326095   2328969  
  9330.000000   2330189   2329589   2327667   2325292   2323427  
  9320.000000   2322759   2323578   2325716   2328687   2331825  
  9310.000000   2334459   2336028   2336128   2334558   2331322  
  9300.000000   2326685   2321129   2315309   2309858   2305261  
  9290.000000   2301706   2299105   2297211   2295754   2294665  
  9280.000000   2294048   2294222   2295440   2297780   2300986  
  9270.000000   2304538   2307868   2310473   2312133   2312768  
  9260.000000   2312466   2311260   2309153   2306095   2302134  
  9250.000000   2297543   2292892   2288998   2286669   2286447  
  9240.000000   2288346   2291876   2296134   2300117   2302946  
  9230.000000   2304137   2303683   2301967   2299612   2297237  
  9220.000000   2295385   2294372   2294299   2294990   2296063  
  9210.000000   2297031   2297408   2296882   2295341   2293034  
  9200.000000   2290458   2288287   2287075   2287106   2288262  
  9190.000000   2290060   2291781   2292692   2292276   2290369  
  9180.000000   2287202   2283272   2279215   2275586   2272764  
  9170.000000   2270855   2269689   2268922   2268132   2267021  
  9160.000000   2265499   2263814   2262464   2262060   2263046  
  9150.000000   2265510   2269067   2272831   2275693   2276620  
  9140.000000   2275114   2271304   2265936   2260136   2255045  
  9130.000000   2251522   2249847   2249822   2250937   2252667  
  9120.000000   2254646   2256663   2258615   2260315   2261426  
  9110.000000   2261380   2259567   2255611   2249698   2242597  
  9100.000000   2235548   2229971   2227117   2227699   2231620  
  9090.000000   2238055   2245657   2252920   2258507   2261525  
  9080.000000   2261738   2259504   2255670   2251250   2247225  
  9070.000000   2244306   2242872   2242904   2244083   2245964  
  9060.000000   2248113   2250252   2252171   2253812   2255121  
  9050.000000   2256065   2256551   2256471   2255788   2254528  
  9040.000000   2252832   2250861   2248793   2246751   2244796  
  9030.000000   2242970   2241311   2239923   2238907   2238362  
  9020.000000   2238275   2238535   2238926   2239210   2239199  
  9010.000000   2238820   2238145   2237312   2236462   2235637  
  9000.000000   2234788   2233798   2232574   2231113   2229547  
  8990.000000   2228097   2227002   2226412   2226332   2226620  
  8980.000000   2227033   2227328   2227322   2226952   2226263  
  8970.000000   2225385   2224497   2223773   2223357   2223322  
  8960.000000   2223639   2224170   2224663   2224820   2224380  
  8950.000000   2223230   2221475   2219414   2217467   2215990  
  8940.000000   2215158   2214852   2214732   2214354   2213384  
  8930.000000   2211751   2209685   2207659   2206172   2205618  
  8920.000000   2206111   2207508   2209470   2211605   2213603  
  8910.000000   2215246   2216432   2217051   2216994   2216114  
  8900.000000   2214327   2211685   2208436   2205030   2201994  
  8890.000000   2199839   2198876   2199213   2200708   2203069  
  8880.000000   2205902   2208802   2211379   2213239   2214018  
  8870.000000   2213402   2211287   2207798   2203390   2198722  
  8860.000000   2194590   2191679   2190399   2190767   2192392  
  8850.000000   2194687   2197017   2198980   2200431   2201536  
  8840.000000   2202602   2203938   2205687   2207747   2209819  
  8830.000000   2211460   2212277   2211988   2210561   2208148  
  8820.000000   2205071   2201713   2198458   2195626   2193423  
  8810.000000   2191948   2191185   2191061   2191441   2192208  
  8800.000000   2193249   2194514   2195990   2197685   2199603  
  8790.000000   2201673   2203764   2205625   2206979   2207538  
  8780.000000   2207142   2205802   2203745   2201393   2199258  
  8770.000000   2197848   2197493   2198291   2200042   2202332  
  8760.000000   2204625   2206413   2207328   2207210   2206118  
  8750.000000   2204279   2202027   2199713   2197660   2196111  
  8740.000000   2195215   2195022   2195484   2196474   2197793  
  8730.000000   2199224   2200565   2201669   2202454   2202894  
  8720.000000   2202999   2202779   2202258   2201474   2200525  
  8710.000000   2199580   2198872   2198644   2199062   2200144  
  8700.000000   2201714   2203440   2204934   2205855   2206041  
  8690.000000   2205513   2204484   2203228   2202009   2200992  
  8680.000000   2200240   2199770   2199618   2199892   2200738  
  8670.000000   2202295   2204589   2207480   2210634   2213605  
  8660.000000   2215948   2217347   2217708   2217162   2216017  
  8650.000000   2214646   2213389   2212474   2211994   2211935  
  8640.000000   2212200   2212669   2213197   2213660   2213928  
  8630.000000   2213935   2213650   2213135   2212509   2211930  
  8620.000000   2211547   2211440   2211611   2211953   2212311  
  8610.000000   2212496   2212364   2211826   2210883   2209611  
  8600.000000   2208169   2206766   2205656   2205077   2205207  
  8590.000000   2206112   2207692   2209705   2211795   2213621  
  8580.000000   2214954   2215750   2216171   2216485   2216986  
  8570.000000   2217808   2218888   2219925   2220526   2220330  
  8560.000000   2219192   2217258   2214959   2212895   2211642  
  8550.000000   2211604   2212870   2215233   2218240   2221361  
  8540.000000   2224123   2226223   2227553   2228183   2228297  
  8530.000000   2228107   2227798   2227481   2227223   2227036  
  8520.000000   2226932   2226906   2226954   2227065   2227208  
  8510.000000   2227350   2227445   2227469   2227416   2227317  
  8500.000000   2227236   2227252   2227442   2227862   2228537  
  8490.000000   2229461   2230578   2231811   2233057   2234214  
  8480.000000   2235189   2235919   2236390   2236616   2236640  
  8470.000000   2236498   2236216   2235788   2235198   2234439  
  8460.000000   2233542   2232611   2231801   2231302   2231258  
  8450.000000   2231735   2232670   2233888   2235138   2236175  
  8440.000000   2236847   2237113   2237057   2236819   2236553  
  8430.000000   2236357   2236256   2236231   2236266   2236395  
  8420.000000   2236711   2237332   2238343   2239733   2241355  
  8410.000000   2242951   2244216   2244913   2244950   2244418  
  8400.000000   2243550   2242661   2242030   2241829   2242060  
  8390.000000   2242596   2243225   2243738   2243959   2243788  
  8380.000000   2243189   2242189   2240835   2239200   2237376  
  8370.000000   2235485   2233679   2232105   2230889   2230093  
  8360.000000   2229710   2229649   2229760   2229877   2229870  
  8350.000000   2229678   2229326   2228908   2228567   2228452  
  8340.000000   2228672   2229268   2230192   2231331   2232526  
  8330.000000   2233623   2234498   2235080   2235347   2235315  
  8320.000000   2234999   2234402   2233499   2232267   2230708  
  8310.000000   2228887   2226926   2225003   2223283   2221899  
  8300.000000   2220881   2220170   2219616   2219044   2218296  
  8290.000000   2217275   2215969   2214426   2212746   2211037  
  8280.000000   2209416   2207980   2206822   2206003   2205569  
  8270.000000   2205517   2205800   2206312   2206914   2207458  
  8260.000000   2207824   2207952   2207845   2207562   2207191  
  8250.000000   2206826   2206535   2206357   2206292   2206311  
  8240.000000   2206356   2206356   2206219   2205854   2205171  
  8230.000000   2204110   2202645   2200820   2198735   2196551  
  8220.000000   2194446   2192604   2191152   2190169   2189634  
  8210.000000   2189462   2189492   2189547   2189449   2189074  
  8200.000000   2188359   2187314   2186008   2184530   2182966  
  8190.000000   2181365   2179739   2178076   2176366   2174630  
  8180.000000   2172913   2171292   2169823   2168540   2167418  
  8170.000000   2166398   2165396   2164342   2163201   2161973  
  8160.000000   2160686   2159364   2158017   2156627   2155174  
  8150.000000   2153650   2152093   2150580   2149214   2148087  
  8140.000000   2147245   2146671   2146291   2145994   2145674  
  8130.000000   2145254   2144696   2143994   2143150   2142163  
  8120.000000   2141033   2139763   2138394   2136999   2135679  
  8110.000000   2134523   2133569   2132789   2132078   2131307  
  8100.000000   2130362   2129204   2127889   2126556   2125369  
  8090.000000   2124455   2123836   2123419   2123024   2122452  
  8080.000000   2121566   2120338   2118863   2117307   2115846  
  8070.000000   2114584   2113522   2112558   2111545   2110357  
  8060.000000   2108960   2107438   2105970   2104775   2104016  
  8050.000000   2103755   2103910   2104292   2104668   2104832  
  8040.000000   2104676   2104190   2103462   2102601   2101699  
  8030.000000   2100786   2099839   2098806   2097666   2096456  
  8020.000000   2095281   2094288   2093603   2093302   2093348  
  8010.000000   2093634   2093986   2094239   2094272   2094037  
  8000.000000   2093548   2092858   2092024   2091078   2090031  
  7990.000000   2088873   2087605   2086242   2084827   2083418  
  7980.000000   2082069   2080818   2079679   2078651   2077720  
  7970.000000   2076871   2076101   2075402   2074774   2074203  
  7960.000000   2073677   2073175   2072692   2072226   2071803  
  7950.000000   2071447   2071198   2071086   2071135   2071360  
  7940.000000   2071753   2072297   2072952   2073664   2074363  
  7930.000000   2074978   2075438   2075688   2075695   2075439  
  7920.000000   2074925   2074161   2073169   2071984   2070657  
  7910.000000   2069261   2067884   2066625   2065557   2064739  
  7900.000000   2064175   2063849   2063710   2063709   2063793  
  7890.000000   2063915   2064019   2064038   2063891   2063501  
  7880.000000   2062825   2061874   2060741   2059571   2058547  
  7870.000000   2057810   2057428   2057355   2057440   2057480  
  7860.000000   2057279   2056734   2055865   2054833   2053880  
  7850.000000   2053267   2053177   2053656   2054584   2055703  
  7840.000000   2056690   2057245   2057179   2056463   2055229  
  7830.000000   2053728   2052246   2051028   2050209   2049792  
  7820.000000   2049669   2049668   2049619   2049399   2048958  
  7810.000000   2048309   2047496   2046573   2045576   2044535  
  7800.000000   2043485   2042483   2041615   2040972   2040620  
  7790.000000   2040568   2040742   2041010   2041211   2041224  
  7780.000000   2040996   2040575   2040073   2039625   2039323  
  7770.000000   2039178   2039110   2038974   2038618   2037933  
  7760.000000   2036890   2035547   2034022   2032461   2030990  
  7750.000000   2029703   2028638   2027805   2027182   2026738  
  7740.000000   2026432   2026220   2026052   2025878   2025654  
  7730.000000   2025349   2024944   2024433   2023816   2023090  
  7720.000000   2022262   2021343   2020367   2019388   2018466  
  7710.000000   2017657   2016977   2016402   2015860   2015265  
  7700.000000   2014545   2013673   2012688   2011670   2010719  
  7690.000000   2009898   2009214   2008596   2007940   2007139  
  7680.000000   2006153   2005025   2003888   2002917   2002282  
  7670.000000   2002077   2002300   2002841   2003525   2004155  
  7660.000000   2004565   2004662   2004438   2003969   2003386  
  7650.000000   2002838   2002454   2002311   2002414   2002689  
  7640.000000   2003000   2003174   2003048   2002516   2001563  
  7630.000000   2000279   1998834   1997445   1996293   1995499  
  7620.000000   1995076   1994954   1995008   1995106   1995147  
  7610.000000   1995073   1994867   1994520   1994024   1993345  
  7600.000000   1992462   1991367   1990119   1988828   1987652  
  7590.000000   1986750   1986240   1986160   1986458   1987016  
  7580.000000   1987693   1988365   1988965   1989471   1989901  
  7570.000000   1990269   1990574   1990778   1990842   1990734  
  7560.000000   1990475   1990126   1989792   1989576   1989554  
  7550.000000   1989743   1990092   1990506   1990873   1991106  
  7540.000000   1991162   1991050   1990818   1990534   1990263  
  7530.000000   1990051   1989928   1989904   1989988   1990182  
  7520.000000   1990492   1990913   1991428   1992000   1992576  
  7510.000000   1993100   1993529   1993840   1994047   1994186  
  7500.000000   1994317   1994496   1994769   1995153   1995646  
  7490.000000   1996223   1996862   1997540   1998246   1998967  
  7480.000000   1999693   2000392   2001032   2001567   2001973  
  7470.000000   2002244   2002429   2002605   2002883   2003368  
  7460.000000   2004141   2005233   2006627   2008254   2010019  
  7450.000000   2011820   2013571   2015207   2016696   2018023  
  7440.000000   2019205   2020260   2021225   2022129   2023002  
  7430.000000   2023862   2024726   2025605   2026514   2027482  
  7420.000000   2028545   2029746   2031113   2032645   2034293  
  7410.000000   2035964   2037544   2038914   2040001   2040793  
  7400.000000   2041362   2041833   2042363   2043092   2044111  
  7390.000000   2045438   2047011   2048721   2050430   2052021  
  7380.000000   2053406   2054561   2055517   2056355   2057177  
  7370.000000   2058073   2059108   2060296   2061601   2062943  
  7360.000000   2064228   2065382   2066367   2067210   2067983  
  7350.000000   2068794   2069749   2070919   2072312   2073876  
  7340.000000   2075515   2077116   2078582   2079855   2080922  
  7330.000000   2081818   2082601   2083349   2084136   2085025  
  7320.000000   2086048   2087209   2088475   2089788   2091072  
  7310.000000   2092252   2093270   2094104   2094769   2095313  
  7300.000000   2095800   2096299   2096862   2097528   2098309  
  7290.000000   2099203   2100191   2101248   2102332   2103402  
  7280.000000   2104408   2105309   2106075   2106695   2107182  
  7270.000000   2107559   2107862   2108119   2108358   2108598  
  7260.000000   2108862   2109176   2109581   2110120   2110833  
  7250.000000   2111744   2112859   2114153   2115590   2117117  
  7240.000000   2118691   2120268   2121832   2123362   2124862  
  7230.000000   2126324   2127766   2129185   2130604   2132025  
  7220.000000   2133468   2134941   2136468   2138067   2139780  
  7210.000000   2141636   2143674   2145900   2148308   2150854  
  7200.000000   2153494   2156181   2158907   2161691   2164592  
  7190.000000   2167672   2170987   2174536   2178278   2182103  
  7180.000000   2185893   2189520   2192910   2196013   2198849  
  7170.000000   2201444   2203870   2206194   2208510   2210903  
  7160.000000   2213474   2216305   2219463   2222975   2226839  
  7150.000000   2231012   2235441   2240051   2244789   2249592  
  7140.000000   2254432   2259259   2264053   2268770   2273412  
  7130.000000   2277971   2282501   2287052   2291720   2296570  
  7120.000000   2301665   2307013   2312600   2318362   2324238  
  7110.000000   2330149   2336050   2341903   2347717   2353512  
  7100.000000   2359352   2365293   2371403   2377705   2384194  
  7090.000000   2390808   2397471   2404096   2410641   2417104  
  7080.000000   2423538   2430015   2436600   2443302   2450083  
  7070.000000   2456854   2463529   2470051   2476432   2482732  
  7060.000000   2489042   2495427   2501907   2508436   2514940  
  7050.000000   2521346   2527626   2533812   2539985   2546236  
  7040.000000   2552628   2559167   2565808   2572476   2579095  
  7030.000000   2585621   2592040   2598366   2604605   2610760  
  7020.000000   2616815   2622769   2628633   2634461   2640311  
  7010.000000   2646244   2652265   2658334   2664348   2670193  
  7000.000000   2675761   2681011   2685950   2690648   2695181  
  6990.000000   2699629   2704032   2708419   2712787   2717148  
  6980.000000   2721499   2725852   2730184   2734470   2738648  
  6970.000000   2742680   2746529   2750213   2753765   2757247  
  6960.000000   2760686   2764094   2767422   2770618   2773619  
  6950.000000   2776416   2779024   2781508   2783926   2786331  
  6940.000000   2788720   2791071   2793324   2795442   2797401  
  6930.000000   2799219   2800926   2802570   2804174   2805759  
  6920.000000   2807310   2808824   2810287   2811710   2813105  
  6910.000000   2814502   2815919   2817374   2818862   2820371  
  6900.000000   2821867   2823314   2824674   2825927   2827066  
  6890.000000   2828120   2829132   2830157   2831235   2832384  
  6880.000000   2833581   2834782   2835925   2836969   2837891  
  6870.000000   2838710   2839459   2840181   2840895   2841598  
  6860.000000   2842261   2842850   2843334   2843704   2843970  
  6850.000000   2844159   2844303   2844436   2844589   2844799  
  6840.000000   2845098   2845526   2846101   2846823   2847653  
  6830.000000   2848531   2849376   2850123   2850726   2851177  
  6820.000000   2851490   2851696   2851817   2851863   2851827  
  6810.000000   2851709   2851509   2851253   2850970   2850701  
  6800.000000   2850462   2850264   2850085   2849906   2849700  
  6790.000000   2849458   2849172   2848847   2848482   2848079  
  6780.000000   2847639   2847172   2846693   2846225   2845786  
  6770.000000   2845382   2844998   2844606   2844173   2843678  
  6760.000000   2843116   2842502   2841859   2841210   2840569  
  6750.000000   2839946   2839351   2838806   2838345   2837999  
  6740.000000   2837782   2837670   2837602   2837490   2837250  
  6730.000000   2836834   2836250   2835560   2834851   2834206  
  6720.000000   2833666   2833226   2832841   2832463   2832061  
  6710.000000   2831645   2831244   2830895   2830599   2830320  
  6700.000000   2829981   2829508   2828845   2827993   2827005  
  6690.000000   2825966   2824955   2824026   2823173   2822360  
  6680.000000   2821520   2820607   2819590   2818478   2817295  
  6670.000000   2816074   2814832   2813576   2812298   2810995  
  6660.000000   2809663   2808316   2806966   2805633   2804318  
  6650.000000   2803022   2801727   2800423   2799093   2797733  
  6640.000000   2796341   2794924   2793487   2792032   2790552  
  6630.000000   2789035   2787454   2785789   2784020   2782150  
  6620.000000   2780199   2778210   2776229   2774301   2772439  
  6610.000000   2770634   2768847   2767042   2765191   2763304  
  6600.000000   2761412   2759565   2757795   2756103   2754454  
  6590.000000   2752789   2751056   2749231   2747338   2745435  
  6580.000000   2743595   2741871   2740280   2738794   2737359  
  6570.000000   2735918   2734434   2732897   2731320   2729721  
  6560.000000   2728111   2726485   2724834   2723156   2721467  
  6550.000000   2719801   2718197   2716685   2715266   2713912  
  6540.000000   2712576   2711214   2709798   2708325   2706811  
  6530.000000   2705274   2703730   2702184   2700639   2699110  
  6520.000000   2697630   2696242   2694991   2693893   2692930  
  6510.000000   2692041   2691147   2690173   2689075   2687853  
  6500.000000   2686544   2685206   2683893   2682639   2681454  
  6490.000000   2680332   2679263   2678240   2677262   2676327  
  6480.000000   2675424   2674530   2673620   2672667   2671658  
  6470.000000   2670594   2669484   2668340   2667169   2665973  
  6460.000000   2664758   2663537   2662340   2661203   2660154  
  6450.000000   2659196   2658306   2657431   2656517   2655520  
  6440.000000   2654435   2653286   2652123   2650988   2649911  
  6430.000000   2648891   2647917   2646975   2646074   2645243  
  6420.000000   2644521   2643936   2643485   2643127   2642797  
  6410.000000   2642427   2641980   2641450   2640875   2640307  
  6400.000000   2639794   2639359   2638998   2638689   2638410  
  6390.000000   2638145   2637893   2637653   2637420   2637171  
  6380.000000   2636874   2636501   2636036   2635497   2634920  
  6370.000000   2634361   2633862   2633447   2633108   2632817  
  6360.000000   2632528   2632203   2631808   2631325   2630743  
  6350.000000   2630059   2629280   2628424   2627518   2626607  
  6340.000000   2625725   2624903   2624145   2623441   2622761  
  6330.000000   2622079   2621371   2620629   2619846   2619017  
  6320.000000   2618122   2617138   2616043   2614838   2613548  
  6310.000000   2612238   2610975   2609826   2608814   2607925  
  6300.000000   2607095   2606251   2605315   2604244   2603024  
  6290.000000   2601674   2600222   2598703   2597136   2595543  
  6280.000000   2593934   2592333   2590758   2589230   2587750  
  6270.000000   2586309   2584874   2583412   2581886   2580279  
  6260.000000   2578585   2576817   2574990   2573124   2571234  
  6250.000000   2569336   2567443   2565571   2563731   2561931  
  6240.000000   2560167   2558427   2556694   2554954   2553199  
  6230.000000   2551429   2549645   2547848   2546034   2544197  
  6220.000000   2542341   2540477   2538632   2536838   2535118  
  6210.000000   2533480   2531903   2530350   2528780   2527167  
  6200.000000   2525515   2523854   2522233   2520692   2519249  
  6190.000000   2517887   2516566   2515237   2513867   2512447  
  6180.000000   2510994   2509540   2508116   2506736   2505397  
  6170.000000   2504078   2502759   2501425   2500076   2498722  
  6160.000000   2497383   2496077   2494816   2493606   2492445  
  6150.000000   2491322   2490220   2489111   2487965   2486752  
  6140.000000   2485457   2484081   2482654   2481215   2479815  
  6130.000000   2478488   2477250   2476092   2474994   2473927  
  6120.000000   2472879   2471845   2470841   2469877   2468971  
  6110.000000   2468122   2467331   2466593   2465913   2465292  
  6100.000000   2464742   2464256   2463829   2463433   2463051  
  6090.000000   2462664   2462283   2461921   2461615   2461383  
  6080.000000   2461244   2461181   2461179   2461206   2461249  
  6070.000000   2461296   2461360   2461445   2461569   2461730  
  6060.000000   2461943   2462213   2462571   2463042   2463664  
  6050.000000   2464447   2465390   2466454   2467597   2468761  
  6040.000000   2469918   2471054   2472192   2473354   2474579  
  6030.000000   2475876   2477253   2478692   2480181   2481702  
  6020.000000   2483252   2484825   2486425   2488043   2489678  
  6010.000000   2491320   2492972   2494635   2496326   2498050  
  6000.000000   2499819   2501627   2503475   2505353   2507270  
  5990.000000   2509232   2511260   2513366   2515566   2517859  
  5980.000000   2520248   2522724   2525291   2527946   2530695  
  5970.000000   2533524   2536415   2539327   2542228   2545081  
  5960.000000   2547882   2550635   2553377   2556135   2558943  
  5950.000000   2561809   2564737   2567711   2570730   2573796  
  5940.000000   2576927   2580145   2583470   2586911   2590457  
  5930.000000   2594087   2597767   2601461   2605132   2608743  
  5920.000000   2612258   2615638   2618852   2621873   2624694  
  5910.000000   2627323   2629786   2632117   2634355   2636546  
  5900.000000   2638726   2640943   2643232   2645634   2648163  
  5890.000000   2650825   2653587   2656408   2659226   2661993  
  5880.000000   2664672   2667247   2669714   2672071   2674311  
  5870.000000   2676418   2678378   2680188   2681872   2683477  
  5860.000000   2685072   2686722   2688474   2690346   2692329  
  5850.000000   2694398   2696528   2698708   2700943   2703246  
  5840.000000   2705630   2708095   2710629   2713204   2715801  
  5830.000000   2718396   2720983   2723555   2726107   2728626  
  5820.000000   2731100   2733514   2735870   2738180   2740469  
  5810.000000   2742767   2745087   2747440   2749803   2752170  
  5800.000000   2754508   2756832   2759129   2761430   2763719  
  5790.000000   2766000   2768212   2770308   2772184   2773757  
  5780.000000   2774907   2775548   2775583   2774976   2773711  
  5770.000000   2771858   2769521   2766867   2764052   2761234  
  5760.000000   2758503   2755921   2753484   2751192   2749031  
  5750.000000   2747026   2745195   2743574   2742163   2740938  
  5740.000000   2739848   2738825   2737821   2736803   2735783  
  5730.000000   2734775   2733814   2732906   2732054   2731235  
  5720.000000   2730438   2729649   2728878   2728132   2727428  
  5710.000000   2726765   2726142   2725548   2724985   2724462  
  5700.000000   2724001   2723621   2723329   2723115   2722951  
  5690.000000   2722807   2722655   2722495   2722333   2722193  
  5680.000000   2722080   2721987   2721870   2721677   2721337  
  5670.000000   2720797   2720006   2718941   2717587   2715948  
  5660.000000   2714036   2711895   2709578   2707176   2704776  
  5650.000000   2702471   2700318   2698348   2696545   2694878  
  5640.000000   2693293   2691749   2690209   2688654   2687079  
  5630.000000   2685480   2683872   2682273   2680719   2679247  
  5620.000000   2677896   2676684   2675608   2674630   2673705  
  5610.000000   2672780   2671825   2670836   2669834   2668853  
  5600.000000   2667922   2667049   2666223   2665415   2664597  
  5590.000000   2663747   2662860   2661940   2660996   2660036  
  5580.000000   2659060   2658073   2657081   2656102   2655154  
  5570.000000   2654256   2653406   2652584   2651751   2650864  
  5560.000000   2649886   2648804   2647628   2646384   2645106  
  5550.000000   2643821   2642546   2641286   2640041   2638814  
  5540.000000   2637607   2636426   2635269   2634131   2633000  
  5530.000000   2631869   2630736   2629614   2628520   2627470  
  5520.000000   2626470   2625509   2624563   2623604   2622605  
  5510.000000   2621555   2620452   2619302   2618112   2616885  
  5500.000000   2615619   2614318   2612991   2611659   2610343  
  5490.000000   2609062   2607811   2606571   2605299   2603963  
  5480.000000   2602530   2601001   2599385   2597715   2596014  
  5470.000000   2594304   2592588   2590866   2589131   2587384  
  5460.000000   2585621   2583842   2582034   2580181   2578266  
  5450.000000   2576283   2574242   2572173   2570117   2568111  
  5440.000000   2566179   2564321   2562525   2560775   2559064  
  5430.000000   2557390   2555762   2554174   2552615   2551054  
  5420.000000   2549475   2547867   2546265   2544723   2543320  
  5410.000000   2542107   2541112   2540300   2539624   2539010  
  5400.000000   2538430   2537866   2537356   2536931   2536641  
  5390.000000   2536489   2536483   2536593   2536827   2537180  
  5380.000000   2537701   2538412   2539356   2540517   2541887  
  5370.000000   2543407   2545059   2546795   2548636   2550566  
  5360.000000   2552634   2554833   2557224   2559809   2562672  
  5350.000000   2565838   2569406   2573385   2577840   2582721  
  5340.000000   2588045   2593736   2599830   2606285   2613174  
  5330.000000   2620466   2628230   2636405   2645039   2654072  
  5320.000000   2663588   2673576   2684177   2695396   2707367  
  5310.000000   2720047   2733513   2747670   2762577   2778160  
  5300.000000   2794520   2811640   2829665   2848600   2868581  
  5290.000000   2889567   2911609   2934564   2958372   2982826  
  5280.000000   3007856   3033340   3059340   3085888   3113147  
  5270.000000   3141170   3169998   3199490   3229442   3259573  
  5260.000000   3289652   3319551   3349261   3378876   3408475  
  5250.000000   3438107   3467651   3496939   3525663   3553638  
  5240.000000   3580669   3606806   3632076   3656691   3680712  
  5230.000000   3704280   3727301   3749752   3771413   3792226  
  5220.000000   3812027   3830891   3848799   3865948   3882383  
  5210.000000   3898286   3913610   3928404   3942491   3955839  
  5200.000000   3968274   3979846   3990503   4000401   4009543  
  5190.000000   4018067   4025912   4033134   4039622   4045426  
  5180.000000   4050482   4054903   4058674   4061910   4064565  
  5170.000000   4066699   4068232   4069220   4069624   4069545  
  5160.000000   4068982   4068033   4066662   4064910   4062703  
  5150.000000   4060067   4056966   4053476   4049612   4045468  
  5140.000000   4041047   4036405   4031514   4026404   4021055  
  5130.000000   4015516   4009789   4003924   3997917   3991796  
  5120.000000   3985547   3979201   3972768   3966299   3959818  
  5110.000000   3953360   3946921   3940492   3934040   3927552  
  5100.000000   3921017   3914458   3907898   3901372   3894895  
  5090.000000   3888472   3882092   3875747   3869428   3863146  
  5080.000000   3856907   3850724   3844587   3838476   3832352  
  5070.000000   3826178   3819918   3813564   3807112   3800580  
  5060.000000   3793979   3787327   3780621   3773866   3767053  
  5050.000000   3760188   3753271   3746315   3739318   3732287  
  5040.000000   3725218   3718113   3710975   3703816   3696653  
  5030.000000   3689506   3682388   3675309   3668271   3661271  
  5020.000000   3654314   3647401   3640556   3633794   3627147  
  5010.000000   3620624   3614249   3608015   3601936   3596000  
  5000.000000   3590227   3584609   3579179   3573932   3568905  
  4990.000000   3564088   3559518   3555181   3551116   3547311  
  4980.000000   3543810   3540600   3537723   3535158   3532944  
  4970.000000   3531048   3529506   3528275   3527386   3526796  
  4960.000000   3526542   3526592   3527000   3527753   3528918  
  4950.000000   3530481   3532498   3534927   3537791   3541024  
  4940.000000   3544635   3548560   3552828   3557400   3562323  
  4930.000000   3567572   3573193   3579155   3585491   3592165  
  4920.000000   3599203   3606568   3614283   3622309   3630660  
  4910.000000   3639298   3648230   3657422   3666874   3676548  
  4900.000000   3686423   3696449   3706581   3716763   3726948  
  4890.000000   3737101   3747189   3757200   3767106   3776893  
  4880.000000   3786512   3795938   3805101   3813973   3822482  
  4870.000000   3830615   3838310   3845570   3852350   3858675  
  4860.000000   3864518   3869927   3874892   3879466   3883643  
  4850.000000   3887473   3890947   3894119   3896989   3899618  
  4840.000000   3902023   3904265   3906359   3908352   3910251  
  4830.000000   3912090   3913874   3915636   3917387   3919157  
  4820.000000   3920953   3922794   3924678   3926606   3928571  
  4810.000000   3930567   3932586   3934615   3936643   3938657  
  4800.000000   3940648   3942615   3944567   3946520   3948497  
  4790.000000   3950513   3952580   3954695   3956847   3959021  
  4780.000000   3961204   3963390   3965577   3967772   3969972  
  4770.000000   3972176   3974368   3976533   3978647   3980699  
  4760.000000   3982673   3984571   3986385   3988117   3989754  
  4750.000000   3991293   3992715   3994017   3995185   3996229  
  4740.000000   3997145   3997954   3998662   3999293   3999855  
  4730.000000   4000366   4000828   4001248   4001615   4001926  
  4720.000000   4002168   4002338   4002435   4002471   4002462  
  4710.000000   4002431   4002406   4002413   4002481   4002636  
  4700.000000   4002908   4003323   4003902   4004656   4005583  
  4690.000000   4006668   4007887   4009208   4010602   4012039  
  4680.000000   4013504   4014970   4016424   4017833   4019182  
  4670.000000   4020436   4021589   4022633   4023596   4024509  
  4660.000000   4025431   4026410   4027508   4028763   4030213  
  4650.000000   4031871   4033743   4035817   4038072   4040475  
  4640.000000   4042987   4045571   4048190   4050820   4053439  
  4630.000000   4056038   4058600   4061111   4063540   4065855  
  4620.000000   4068003   4069947   4071638   4073057   4074180  
  4610.000000   4075023   4075594   4075938   4076086   4076096  
  4600.000000   4076001   4075852   4075664   4075465   4075242  
  4590.000000   4075001   4074706   4074351   4073896   4073335  
  4580.000000   4072631   4071782   4070762   4069577   4068218  
  4570.000000   4066702   4065037   4063247   4061342   4059340  
  4560.000000   4057239   4055050   4052763   4050394   4047945  
  4550.000000   4045445   4042913   4040378   4037855   4035359  
  4540.000000   4032887   4030436   4027998   4025562   4023129  
  4530.000000   4020689   4018252   4015808   4013379   4010960  
  4520.000000   4008592   4006288   4004111   4002080   4000269  
  4510.000000   3998686   3997398   3996399   3995756   3995458  
  4500.000000   3995585   3996130   3997189   3998755   4000932  
  4490.000000   4003717   4007219   4011434   4016462   4022273  
  4480.000000   4028932   4036361   4044582   4053490   4063095  
  4470.000000   4073303   4084143   4095547   4107552   4120088  
  4460.000000   4133168   4146697   4160652   4174924   4189471  
  4450.000000   4204196   4219067   4234019   4249040   4264103  
  4440.000000   4279210   4294359   4309541   4324753   4339951  
  4430.000000   4355111   4370150   4385028   4399641   4413959  
  4420.000000   4427878   4441388   4454393   4466891   4478781  
  4410.000000   4490050   4500585   4510366   4519286   4527353  
  4400.000000   4534512   4540835   4546336   4551149   4555340  
  4390.000000   4559066   4562410   4565517   4568458   4571345  
  4380.000000   4574221   4577159   4580175   4583308   4586569  
  4370.000000   4589988   4593590   4597411   4601485   4605842  
  4360.000000   4610504   4615483   4620770   4626360   4632198  
  4350.000000   4638263   4644460   4650770   4657100   4663471  
  4340.000000   4669838   4676241   4682599   4688812   4694571  
  4330.000000   4699479   4702974   4704520   4703657   4700205  
  4320.000000   4694287   4686397   4677260   4667752   4658653  
  4310.000000   4650595   4643890   4638632   4634661   4631757  
  4300.000000   4629648   4628143   4627105   4626460   4626176  
  4290.000000   4626200   4626514   4627048   4627794   4628710  
  4280.000000   4629813   4631096   4632566   4634222   4636050  
  4270.000000   4638052   4640198   4642466   4644745   4646876  
  4260.000000   4648580   4649537   4649391   4647874   4644840  
  4250.000000   4640357   4634665   4628177   4621346   4614630  
  4240.000000   4608359   4602753   4597853   4593615   4589897  
  4230.000000   4586558   4583453   4580476   4577558   4574652  
  4220.000000   4571765   4568897   4566117   4563466   4561050  
  4210.000000   4558920   4557168   4555808   4554872   4554321  
  4200.000000   4554133   4554240   4554608   4555165   4555888  
  4190.000000   4556714   4557634   4558595   4559606   4560626  
  4180.000000   4561687   4562767   4563924   4565165   4566578  
  4170.000000   4568202   4570147   4572463   4575247   4578513  
  4160.000000   4582312   4586600   4591383   4596589   4602226  
  4150.000000   4608241   4614672   4621489   4628752   4636433  
  4140.000000   4644591   4653188   4662275   4671803   4681811  
  4130.000000   4692236   4703101   4714338   4725970   4737951  
  4120.000000   4750332   4763106   4776352   4790081   4804363  
  4110.000000   4819188   4834584   4850495   4866896   4883690  
  4100.000000   4900815   4918160   4935658   4953231   4970854  
  4090.000000   4988509   5006212   5023982   5041833   5059775  
  4080.000000   5077785   5095853   5113925   5131985   5149957  
  4070.000000   5167813   5185445   5202806   5219772   5236310  
  4060.000000   5252322   5267828   5282771   5297210   5311101  
  4050.000000   5324511   5337386   5349798   5361679   5373093  
  4040.000000   5383946   5394273   5403950   5413003   5421322  
  4030.000000   5428968   5435865   5442090   5447571   5452348  
  4020.000000   5456306   5459482   5461842   5463469   5464331  
  4010.000000   5464581   5464307   5463536   5462049   5459906  
  4000.000000   5457429  
##END= 
