##TITLE= Sample 025 By ssteindl date Montag, November 26 2018
##JCAMP-DX= 4.24
##DATA TYPE= INFRARED SPECTRUM
##ORIGIN= Exported PE Spectrum Data File
##OWNER= Sandra Steindl
##DATE= 18/11/26
##TIME= 11:44:19.00
##SPECTROMETER/DATA SYSTEM= PERKIN-ELMER Frontier FT-IR/NIR IR
##INSTRUMENT PARAMETERS=
  APODIZATION=stark
  DETECTOR=INGAAS
##RESOLUTION= 16.000000
##DELTAX= -2.000000
##XUNITS= 1/CM
##YUNITS= A
##XFACTOR= 1.00
##YFACTOR= 0.00000011920928955078
##FIRSTX= 10000.00
##LASTX= 4000.00
##NPOINTS= 3001
##FIRSTY= 0.289967
##MAXY= 0.647852
##MINY= 0.228391
##XYDATA= (X++(Y..Y))
 10000.000000   2432417   2433530   2433529   2431326   2427561  
  9990.000000   2424053   2422222   2422785   2426074   2431927  
  9980.000000   2439211   2446101   2450768   2451944   2449219  
  9970.000000   2443204   2435360   2427479   2421064   2416893  
  9960.000000   2414918   2414424   2414508   2414419   2413805  
  9950.000000   2412646   2411024   2408978   2406411   2403300  
  9940.000000   2399869   2396760   2394908   2395208   2398110  
  9930.000000   2403290   2409717   2415928   2420594   2422921  
  9920.000000   2422872   2421001   2418094   2414746   2411209  
  9910.000000   2407462   2403558   2399878   2397160   2396245  
  9900.000000   2397578   2400892   2405110   2408742   2410458  
  9890.000000   2409660   2406762   2402929   2399597   2397741  
  9880.000000   2397559   2398425   2399357   2399579   2398960  
  9870.000000   2398113   2398027   2399580   2403038   2407940  
  9860.000000   2413300   2418044   2421455   2423322   2423853  
  9850.000000   2423360   2421995   2419747   2416554   2412701  
  9840.000000   2408856   2406109   2405447   2407412   2411601  
  9830.000000   2416779   2421132   2422981   2421331   2416192  
  9820.000000   2408497   2399557   2390613   2382335   2374884  
  9810.000000   2368040   2361623   2355709   2350671   2347040  
  9800.000000   2345173   2345165   2346747   2349523   2353106  
  9790.000000   2357259   2361848   2366654   2371264   2374976  
  9780.000000   2377047   2376918   2374585   2370630   2366118  
  9770.000000   2362153   2359482   2358197   2357741   2357198  
  9760.000000   2355675   2352711   2348409   2343378   2338445  
  9750.000000   2334353   2331520   2329996   2329552   2329842  
  9740.000000   2330568   2331515   2332584   2333705   2334860  
  9730.000000   2336042   2337309   2338745   2340432   2342343  
  9720.000000   2344302   2345992   2347063   2347307   2346772  
  9710.000000   2345820   2344987   2344789   2345466   2346865  
  9700.000000   2348427   2349399   2349048   2346973   2343193  
  9690.000000   2338201   2332775   2327779   2323940   2321678  
  9680.000000   2321037   2321673   2322915   2323923   2323841  
  9670.000000   2322090   2318501   2313513   2308061   2303387  
  9660.000000   2300685   2300659   2303326   2307827   2312749  
  9650.000000   2316378   2317325   2314823   2309055   2301025  
  9640.000000   2292329   2284708   2279621   2277945   2279823  
  9630.000000   2284756   2291796   2299827   2307785   2314825  
  9620.000000   2320370   2324124   2326036   2326241   2325052  
  9610.000000   2322859   2320167   2317489   2315325   2314076  
  9600.000000   2313911   2314802   2316393   2318247   2319814  
  9590.000000   2320729   2320769   2319952   2318408   2316301  
  9580.000000   2313733   2310692   2307124   2302968   2298296  
  9570.000000   2293315   2288382   2283906   2280233   2277579  
  9560.000000   2275950   2275227   2275170   2275559   2276203  
  9550.000000   2276982   2277846   2278754   2279709   2280648  
  9540.000000   2281510   2282123   2282307   2281807   2280458  
  9530.000000   2278195   2275208   2271919   2268942   2266939  
  9520.000000   2266377   2267424   2269798   2272943   2276140  
  9510.000000   2278842   2280756   2281941   2282633   2283077  
  9500.000000   2283346   2283256   2282486   2280678   2277679  
  9490.000000   2273579   2268728   2263590   2258575   2253983  
  9480.000000   2249934   2246530   2243864   2242127   2241494  
  9470.000000   2242035   2243577   2245671   2247689   2248993  
  9460.000000   2249169   2248117   2246108   2243589   2241079  
  9450.000000   2238946   2237392   2236445   2236051   2236149  
  9440.000000   2236657   2237478   2238416   2239222   2239632  
  9430.000000   2239496   2238833   2237824   2236716   2235643  
  9420.000000   2234573   2233248   2231388   2228807   2225626  
  9410.000000   2222262   2219299   2217294   2216495   2216806  
  9400.000000   2217806   2219018   2220166   2221306   2222782  
  9390.000000   2224908   2227701   2230678   2232988   2233709  
  9380.000000   2232285   2228789   2224047   2219385   2216217  
  9370.000000   2215521   2217457   2221372   2226015   2230059  
  9360.000000   2232488   2232923   2231631   2229363   2226990  
  9350.000000   2225216   2224333   2224241   2224556   2224797  
  9340.000000   2224578   2223687   2222148   2220165   2217996  
  9330.000000   2215877   2213877   2211950   2209949   2207745  
  9320.000000   2205330   2202882   2200760   2199402   2199113  
  9310.000000   2199929   2201500   2203221   2204386   2204475  
  9300.000000   2203315   2201164   2198594   2196238   2194525  
  9290.000000   2193495   2192842   2192041   2190608   2188241  
  9280.000000   2184935   2180918   2176558   2172216   2168184  
  9270.000000   2164662   2161840   2159890   2158977   2159093  
  9260.000000   2160066   2161477   2162868   2163837   2164258  
  9250.000000   2164291   2164348   2164914   2166347   2168754  
  9240.000000   2171961   2175664   2179596   2183656   2187888  
  9230.000000   2192303   2196705   2200579   2203193   2203794  
  9220.000000   2201917   2197609   2191515   2184749   2178538  
  9210.000000   2173916   2171353   2170837   2171850   2173758  
  9200.000000   2175878   2177743   2179067   2179725   2179689  
  9190.000000   2178915   2177422   2175178   2172227   2168572  
  9180.000000   2164305   2159524   2154470   2149564   2145443  
  9170.000000   2142898   2142600   2144942   2149733   2156241  
  9160.000000   2163253   2169482   2173930   2176192   2176518  
  9150.000000   2175597   2174243   2173012   2172058   2171094  
  9140.000000   2169679   2167446   2164378   2160766   2157065  
  9130.000000   2153666   2150701   2148073   2145516   2142873  
  9120.000000   2140207   2137905   2136503   2136481   2138006  
  9110.000000   2140890   2144634   2148620   2152272   2155192  
  9100.000000   2157217   2158296   2158453   2157666   2155989  
  9090.000000   2153518   2150506   2147268   2144148   2141380  
  9080.000000   2139025   2137005   2135176   2133522   2132176  
  9070.000000   2131477   2131769   2133266   2135862   2139128  
  9060.000000   2142422   2145088   2146699   2147147   2146665  
  9050.000000   2145641   2144474   2143407   2142516   2141744  
  9040.000000   2141003   2140261   2139542   2138911   2138363  
  9030.000000   2137840   2137201   2136366   2135313   2134168  
  9020.000000   2133095   2132248   2131642   2131122   2130412  
  9010.000000   2129227   2127435   2125081   2122398   2119669  
  9000.000000   2117141   2114907   2112923   2111071   2109288  
  8990.000000   2107646   2106354   2105686   2105865   2106955  
  8980.000000   2108819   2111160   2113617   2115851   2117625  
  8970.000000   2118806   2119371   2119355   2118868   2118057  
  8960.000000   2117136   2116328   2115819   2115665   2115754  
  8950.000000   2115799   2115447   2114410   2112613   2110259  
  8940.000000   2107769   2105664   2104349   2104016   2104563  
  8930.000000   2105694   2107042   2108330   2109472   2110529  
  8920.000000   2111633   2112837   2114073   2115106   2115651  
  8910.000000   2115479   2114565   2113102   2111451   2110049  
  8900.000000   2109249   2109272   2110097   2111566   2113380  
  8890.000000   2115239   2116843   2117950   2118397   2118077  
  8880.000000   2116964   2115072   2112477   2109282   2105644  
  8870.000000   2101740   2097802   2094123   2091049   2088948  
  8860.000000   2088081   2088572   2090282   2092857   2095725  
  8850.000000   2098289   2100080   2100882   2100808   2100170  
  8840.000000   2099395   2098769   2098392   2098074   2097510  
  8830.000000   2096376   2094544   2092144   2089556   2087303  
  8820.000000   2085844   2085475   2086201   2087812   2089948  
  8810.000000   2092242   2094403   2096245   2097679   2098645  
  8800.000000   2099089   2098951   2098215   2096956   2095384  
  8790.000000   2093808   2092594   2092024   2092233   2093119  
  8780.000000   2094381   2095583   2096288   2096182   2095153  
  8770.000000   2093335   2091067   2088835   2087139   2086415  
  8760.000000   2086914   2088677   2091496   2094976   2098606  
  8750.000000   2101853   2104290   2105630   2105798   2104866  
  8740.000000   2103052   2100608   2097809   2094902   2092144  
  8730.000000   2089803   2088163   2087496   2087966   2089598  
  8720.000000   2092171   2095290   2098404   2100988   2102663  
  8710.000000   2103305   2103081   2102351   2101568   2101089  
  8700.000000   2101092   2101518   2102144   2102675   2102883  
  8690.000000   2102680   2102134   2101419   2100712   2100123  
  8680.000000   2099648   2099193   2098650   2097948   2097139  
  8670.000000   2096382   2095916   2095968   2096674   2098047  
  8660.000000   2099970   2102251   2104682   2107082   2109346  
  8650.000000   2111407   2113236   2114775   2115960   2116700  
  8640.000000   2116948   2116714   2116109   2115329   2114619  
  8630.000000   2114216   2114258   2114797   2115740   2116946  
  8620.000000   2118222   2119433   2120494   2121401   2122175  
  8610.000000   2122829   2123342   2123624   2123579   2123100  
  8600.000000   2122181   2120877   2119360   2117839   2116551  
  8590.000000   2115688   2115362   2115617   2116426   2117743  
  8580.000000   2119498   2121645   2124128   2126884   2129787  
  8570.000000   2132661   2135290   2137447   2138958   2139730  
  8560.000000   2139815   2139355   2138573   2137681   2136847  
  8550.000000   2136139   2135517   2134892   2134168   2133329  
  8540.000000   2132439   2131669   2131216   2131256   2131851  
  8530.000000   2132935   2134330   2135786   2137074   2138033  
  8520.000000   2138627   2138918   2139028   2139079   2139161  
  8510.000000   2139317   2139565   2139911   2140390   2141029  
  8500.000000   2141843   2142779   2143712   2144462   2144839  
  8490.000000   2144731   2144150   2143266   2142364   2141777  
  8480.000000   2141786   2142535   2143984   2145921   2148018  
  8470.000000   2149914   2151307   2152023   2152050   2151534  
  8460.000000   2150725   2149933   2149451   2149497   2150143  
  8450.000000   2151336   2152892   2154572   2156111   2157310  
  8440.000000   2158055   2158346   2158236   2157810   2157143  
  8430.000000   2156279   2155248   2154073   2152810   2151533  
  8420.000000   2150338   2149303   2148467   2147827   2147334  
  8410.000000   2146943   2146631   2146429   2146402   2146627  
  8400.000000   2147157   2147988   2149063   2150272   2151497  
  8390.000000   2152625   2153570   2154260   2154640   2154674  
  8380.000000   2154362   2153759   2152979   2152206   2151645  
  8370.000000   2151470   2151743   2152390   2153198   2153886  
  8360.000000   2154166   2153852   2152905   2151448   2149723  
  8350.000000   2148007   2146535   2145439   2144728   2144314  
  8340.000000   2144044   2143781   2143431   2142993   2142532  
  8330.000000   2142177   2142067   2142292   2142851   2143619  
  8320.000000   2144384   2144868   2144830   2144123   2142780  
  8310.000000   2141014   2139170   2137631   2136694   2136502  
  8300.000000   2136993   2137939   2139012   2139895   2140365  
  8290.000000   2140338   2139855   2139028   2137984   2136809  
  8280.000000   2135538   2134175   2132724   2131240   2129825  
  8270.000000   2128640   2127843   2127570   2127841   2128571  
  8260.000000   2129533   2130425   2130931   2130783   2129853  
  8250.000000   2128159   2125893   2123345   2120841   2118648  
  8240.000000   2116921   2115694   2114892   2114414   2114157  
  8230.000000   2114087   2114202   2114522   2115010   2115557  
  8220.000000   2115973   2116044   2115599   2114570   2113034  
  8210.000000   2111178   2109245   2107444   2105892   2104593  
  8200.000000   2103460   2102381   2101260   2100077   2098851  
  8190.000000   2097654   2096519   2095457   2094417   2093340  
  8180.000000   2092175   2090905   2089556   2088154   2086710  
  8170.000000   2085176   2083465   2081466   2079116   2076437  
  8160.000000   2073564   2070720   2068160   2066105   2064669  
  8150.000000   2063844   2063498   2063430   2063431   2063335  
  8140.000000   2063059   2062578   2061923   2061119   2060194  
  8130.000000   2059148   2057995   2056757   2055501   2054314  
  8120.000000   2053300   2052535   2052036   2051756   2051581  
  8110.000000   2051383   2051044   2050508   2049790   2048966  
  8100.000000   2048141   2047414   2046839   2046415   2046089  
  8090.000000   2045783   2045417   2044943   2044348   2043659  
  8080.000000   2042923   2042189   2041488   2040823   2040159  
  8070.000000   2039443   2038608   2037606   2036423   2035100  
  8060.000000   2033729   2032440   2031359   2030573   2030085  
  8050.000000   2029809   2029581   2029210   2028530   2027464  
  8040.000000   2026040   2024395   2022719   2021210   2020010  
  8030.000000   2019173   2018661   2018352   2018091   2017707  
  8020.000000   2017064   2016069   2014700   2013003   2011104  
  8010.000000   2009187   2007460   2006111   2005255   2004898  
  8000.000000   2004932   2005173   2005415   2005492   2005329  
  7990.000000   2004942   2004415   2003846   2003301   2002783  
  7980.000000   2002255   2001655   2000960   2000194   1999437  
  7970.000000   1998787   1998319   1998056   1997946   1997896  
  7960.000000   1997799   1997568   1997169   1996604   1995910  
  7950.000000   1995127   1994294   1993446   1992618   1991861  
  7940.000000   1991233   1990800   1990607   1990675   1990984  
  7930.000000   1991481   1992083   1992689   1993184   1993443  
  7920.000000   1993358   1992840   1991872   1990515   1988928  
  7910.000000   1987330   1985957   1984987   1984485   1984393  
  7900.000000   1984546   1984753   1984855   1984792   1984602  
  7890.000000   1984389   1984255   1984240   1984303   1984325  
  7880.000000   1984183   1983793   1983174   1982430   1981731  
  7870.000000   1981236   1981036   1981130   1981422   1981777  
  7860.000000   1982062   1982204   1982200   1982113   1982038  
  7850.000000   1982062   1982231   1982533   1982893   1983201  
  7840.000000   1983330   1983177   1982688   1981881   1980844  
  7830.000000   1979716   1978644   1977748   1977073   1976586  
  7820.000000   1976181   1975725   1975102   1974271   1973265  
  7810.000000   1972196   1971198   1970390   1969825   1969479  
  7800.000000   1969262   1969054   1968743   1968261   1967600  
  7790.000000   1966808   1965963   1965150   1964430   1963829  
  7780.000000   1963331   1962883   1962417   1961867   1961191  
  7770.000000   1960384   1959489   1958580   1957744   1957053  
  7760.000000   1956539   1956181   1955914   1955654   1955327  
  7750.000000   1954897   1954372   1953806   1953265   1952803  
  7740.000000   1952437   1952143   1951860   1951513   1951037  
  7730.000000   1950394   1949580   1948633   1947615   1946610  
  7720.000000   1945695   1944938   1944371   1943980   1943709  
  7710.000000   1943458   1943119   1942589   1941818   1940808  
  7700.000000   1939625   1938375   1937176   1936131   1935306  
  7690.000000   1934724   1934372   1934220   1934232   1934369  
  7680.000000   1934589   1934835   1935033   1935087   1934909  
  7670.000000   1934424   1933613   1932508   1931210   1929861  
  7660.000000   1928622   1927638   1927004   1926746   1926810  
  7650.000000   1927083   1927418   1927671   1927733   1927551  
  7640.000000   1927136   1926542   1925848   1925127   1924438  
  7630.000000   1923802   1923229   1922714   1922259   1921870  
  7620.000000   1921550   1921299   1921093   1920902   1920696  
  7610.000000   1920463   1920223   1920017   1919894   1919876  
  7600.000000   1919951   1920054   1920097   1919990   1919680  
  7590.000000   1919170   1918522   1917840   1917236   1916801  
  7580.000000   1916578   1916568   1916735   1917027   1917387  
  7570.000000   1917763   1918105   1918370   1918518   1918524  
  7560.000000   1918384   1918114   1917756   1917355   1916962  
  7550.000000   1916606   1916314   1916089   1915943   1915883  
  7540.000000   1915921   1916060   1916289   1916586   1916929  
  7530.000000   1917307   1917738   1918263   1918942   1919814  
  7520.000000   1920884   1922092   1923335   1924480   1925418  
  7510.000000   1926091   1926518   1926784   1927007   1927304  
  7500.000000   1927758   1928395   1929189   1930074   1930972  
  7490.000000   1931808   1932519   1933061   1933415   1933593  
  7480.000000   1933643   1933649   1933719   1933963   1934467  
  7470.000000   1935258   1936299   1937488   1938694   1939784  
  7460.000000   1940673   1941327   1941787   1942127   1942453  
  7450.000000   1942854   1943404   1944142   1945096   1946270  
  7440.000000   1947665   1949260   1951022   1952896   1954811  
  7430.000000   1956688   1958460   1960086   1961568   1962941  
  7420.000000   1964269   1965616   1967033   1968533   1970094  
  7410.000000   1971663   1973182   1974598   1975892   1977070  
  7400.000000   1978162   1979209   1980240   1981264   1982278  
  7390.000000   1983270   1984246   1985234   1986287   1987478  
  7380.000000   1988867   1990485   1992310   1994271   1996269  
  7370.000000   1998196   1999966   2001527   2002870   2004015  
  7360.000000   2005003   2005879   2006689   2007477   2008286  
  7350.000000   2009162   2010147   2011270   2012534   2013909  
  7340.000000   2015334   2016732   2018023   2019150   2020089  
  7330.000000   2020861   2021522   2022156   2022858   2023705  
  7320.000000   2024743   2025969   2027336   2028756   2030133  
  7310.000000   2031379   2032447   2033345   2034125   2034871  
  7300.000000   2035660   2036550   2037559   2038675   2039871  
  7290.000000   2041121   2042412   2043735   2045069   2046374  
  7280.000000   2047583   2048618   2049419   2049973   2050331  
  7270.000000   2050606   2050933   2051431   2052155   2053082  
  7260.000000   2054121   2055147   2056049   2056766   2057306  
  7250.000000   2057733   2058145   2058626   2059246   2060022  
  7240.000000   2060955   2062016   2063188   2064443   2065776  
  7230.000000   2067165   2068607   2070082   2071601   2073169  
  7220.000000   2074825   2076595   2078521   2080609   2082871  
  7210.000000   2085285   2087838   2090503   2093269   2096109  
  7200.000000   2099012   2101945   2104895   2107842   2110796  
  7190.000000   2113774   2116815   2119940   2123164   2126455  
  7180.000000   2129762   2133008   2136132   2139094   2141905  
  7170.000000   2144608   2147294   2150050   2152973   2156114  
  7160.000000   2159501   2163102   2166874   2170740   2174645  
  7150.000000   2178541   2182433   2186352   2190379   2194589  
  7140.000000   2199054   2203777   2208725   2213795   2218890  
  7130.000000   2223907   2228817   2233617   2238379   2243160  
  7120.000000   2248035   2253018   2258117   2263299   2268563  
  7110.000000   2273908   2279385   2285031   2290897   2296983  
  7100.000000   2303275   2309714   2316257   2322855   2329497  
  7090.000000   2336169   2342876   2349597   2356316   2363001  
  7080.000000   2369643   2376254   2382880   2389570   2396375  
  7070.000000   2403302   2410327   2417374   2424360   2431193  
  7060.000000   2437821   2444218   2450407   2456441   2462405  
  7050.000000   2468401   2474533   2480891   2487529   2494450  
  7040.000000   2501598   2508871   2516148   2523319   2530309  
  7030.000000   2537097   2543703   2550175   2556554   2562869  
  7020.000000   2569125   2575328   2581483   2587617   2593754  
  7010.000000   2599910   2606055   2612126   2618014   2623632  
  7000.000000   2628914   2633883   2638614   2643240   2647875  
  6990.000000   2652605   2657430   2662304   2667126   2671816  
  6980.000000   2676311   2680620   2684773   2688839   2692859  
  6970.000000   2696870   2700860   2704815   2708695   2712479  
  6960.000000   2716141   2719682   2723094   2726388   2729561  
  6950.000000   2732625   2735571   2738408   2741124   2743722  
  6940.000000   2746197   2748567   2750842   2753057   2755225  
  6930.000000   2757371   2759484   2761559   2763564   2765486  
  6920.000000   2767305   2769026   2770649   2772193   2773668  
  6910.000000   2775099   2776504   2777919   2779367   2780870  
  6900.000000   2782410   2783945   2785398   2786698   2787784  
  6890.000000   2788656   2789358   2789985   2790637   2791391  
  6880.000000   2792270   2793243   2794239   2795179   2795997  
  6870.000000   2796667   2797194   2797616   2797975   2798327  
  6860.000000   2798721   2799219   2799872   2800718   2801751  
  6850.000000   2802918   2804112   2805205   2806082   2806687  
  6840.000000   2807036   2807221   2807364   2807580   2807931  
  6830.000000   2808419   2808998   2809608   2810206   2810784  
  6820.000000   2811351   2811920   2812472   2812961   2813317  
  6810.000000   2813495   2813485   2813340   2813145   2812998  
  6800.000000   2812957   2813030   2813171   2813313   2813385  
  6790.000000   2813356   2813216   2812983   2812667   2812274  
  6780.000000   2811799   2811250   2810661   2810094   2809616  
  6770.000000   2809277   2809072   2808941   2808777   2808484  
  6760.000000   2807998   2807333   2806564   2805804   2805154  
  6750.000000   2804666   2804332   2804090   2803858   2803566  
  6740.000000   2803174   2802675   2802084   2801427   2800730  
  6730.000000   2800025   2799348   2798747   2798260   2797910  
  6720.000000   2797682   2797522   2797352   2797096   2796709  
  6710.000000   2796194   2795586   2794942   2794300   2793669  
  6700.000000   2793021   2792315   2791524   2790653   2789735  
  6690.000000   2788822   2787950   2787128   2786322   2785488  
  6680.000000   2784579   2783587   2782535   2781475   2780456  
  6670.000000   2779508   2778620   2777755   2776856   2775874  
  6660.000000   2774776   2773552   2772204   2770749   2769208  
  6650.000000   2767617   2766020   2764475   2763029   2761710  
  6640.000000   2760498   2759337   2758132   2756801   2755284  
  6630.000000   2753583   2751743   2749851   2747985   2746202  
  6620.000000   2744510   2742883   2741267   2739613   2737884  
  6610.000000   2736064   2734155   2732171   2730135   2728083  
  6600.000000   2726057   2724103   2722260   2720543   2718932  
  6590.000000   2717384   2715838   2714253   2712620   2710974  
  6580.000000   2709371   2707868   2706486   2705193   2703915  
  6570.000000   2702555   2701036   2699324   2697443   2695455  
  6560.000000   2693442   2691473   2689588   2687800   2686110  
  6550.000000   2684515   2683022   2681640   2680370   2679191  
  6540.000000   2678063   2676930   2675742   2674470   2673115  
  6530.000000   2671704   2670278   2668875   2667526   2666245  
  6520.000000   2665040   2663913   2662859   2661863   2660897  
  6510.000000   2659915   2658869   2657721   2656458   2655105  
  6500.000000   2653716   2652358   2651086   2649924   2648864  
  6490.000000   2647866   2646886   2645890   2644869   2643833  
  6480.000000   2642808   2641814   2640857   2639928   2639011  
  6470.000000   2638081   2637126   2636134   2635105   2634038  
  6460.000000   2632938   2631815   2630690   2629589   2628545  
  6450.000000   2627582   2626710   2625922   2625198   2624513  
  6440.000000   2623848   2623190   2622538   2621886   2621222  
  6430.000000   2620523   2619768   2618940   2618054   2617144  
  6420.000000   2616272   2615496   2614859   2614371   2614009  
  6410.000000   2613731   2613492   2613259   2613019   2612772  
  6400.000000   2612523   2612270   2612006   2611715   2611395  
  6390.000000   2611047   2610690   2610344   2610023   2609726  
  6380.000000   2609439   2609141   2608815   2608464   2608104  
  6370.000000   2607765   2607469   2607230   2607033   2606852  
  6360.000000   2606645   2606379   2606026   2605574   2605017  
  6350.000000   2604360   2603611   2602789   2601919   2601041  
  6340.000000   2600192   2599413   2598722   2598123   2597593  
  6330.000000   2597100   2596603   2596072   2595479   2594817  
  6320.000000   2594081   2593282   2592427   2591534   2590613  
  6310.000000   2589676   2588718   2587728   2586678   2585547  
  6300.000000   2584316   2582996   2581612   2580209   2578824  
  6290.000000   2577483   2576174   2574873   2573536   2572141  
  6280.000000   2570683   2569194   2567711   2566273   2564884  
  6270.000000   2563522   2562135   2560672   2559094   2557402  
  6260.000000   2555626   2553823   2552044   2550327   2548678  
  6250.000000   2547084   2545512   2543936   2542328   2540675  
  6240.000000   2538965   2537190   2535343   2533429   2531458  
  6230.000000   2529458   2527461   2525501   2523601   2521772  
  6220.000000   2520008   2518299   2516631   2514993   2513373  
  6210.000000   2511758   2510130   2508467   2506752   2504977  
  6200.000000   2503154   2501310   2499482   2497700   2495981  
  6190.000000   2494323   2492716   2491145   2489607   2488108  
  6180.000000   2486664   2485284   2483965   2482686   2481419  
  6170.000000   2480130   2478802   2477431   2476032   2474623  
  6160.000000   2473222   2471836   2470467   2469113   2467778  
  6150.000000   2466468   2465194   2463957   2462748   2461544  
  6140.000000   2460322   2459065   2457776   2456474   2455191  
  6130.000000   2453954   2452776   2451645   2450538   2449424  
  6120.000000   2448288   2447126   2445962   2444819   2443726  
  6110.000000   2442696   2441738   2440849   2440034   2439296  
  6100.000000   2438645   2438079   2437592   2437157   2436751  
  6090.000000   2436346   2435936   2435527   2435148   2434824  
  6080.000000   2434580   2434418   2434338   2434324   2434372  
  6070.000000   2434477   2434647   2434876   2435159   2435462  
  6060.000000   2435762   2436023   2436244   2436433   2436638  
  6050.000000   2436900   2437271   2437772   2438418   2439194  
  6040.000000   2440090   2441085   2442174   2443346   2444598  
  6030.000000   2445911   2447278   2448677   2450108   2451566  
  6020.000000   2453065   2454605   2456186   2457783   2459374  
  6010.000000   2460926   2462429   2463882   2465316   2466763  
  6000.000000   2468267   2469848   2471524   2473289   2475140  
  5990.000000   2477067   2479070   2481146   2483301   2485525  
  5980.000000   2487819   2490169   2492577   2495038   2497564  
  5970.000000   2500153   2502809   2505515   2508263   2511028  
  5960.000000   2513809   2516603   2519430   2522303   2525245  
  5950.000000   2528260   2531352   2534510   2537729   2541002  
  5940.000000   2544328   2547705   2551130   2554597   2558097  
  5930.000000   2561622   2565163   2568716   2572265   2575791  
  5920.000000   2579257   2582619   2585831   2588859   2591691  
  5910.000000   2594337   2596826   2599194   2601470   2603683  
  5900.000000   2605850   2607998   2610158   2612380   2614703  
  5890.000000   2617168   2619776   2622511   2625320   2628152  
  5880.000000   2630954   2633693   2636352   2638920   2641388  
  5870.000000   2643736   2645944   2647995   2649898   2651685  
  5860.000000   2653416   2655154   2656955   2658848   2660835  
  5850.000000   2662903   2665031   2667212   2669448   2671750  
  5840.000000   2674123   2676558   2679029   2681500   2683941  
  5830.000000   2686336   2688692   2691026   2693363   2695712  
  5820.000000   2698071   2700418   2702732   2705000   2707222  
  5810.000000   2709414   2711593   2713786   2715992   2718227  
  5800.000000   2720474   2722751   2725040   2727359   2729679  
  5790.000000   2731989   2734218   2736311   2738160   2739683  
  5780.000000   2740766   2741333   2741299   2740636   2739337  
  5770.000000   2737468   2735131   2732491   2729709   2726958  
  5760.000000   2724350   2721971   2719830   2717923   2716210  
  5750.000000   2714667   2713261   2711980   2710798   2709693  
  5740.000000   2708641   2707619   2706621   2705644   2704705  
  5730.000000   2703802   2702939   2702091   2701243   2700371  
  5720.000000   2699486   2698607   2697780   2697041   2696415  
  5710.000000   2695896   2695460   2695068   2694693   2694324  
  5700.000000   2693972   2693655   2693386   2693168   2692985  
  5690.000000   2692822   2692666   2692528   2692422   2692372  
  5680.000000   2692378   2692422   2692444   2692381   2692155  
  5670.000000   2691713   2691019   2690065   2688852   2687394  
  5660.000000   2685703   2683811   2681752   2679590   2677389  
  5650.000000   2675224   2673143   2671176   2669319   2667556  
  5640.000000   2665858   2664209   2662600   2661034   2659516  
  5630.000000   2658045   2656620   2655237   2653902   2652624  
  5620.000000   2651422   2650300   2649256   2648258   2647269  
  5610.000000   2646245   2645162   2644015   2642833   2641652  
  5600.000000   2640514   2639444   2638450   2637521   2636640  
  5590.000000   2635790   2634960   2634141   2633326   2632501  
  5580.000000   2631650   2630762   2629831   2628867   2627881  
  5570.000000   2626888   2625890   2624874   2623819   2622706  
  5560.000000   2621528   2620298   2619045   2617807   2616611  
  5550.000000   2615468   2614366   2613286   2612205   2611111  
  5540.000000   2610004   2608895   2607790   2606693   2605598  
  5530.000000   2604497   2603387   2602272   2601163   2600071  
  5520.000000   2598998   2597936   2596863   2595760   2594610  
  5510.000000   2593413   2592179   2590923   2589657   2588389  
  5500.000000   2587117   2585846   2584582   2583339   2582127  
  5490.000000   2580946   2579773   2578573   2577300   2575921  
  5480.000000   2574424   2572829   2571169   2569485   2567800  
  5470.000000   2566116   2564412   2562668   2560867   2559021  
  5460.000000   2557149   2555281   2553425   2551573   2549698  
  5450.000000   2547772   2545782   2543740   2541685   2539662  
  5440.000000   2537710   2535844   2534058   2532329   2530640  
  5430.000000   2528978   2527347   2525743   2524163   2522582  
  5420.000000   2520990   2519373   2517762   2516203   2514776  
  5410.000000   2513532   2512509   2511678   2510999   2510402  
  5400.000000   2509862   2509364   2508954   2508666   2508552  
  5390.000000   2508609   2508830   2509165   2509598   2510110  
  5380.000000   2510741   2511515   2512487   2513649   2515004  
  5370.000000   2516489   2518085   2519738   2521469   2523269  
  5360.000000   2525198   2527261   2529523   2531987   2534728  
  5350.000000   2537762   2541183   2545006   2549309   2554058  
  5340.000000   2559285   2564918   2570983   2577415   2584265  
  5330.000000   2591480   2599113   2607101   2615497   2624249  
  5320.000000   2633457   2643124   2653402   2664312   2675993  
  5310.000000   2688408   2701626   2715543   2730202   2745512  
  5300.000000   2761563   2778330   2795961   2814464   2833982  
  5290.000000   2854479   2876010   2898437   2921705   2945616  
  5280.000000   2970112   2995075   3020572   3046632   3073416  
  5270.000000   3100971   3129341   3158392   3187937   3217703  
  5260.000000   3247470   3277107   3306599   3336029   3365472  
  5250.000000   3394974   3424419   3453635   3482311   3510243  
  5240.000000   3537213   3563245   3588354   3612754   3636525  
  5230.000000   3659839   3682639   3704926   3726491   3747271  
  5220.000000   3767090   3786005   3803990   3821237   3837788  
  5210.000000   3853818   3869269   3884164   3898306   3911647  
  5200.000000   3924016   3935479   3946012   3955804   3964887  
  5190.000000   3973414   3981331   3988689   3995367   4001401  
  5180.000000   4006715   4011406   4015447   4018941   4021833  
  5170.000000   4024175   4025887   4027024   4027548   4027561  
  5160.000000   4027062   4026153   4024805   4023071   4020895  
  5150.000000   4018328   4015344   4012025   4008371   4004448  
  5140.000000   4000230   3995742   3990943   3985870   3980523  
  5130.000000   3974980   3969271   3963465   3957563   3951580  
  5120.000000   3945481   3939267   3932919   3926469   3919931  
  5110.000000   3913348   3906730   3900099   3893451   3886801  
  5100.000000   3880154   3873536   3866962   3860447   3853986  
  5090.000000   3847571   3841185   3834822   3828478   3822165  
  5080.000000   3815890   3809655   3803446   3797244   3791019  
  5070.000000   3784762   3778463   3772139   3765799   3759458  
  5060.000000   3753107   3746736   3740317   3733832   3727264  
  5050.000000   3720615   3713887   3707089   3700215   3693262  
  5040.000000   3686214   3679073   3671842   3664550   3657234  
  5030.000000   3649936   3642693   3635529   3628458   3621478  
  5020.000000   3614586   3607774   3601046   3594396   3587838  
  5010.000000   3581365   3574997   3568727   3562583   3556564  
  5000.000000   3550706   3545013   3539527   3534248   3529217  
  4990.000000   3524425   3519911   3515658   3511701   3508013  
  4980.000000   3504622   3501495   3498665   3496102   3493853  
  4970.000000   3491899   3490295   3489022   3488129   3487584  
  4960.000000   3487424   3487613   3488194   3489136   3490492  
  4950.000000   3492234   3494410   3496978   3499970   3503330  
  4940.000000   3507085   3511181   3515652   3520451   3525613  
  4930.000000   3531090   3536911   3543031   3549484   3556237  
  4920.000000   3563331   3570743   3578505   3586588   3595005  
  4910.000000   3603719   3612734   3622017   3631569   3641355  
  4900.000000   3651362   3661543   3671858   3682255   3692688  
  4890.000000   3703118   3713505   3723824   3734032   3744102  
  4880.000000   3753975   3763624   3772990   3782060   3790783  
  4870.000000   3799158   3807130   3814697   3821800   3828445  
  4860.000000   3834594   3840287   3845524   3850377   3854861  
  4850.000000   3859046   3862932   3866566   3869933   3873071  
  4840.000000   3875972   3878682   3881211   3883618   3885923  
  4830.000000   3888183   3890415   3892655   3894904   3897174  
  4820.000000   3899448   3901719   3903969   3906195   3908392  
  4810.000000   3910568   3912728   3914880   3917028   3919173  
  4800.000000   3921315   3923459   3925618   3927807   3930043  
  4790.000000   3932342   3934706   3937127   3939583   3942052  
  4780.000000   3944505   3946924   3949293   3951607   3953859  
  4770.000000   3956052   3958181   3960249   3962249   3964184  
  4760.000000   3966046   3967839   3969549   3971179   3972711  
  4750.000000   3974147   3975472   3976690   3977787   3978766  
  4740.000000   3979616   3980344   3980946   3981439   3981831  
  4730.000000   3982144   3982383   3982557   3982660   3982687  
  4720.000000   3982627   3982483   3982262   3981987   3981688  
  4710.000000   3981397   3981146   3980960   3980860   3980861  
  4700.000000   3980976   3981215   3981588   3982096   3982742  
  4690.000000   3983519   3984416   3985416   3986504   3987648  
  4680.000000   3988825   3989992   3991119   3992163   3993108  
  4670.000000   3993935   3994662   3995304   3995907   3996501  
  4660.000000   3997132   3997828   3998628   3999555   4000645  
  4650.000000   4001920   4003403   4005097   4006992   4009058  
  4640.000000   4011256   4013542   4015879   4018239   4020605  
  4630.000000   4022962   4025290   4027564   4029746   4031800  
  4620.000000   4033684   4035375   4036854   4038126   4039195  
  4610.000000   4040086   4040805   4041385   4041833   4042186  
  4600.000000   4042454   4042671   4042837   4042971   4043048  
  4590.000000   4043063   4042976   4042774   4042415   4041894  
  4580.000000   4041181   4040280   4039174   4037876   4036381  
  4570.000000   4034716   4032891   4030941   4028880   4026737  
  4560.000000   4024519   4022245   4019914   4017541   4015127  
  4550.000000   4012688   4010227   4007754   4005266   4002763  
  4540.000000   4000240   3997696   3995136   3992567   3990009  
  4530.000000   3987469   3984969   3982505   3980099   3977744  
  4520.000000   3975471   3973282   3971225   3969303   3967577  
  4510.000000   3966043   3964769   3963750   3963067   3962724  
  4500.000000   3962818   3963353   3964428   3966032   3968256  
  4490.000000   3971077   3974589   3978773   3983723   3989414  
  4480.000000   3995922   4003186   4011248   4020016   4029508  
  4470.000000   4039630   4050397   4061725   4073631   4086027  
  4460.000000   4098917   4112208   4125886   4139862   4154115  
  4450.000000   4168569   4183201   4197951   4212797   4227700  
  4440.000000   4242638   4257592   4272539   4287468   4302341  
  4430.000000   4317150   4331834   4346379   4360705   4374800  
  4420.000000   4388569   4402000   4414988   4427514   4439464  
  4410.000000   4450812   4461438   4471320   4480357   4488562  
  4400.000000   4495885   4502402   4508129   4513195   4517663  
  4390.000000   4521680   4525316   4528701   4531885   4534966  
  4380.000000   4537969   4540959   4543949   4546990   4550101  
  4370.000000   4553333   4556720   4560305   4564118   4568179  
  4360.000000   4572497   4577074   4581896   4586964   4592246  
  4350.000000   4597745   4603401   4609217   4615121   4621133  
  4340.000000   4627194   4633323   4639418   4645371   4650889  
  4330.000000   4655610   4659030   4660672   4660121   4657208  
  4320.000000   4652023   4644990   4636734   4628031   4619582  
  4310.000000   4611974   4605522   4600354   4596369   4593406  
  4300.000000   4591238   4589695   4588639   4587984   4587677  
  4290.000000   4587657   4587900   4588348   4589003   4589831  
  4280.000000   4590850   4592045   4593410   4594930   4596576  
  4270.000000   4598348   4600217   4602174   4604128   4605946  
  4260.000000   4607382   4608140   4607885   4606350   4603375  
  4250.000000   4598995   4593409   4586988   4580157   4573369  
  4240.000000   4566967   4561210   4556181   4551875   4548173  
  4230.000000   4544932   4541986   4539186   4536419   4533596  
  4220.000000   4530693   4527703   4524700   4521750   4518991  
  4210.000000   4516511   4514432   4512791   4511632   4510914  
  4200.000000   4510608   4510627   4510919   4511396   4512028  
  4190.000000   4512748   4513558   4514420   4515368   4516386  
  4180.000000   4517533   4518801   4520251   4521872   4523718  
  4170.000000   4525778   4528115   4530733   4533711   4537064  
  4160.000000   4540869   4545126   4549887   4555121   4560859  
  4150.000000   4567048   4573716   4580806   4588349   4596292  
  4140.000000   4604672   4613445   4622658   4632272   4642338  
  4130.000000   4652813   4663737   4675056   4686802   4698931  
  4120.000000   4711489   4724462   4737922   4751874   4766386  
  4110.000000   4781447   4797081   4813231   4829865   4846884  
  4100.000000   4864228   4881797   4899538   4917385   4935320  
  4090.000000   4953321   4971386   4989514   5007696   5025936  
  4080.000000   5044209   5062519   5080826   5099122   5117328  
  4070.000000   5135404   5153223   5170727   5187793   5204406  
  4060.000000   5220494   5236104   5251194   5265823   5279928  
  4050.000000   5293559   5306643   5319252   5331328   5342957  
  4040.000000   5354061   5364685   5374693   5384089   5392728  
  4030.000000   5400640   5407723   5414040   5419512   5424185  
  4020.000000   5427947   5430851   5432875   5434122   5434573  
  4010.000000   5434400   5433697   5432495   5430567   5427974  
  4000.000000   5425041  
##END= 
