##TITLE= Sample 019 By ssteindl date Montag, November 26 2018
##JCAMP-DX= 4.24
##DATA TYPE= INFRARED SPECTRUM
##ORIGIN= Exported PE Spectrum Data File
##OWNER= Sandra Steindl
##DATE= 18/11/26
##TIME= 11:39:00.00
##SPECTROMETER/DATA SYSTEM= PERKIN-ELMER Frontier FT-IR/NIR IR
##INSTRUMENT PARAMETERS=
  APODIZATION=stark
  DETECTOR=INGAAS
##RESOLUTION= 16.000000
##DELTAX= -2.000000
##XUNITS= 1/CM
##YUNITS= A
##XFACTOR= 1.00
##YFACTOR= 0.00000011920928955078
##FIRSTX= 10000.00
##LASTX= 4000.00
##NPOINTS= 3001
##FIRSTY= 0.308872
##MAXY= 0.658187
##MINY= 0.235965
##XYDATA= (X++(Y..Y))
 10000.000000   2591005   2589652   2587229   2582603   2576275  
  9990.000000   2569709   2563983   2559559   2556777   2555747  
  9980.000000   2555848   2555917   2554834   2551967   2547407  
  9970.000000   2541967   2537002   2533787   2532981   2534269  
  9960.000000   2536487   2538010   2537503   2534413   2529283  
  9950.000000   2523491   2518722   2516299   2516699   2519452  
  9940.000000   2523416   2527288   2530128   2531592   2531911  
  9930.000000   2531592   2531060   2530515   2529869   2528992  
  9920.000000   2527833   2526552   2525428   2524699   2524402  
  9910.000000   2524295   2523917   2522773   2520485   2516934  
  9900.000000   2512238   2506684   2500640   2494477   2488595  
  9890.000000   2483419   2479393   2476874   2475992   2476513  
  9880.000000   2477883   2479336   2480204   2480131   2479218  
  9870.000000   2477951   2476957   2476729   2477419   2478845  
  9860.000000   2480676   2482660   2484758   2487108   2489796  
  9850.000000   2492647   2495067   2496204   2495218   2491670  
  9840.000000   2485804   2478501   2471075   2464726   2460171  
  9830.000000   2457342   2455518   2453670   2450961   2447111  
  9820.000000   2442519   2438081   2434837   2433576   2434632  
  9810.000000   2437808   2442571   2448170   2453933   2459270  
  9800.000000   2463833   2467437   2470080   2471930   2473256  
  9790.000000   2474465   2475956   2478121   2481157   2485051  
  9780.000000   2489476   2493892   2497572   2499829   2500046  
  9770.000000   2497872   2493193   2486244   2477571   2468004  
  9760.000000   2458553   2450181   2443641   2439216   2436695  
  9750.000000   2435392   2434387   2432816   2430174   2426513  
  9740.000000   2422462   2419088   2417555   2418814   2423244  
  9730.000000   2430579   2439904   2449925   2459302   2466942  
  9720.000000   2472303   2475308   2476321   2475739   2473847  
  9710.000000   2470559   2465591   2458620   2449705   2439501  
  9700.000000   2429273   2420702   2415288   2414015   2416818  
  9690.000000   2422763   2430189   2437391   2443049   2446607  
  9680.000000   2448237   2448552   2448235   2447678   2446950  
  9670.000000   2445844   2444208   2442057   2439666   2437394  
  9660.000000   2435460   2433817   2432099   2429866   2426810  
  9650.000000   2422998   2418896   2415163   2412365   2410649  
  9640.000000   2409674   2408766   2407290   2405025   2402326  
  9630.000000   2400052   2399168   2400373   2403743   2408726  
  9620.000000   2414314   2419400   2423145   2425138   2425433  
  9610.000000   2424323   2422144   2419119   2415329   2410879  
  9600.000000   2405978   2401086   2396773   2393603   2391851  
  9590.000000   2391434   2391870   2392449   2392431   2391213  
  9580.000000   2388492   2384218   2378657   2372236   2365578  
  9570.000000   2359385   2354389   2351238   2350342   2351797  
  9560.000000   2355331   2360392   2366274   2372270   2377778  
  9550.000000   2382347   2385660   2387485   2387678   2386195  
  9540.000000   2383228   2379206   2374854   2370983   2368325  
  9530.000000   2367246   2367587   2368694   2369535   2369111  
  9520.000000   2366730   2362375   2356697   2350891   2346287  
  9510.000000   2343934   2344257   2346935   2351026   2355243  
  9500.000000   2358381   2359600   2358699   2356058   2352512  
  9490.000000   2349009   2346317   2344798   2344392   2344729  
  9480.000000   2345383   2346055   2346679   2347397   2348391  
  9470.000000   2349754   2351333   2352766   2353604   2353480  
  9460.000000   2352321   2350342   2348000   2345772   2343980  
  9450.000000   2342701   2341805   2341113   2340552   2340227  
  9440.000000   2340376   2341191   2342650   2344407   2345886  
  9430.000000   2346480   2345846   2344063   2341670   2339488  
  9420.000000   2338322   2338696   2340636   2343738   2347302  
  9410.000000   2350659   2353332   2355160   2356202   2356623  
  9400.000000   2356531   2355915   2354669   2352658   2349863  
  9390.000000   2346400   2342546   2338620   2334897   2331582  
  9380.000000   2328742   2326454   2324703   2323563   2323044  
  9370.000000   2323215   2324071   2325554   2327508   2329652  
  9360.000000   2331634   2332980   2333194   2331744   2328277  
  9350.000000   2322708   2315429   2307263   2299364   2292915  
  9340.000000   2288834   2287531   2288783   2291831   2295576  
  9330.000000   2298944   2301175   2302012   2301686   2300753  
  9320.000000   2299871   2299563   2300113   2301478   2303396  
  9310.000000   2305447   2307243   2308475   2308985   2308755  
  9300.000000   2307856   2306441   2304646   2302619   2300466  
  9290.000000   2298310   2296268   2294506   2293158   2292350  
  9280.000000   2292073   2292215   2292516   2292654   2292345  
  9270.000000   2291401   2289826   2287722   2285283   2282608  
  9260.000000   2279730   2276596   2273206   2269700   2266405  
  9250.000000   2263836   2262540   2262965   2265208   2269005  
  9240.000000   2273704   2278503   2282626   2285538   2287044  
  9230.000000   2287217   2286346   2284696   2282506   2279875  
  9220.000000   2276879   2273564   2270004   2266352   2262792  
  9210.000000   2259598   2256986   2255220   2254475   2254918  
  9200.000000   2256554   2259181   2262342   2265345   2267453  
  9190.000000   2267972   2266522   2263084   2258109   2252340  
  9180.000000   2246657   2241840   2238453   2236777   2236809  
  9170.000000   2238316   2240887   2244046   2247289   2250140  
  9160.000000   2252178   2253147   2253035   2252069   2250649  
  9150.000000   2249214   2248162   2247730   2247982   2248779  
  9140.000000   2249882   2251008   2251899   2252305   2251986  
  9130.000000   2250761   2248580   2245581   2242086   2238620  
  9120.000000   2235804   2234218   2234190   2235715   2238458  
  9110.000000   2241862   2245300   2248196   2250144   2250926  
  9100.000000   2250544   2249106   2246841   2244069   2241239  
  9090.000000   2238855   2237365   2237078   2238051   2240101  
  9080.000000   2242779   2245586   2248056   2249932   2251102  
  9070.000000   2251592   2251443   2250663   2249217   2247066  
  9060.000000   2244274   2241048   2237733   2234694   2232163  
  9050.000000   2230175   2228549   2227020   2225348   2223478  
  9040.000000   2221541   2219794   2218453   2217571   2217002  
  9030.000000   2216452   2215663   2214519   2213173   2211917  
  9020.000000   2211075   2210788   2210949   2211223   2211226  
  9010.000000   2210713   2209742   2208651   2207929   2207984  
  9000.000000   2208958   2210644   2212551   2214105   2214862  
  8990.000000   2214689   2213785   2212577   2211535   2210987  
  8980.000000   2211031   2211525   2212181   2212665   2212715  
  8970.000000   2212181   2211047   2209414   2207453   2205416  
  8960.000000   2203565   2202173   2201424   2201416   2202103  
  8950.000000   2203302   2204724   2206052   2207015   2207427  
  8940.000000   2207189   2206273   2204733   2202666   2200240  
  8930.000000   2197676   2195270   2193312   2192009   2191431  
  8920.000000   2191466   2191889   2192391   2192741   2192830  
  8910.000000   2192726   2192590   2192594   2192825   2193211  
  8900.000000   2193566   2193626   2193210   2192218   2190703  
  8890.000000   2188792   2186665   2184482   2182370   2180452  
  8880.000000   2178874   2177829   2177491   2177968   2179215  
  8870.000000   2181027   2183063   2184960   2186441   2187396  
  8860.000000   2187905   2188156   2188352   2188595   2188845  
  8850.000000   2188951   2188760   2188203   2187366   2186453  
  8840.000000   2185687   2185205   2184965   2184765   2184316  
  8830.000000   2183392   2181938   2180130   2178310   2176870  
  8820.000000   2176091   2176056   2176616   2177489   2178379  
  8810.000000   2179095   2179597   2179965   2180315   2180698  
  8800.000000   2181058   2181234   2181071   2180473   2179515  
  8790.000000   2178380   2177329   2176556   2176130   2175968  
  8780.000000   2175883   2175719   2175420   2175130   2175101  
  8770.000000   2175651   2176981   2179127   2181894   2184915  
  8760.000000   2187769   2190053   2191519   2192016   2191537  
  8750.000000   2190108   2187829   2184834   2181359   2177744  
  8740.000000   2174436   2171939   2170686   2170954   2172729  
  8730.000000   2175760   2179565   2183604   2187357   2190461  
  8720.000000   2192747   2194233   2195076   2195462   2195577  
  8710.000000   2195526   2195366   2195097   2194700   2194162  
  8700.000000   2193476   2192681   2191816   2190961   2190162  
  8690.000000   2189456   2188837   2188266   2187703   2187088  
  8680.000000   2186391   2185587   2184681   2183696   2182677  
  8670.000000   2181704   2180907   2180478   2180642   2181621  
  8660.000000   2183531   2186321   2189704   2193209   2196287  
  8650.000000   2198450   2199439   2199261   2198218   2196745  
  8640.000000   2195283   2194103   2193256   2192608   2191971  
  8630.000000   2191236   2190452   2189840   2189668   2190147  
  8620.000000   2191283   2192881   2194592   2196056   2197054  
  8610.000000   2197560   2197769   2197950   2198352   2199064  
  8600.000000   2200018   2201011   2201845   2202405   2202742  
  8590.000000   2203034   2203507   2204344   2205596   2207197  
  8580.000000   2208974   2210750   2212392   2213857   2215171  
  8570.000000   2216392   2217564   2218684   2219696   2220513  
  8560.000000   2221043   2221231   2221061   2220587   2219902  
  8550.000000   2219154   2218490   2218057   2217926   2218104  
  8540.000000   2218486   2218907   2219159   2219069   2218551  
  8530.000000   2217623   2216409   2215073   2213782   2212640  
  8520.000000   2211688   2210910   2210281   2209796   2209495  
  8510.000000   2209444   2209713   2210331   2211268   2212434  
  8500.000000   2213701   2214937   2216048   2216974   2217707  
  8490.000000   2218261   2218685   2219031   2219372   2219766  
  8480.000000   2220261   2220862   2221533   2222189   2222728  
  8470.000000   2223067   2223176   2223109   2222984   2222957  
  8460.000000   2223163   2223676   2224485   2225502   2226603  
  8450.000000   2227664   2228612   2229413   2230080   2230629  
  8440.000000   2231073   2231402   2231597   2231664   2231646  
  8430.000000   2231642   2231769   2232158   2232887   2233986  
  8420.000000   2235383   2236954   2238521   2239920   2241014  
  8410.000000   2241714   2241988   2241842   2241317   2240456  
  8400.000000   2239299   2237897   2236316   2234676   2233118  
  8390.000000   2231832   2230980   2230703   2231027   2231862  
  8380.000000   2232985   2234091   2234867   2235040   2234456  
  8370.000000   2233089   2231070   2228624   2226049   2223636  
  8360.000000   2221660   2220332   2219771   2219992   2220875  
  8350.000000   2222211   2223705   2225071   2226078   2226623  
  8340.000000   2226751   2226610   2226388   2226209   2226084  
  8330.000000   2225888   2225418   2224501   2223085   2221301  
  8320.000000   2219427   2217817   2216758   2216367   2216522  
  8310.000000   2216890   2217051   2216623   2215403   2213409  
  8300.000000   2210879   2208191   2205762   2203942   2202934  
  8290.000000   2202780   2203377   2204530   2205989   2207509  
  8280.000000   2208871   2209920   2210565   2210784   2210606  
  8270.000000   2210085   2209299   2208309   2207178   2205949  
  8260.000000   2204671   2203400   2202190   2201103   2200152  
  8250.000000   2199342   2198623   2197970   2197345   2196769  
  8240.000000   2196266   2195877   2195600   2195379   2195093  
  8230.000000   2194573   2193665   2192265   2190373   2188073  
  8220.000000   2185523   2182895   2180337   2177947   2175773  
  8210.000000   2173853   2172226   2170961   2170120   2169740  
  8200.000000   2169773   2170090   2170480   2170714   2170602  
  8190.000000   2170051   2169098   2167881   2166590   2165386  
  8180.000000   2164350   2163456   2162585   2161579   2160299  
  8170.000000   2158683   2156766   2154680   2152594   2150675  
  8160.000000   2149013   2147614   2146392   2145221   2143976  
  8150.000000   2142582   2141049   2139450   2137901   2136499  
  8140.000000   2135279   2134197   2133160   2132066   2130869  
  8130.000000   2129607   2128404   2127425   2126812   2126614  
  8120.000000   2126752   2127023   2127166   2126936   2126201  
  8110.000000   2124970   2123397   2121716   2120162   2118897  
  8100.000000   2117956   2117264   2116661   2115983   2115113  
  8090.000000   2114020   2112751   2111408   2110082   2108835  
  8080.000000   2107666   2106542   2105418   2104268   2103116  
  8070.000000   2102007   2101005   2100137   2099378   2098640  
  8060.000000   2097795   2096722   2095368   2093786   2092149  
  8050.000000   2090705   2089707   2089323   2089566   2090275  
  8040.000000   2091152   2091839   2092041   2091592   2090526  
  8030.000000   2089033   2087396   2085889   2084685   2083835  
  8020.000000   2083261   2082844   2082474   2082120   2081817  
  8010.000000   2081649   2081667   2081847   2082060   2082091  
  8000.000000   2081708   2080717   2079048   2076755   2074036  
  7990.000000   2071159   2068428   2066100   2064357   2063273  
  7980.000000   2062810   2062842   2063174   2063599   2063934  
  7970.000000   2064075   2064013   2063831   2063670   2063654  
  7960.000000   2063846   2064188   2064527   2064642   2064349  
  7950.000000   2063554   2062316   2060827   2059355   2058153  
  7940.000000   2057373   2057023   2056975   2057025   2056969  
  7930.000000   2056683   2056146   2055454   2054756   2054224  
  7920.000000   2053982   2054096   2054556   2055279   2056130  
  7910.000000   2056918   2057438   2057479   2056886   2055600  
  7900.000000   2053697   2051394   2049013   2046912   2045389  
  7890.000000   2044603   2044529   2044979   2045656   2046264  
  7880.000000   2046574   2046494   2046063   2045421   2044739  
  7870.000000   2044152   2043734   2043472   2043311   2043165  
  7860.000000   2042976   2042706   2042353   2041932   2041464  
  7850.000000   2040968   2040461   2039972   2039545   2039246  
  7840.000000   2039144   2039299   2039725   2040392   2041203  
  7830.000000   2042030   2042722   2043159   2043264   2043026  
  7820.000000   2042492   2041740   2040857   2039908   2038929  
  7810.000000   2037928   2036901   2035853   2034807   2033812  
  7800.000000   2032913   2032152   2031530   2031020   2030568  
  7790.000000   2030126   2029668   2029204   2028775   2028433  
  7780.000000   2028214   2028123   2028126   2028163   2028172  
  7770.000000   2028109   2027963   2027745   2027475   2027159  
  7760.000000   2026772   2026259   2025551   2024594   2023372  
  7750.000000   2021929   2020364   2018811   2017412   2016277  
  7740.000000   2015453   2014920   2014584   2014311   2013960  
  7730.000000   2013425   2012666   2011724   2010710   2009770  
  7720.000000   2009040   2008604   2008464   2008540   2008700  
  7710.000000   2008792   2008697   2008345   2007729   2006883  
  7700.000000   2005870   2004749   2003580   2002407   2001277  
  7690.000000   2000234   1999314   1998540   1997905   1997384  
  7680.000000   1996933   1996530   1996175   1995905   1995771  
  7670.000000   1995802   1995975   1996198   1996324   1996194  
  7660.000000   1995703   1994841   1993721   1992541   1991523  
  7650.000000   1990835   1990531   1990530   1990651   1990675  
  7640.000000   1990425   1989820   1988903   1987813   1986740  
  7630.000000   1985857   1985267   1984983   1984932   1984996  
  7620.000000   1985053   1985018   1984862   1984609   1984318  
  7610.000000   1984051   1983844   1983689   1983542   1983340  
  7600.000000   1983034   1982618   1982140   1981692   1981381  
  7590.000000   1981287   1981427   1981739   1982096   1982346  
  7580.000000   1982367   1982106   1981602   1980967   1980348  
  7570.000000   1979884   1979654   1979673   1979890   1980225  
  7560.000000   1980600   1980961   1981287   1981574   1981821  
  7550.000000   1982007   1982099   1982051   1981836   1981452  
  7540.000000   1980942   1980382   1979875   1979524   1979413  
  7530.000000   1979592   1980062   1980781   1981674   1982650  
  7520.000000   1983621   1984518   1985306   1985975   1986549  
  7510.000000   1987058   1987534   1987992   1988447   1988896  
  7500.000000   1989347   1989806   1990289   1990803   1991350  
  7490.000000   1991918   1992490   1993052   1993604   1994161  
  7480.000000   1994752   1995405   1996132   1996921   1997745  
  7470.000000   1998574   1999397   2000223   2001093   2002044  
  7460.000000   2003105   2004258   2005452   2006608   2007657  
  7450.000000   2008560   2009335   2010043   2010779   2011636  
  7440.000000   2012683   2013943   2015397   2016992   2018658  
  7430.000000   2020308   2021860   2023234   2024378   2025266  
  7420.000000   2025929   2026443   2026938   2027551   2028411  
  7410.000000   2029588   2031091   2032859   2034792   2036777  
  7400.000000   2038721   2040574   2042320   2043975   2045572  
  7390.000000   2047143   2048715   2050303   2051912   2053527  
  7380.000000   2055113   2056624   2058008   2059232   2060296  
  7370.000000   2061238   2062129   2063047   2064044   2065129  
  7360.000000   2066257   2067358   2068365   2069252   2070054  
  7350.000000   2070862   2071784   2072905   2074238   2075728  
  7340.000000   2077263   2078729   2080052   2081222   2082298  
  7330.000000   2083374   2084538   2085837   2087266   2088770  
  7320.000000   2090275   2091709   2093031   2094232   2095333  
  7310.000000   2096367   2097371   2098375   2099397   2100449  
  7300.000000   2101534   2102651   2103795   2104961   2106140  
  7290.000000   2107327   2108510   2109675   2110792   2111830  
  7280.000000   2112751   2113532   2114175   2114720   2115236  
  7270.000000   2115807   2116506   2117365   2118361   2119426  
  7260.000000   2120461   2121371   2122098   2122626   2122999  
  7250.000000   2123280   2123559   2123900   2124358   2124947  
  7240.000000   2125672   2126509   2127445   2128461   2129575  
  7230.000000   2130814   2132245   2133935   2135956   2138332  
  7220.000000   2141044   2143994   2147058   2150078   2152948  
  7210.000000   2155596   2158050   2160371   2162660   2164972  
  7200.000000   2167335   2169712   2172070   2174391   2176726  
  7190.000000   2179177   2181882   2184943   2188389   2192138  
  7180.000000   2196021   2199825   2203380   2206586   2209467  
  7170.000000   2212112   2214678   2217291   2220055   2222993  
  7160.000000   2226105   2229359   2232749   2236278   2239981  
  7150.000000   2243879   2247990   2252289   2256737   2261264  
  7140.000000   2265819   2270344   2274826   2279249   2283646  
  7130.000000   2288040   2292491   2297042   2301761   2306675  
  7120.000000   2311815   2317151   2322650   2328243   2333882  
  7110.000000   2339524   2345176   2350857   2356623   2362517  
  7100.000000   2368586   2374836   2381260   2387808   2394423  
  7090.000000   2401027   2407560   2413971   2420252   2426419  
  7080.000000   2432536   2438670   2444898   2451261   2457772  
  7070.000000   2464386   2471043   2477662   2484185   2490579  
  7060.000000   2496852   2503043   2509217   2515452   2521822  
  7050.000000   2528388   2535182   2542192   2549358   2556572  
  7040.000000   2563702   2570619   2577234   2583521   2589525  
  7030.000000   2595345   2601091   2606859   2612691   2618580  
  7020.000000   2624475   2630323   2636080   2641737   2647295  
  7010.000000   2652774   2658172   2663490   2668719   2673879  
  7000.000000   2679009   2684179   2689447   2694847   2700342  
  6990.000000   2705852   2711241   2716397   2721237   2725761  
  6980.000000   2730018   2734109   2738120   2742122   2746129  
  6970.000000   2750140   2754122   2758066   2761950   2765778  
  6960.000000   2769522   2773164   2776651   2779955   2783042  
  6950.000000   2785921   2788604   2791125   2793498   2795738  
  6940.000000   2797839   2799822   2801710   2803569   2805455  
  6930.000000   2807434   2809518   2811695   2813899   2816063  
  6920.000000   2818117   2820029   2821788   2823415   2824929  
  6910.000000   2826348   2827678   2828925   2830099   2831223  
  6900.000000   2832321   2833422   2834531   2835648   2836756  
  6890.000000   2837851   2838929   2840014   2841120   2842260  
  6880.000000   2843413   2844545   2845606   2846565   2847414  
  6870.000000   2848184   2848923   2849675   2850457   2851247  
  6860.000000   2851994   2852642   2853148   2853513   2853774  
  6850.000000   2854003   2854275   2854663   2855209   2855938  
  6840.000000   2856838   2857879   2858998   2860110   2861112  
  6830.000000   2861910   2862436   2862677   2862678   2862539  
  6820.000000   2862378   2862303   2862371   2862590   2862908  
  6810.000000   2863262   2863577   2863811   2863936   2863951  
  6800.000000   2863856   2863661   2863378   2863031   2862653  
  6790.000000   2862281   2861940   2861634   2861330   2860981  
  6780.000000   2860544   2860013   2859421   2858850   2858383  
  6770.000000   2858082   2857946   2857919   2857901   2857795  
  6760.000000   2857542   2857137   2856630   2856091   2855586  
  6750.000000   2855145   2854767   2854426   2854097   2853765  
  6740.000000   2853431   2853098   2852759   2852399   2851995  
  6730.000000   2851541   2851057   2850591   2850205   2849944  
  6720.000000   2849813   2849768   2849728   2849614   2849372  
  6710.000000   2849008   2848568   2848126   2847740   2847432  
  6700.000000   2847173   2846907   2846565   2846107   2845519  
  6690.000000   2844820   2844035   2843191   2842288   2841328  
  6680.000000   2840299   2839214   2838091   2836970   2835878  
  6670.000000   2834833   2833826   2832830   2831802   2830710  
  6660.000000   2829523   2828238   2826859   2825416   2823941  
  6650.000000   2822483   2821080   2819766   2818543   2817394  
  6640.000000   2816270   2815119   2813891   2812571   2811168  
  6630.000000   2809718   2808259   2806812   2805367   2803889  
  6620.000000   2802339   2800688   2798942   2797135   2795316  
  6610.000000   2793534   2791810   2790143   2788515   2786915  
  6600.000000   2785340   2783809   2782335   2780918   2779528  
  6590.000000   2778118   2776638   2775064   2773412   2771731  
  6580.000000   2770079   2768495   2766973   2765465   2763902  
  6570.000000   2762229   2760439   2758577   2756726   2754970  
  6560.000000   2753358   2751881   2750482   2749081   2747614  
  6550.000000   2746060   2744442   2742814   2741227   2739713  
  6540.000000   2738269   2736872   2735493   2734116   2732742  
  6530.000000   2731376   2730020   2728660   2727273   2725835  
  6520.000000   2724343   2722821   2721317   2719886   2718571  
  6510.000000   2717385   2716312   2715314   2714350   2713394  
  6500.000000   2712431   2711458   2710472   2709457   2708395  
  6490.000000   2707263   2706056   2704787   2703486   2702191  
  6480.000000   2700932   2699722   2698562   2697442   2696354  
  6470.000000   2695293   2694258   2693238   2692216   2691166  
  6460.000000   2690071   2688931   2687776   2686659   2685638  
  6450.000000   2684746   2683980   2683291   2682611   2681871  
  6440.000000   2681041   2680133   2679198   2678295   2677464  
  6430.000000   2676705   2675984   2675248   2674461   2673620  
  6420.000000   2672767   2671958   2671254   2670679   2670225  
  6410.000000   2669850   2669514   2669188   2668873   2668589  
  6400.000000   2668363   2668209   2668119   2668065   2668015  
  6390.000000   2667944   2667844   2667722   2667590   2667449  
  6380.000000   2667291   2667098   2666852   2666546   2666188  
  6370.000000   2665794   2665381   2664958   2664517   2664049  
  6360.000000   2663541   2662995   2662418   2661831   2661244  
  6350.000000   2660664   2660080   2659480   2658853   2658206  
  6340.000000   2657552   2656913   2656298   2655702   2655097  
  6330.000000   2654444   2653703   2652851   2651883   2650823  
  6320.000000   2649705   2648575   2647471   2646426   2645455  
  6310.000000   2644563   2643731   2642932   2642116   2641236  
  6300.000000   2640248   2639131   2637888   2636552   2635170  
  6290.000000   2633788   2632436   2631120   2629828   2628538  
  6280.000000   2627232   2625907   2624567   2623226   2621890  
  6270.000000   2620561   2619224   2617869   2616479   2615057  
  6260.000000   2613605   2612135   2610650   2609152   2607633  
  6250.000000   2606089   2604518   2602919   2601288   2599613  
  6240.000000   2597872   2596042   2594110   2592092   2590030  
  6230.000000   2587998   2586070   2584302   2582709   2581258  
  6220.000000   2579881   2578498   2577046   2575492   2573845  
  6210.000000   2572137   2570409   2568691   2567000   2565334  
  6200.000000   2563693   2562079   2560506   2558990   2557540  
  6190.000000   2556150   2554801   2553464   2552116   2550745  
  6180.000000   2549357   2547971   2546608   2545286   2544014  
  6170.000000   2542792   2541614   2540475   2539369   2538283  
  6160.000000   2537201   2536100   2534954   2533743   2532465  
  6150.000000   2531135   2529783   2528443   2527147   2525906  
  6140.000000   2524721   2523576   2522459   2521357   2520267  
  6130.000000   2519189   2518126   2517074   2516027   2514977  
  6120.000000   2513926   2512878   2511856   2510876   2509966  
  6110.000000   2509134   2508393   2507736   2507157   2506640  
  6100.000000   2506174   2505738   2505324   2504921   2504539  
  6090.000000   2504190   2503906   2503707   2503611   2503606  
  6080.000000   2503665   2503737   2503785   2503779   2503728  
  6070.000000   2503663   2503640   2503700   2503879   2504176  
  6060.000000   2504576   2505047   2505575   2506147   2506782  
  6050.000000   2507493   2508303   2509211   2510214   2511291  
  6040.000000   2512433   2513626   2514878   2516191   2517577  
  6030.000000   2519031   2520553   2522130   2523762   2525443  
  6020.000000   2527181   2528969   2530803   2532658   2534516  
  6010.000000   2536347   2538148   2539917   2541682   2543464  
  6000.000000   2545293   2547177   2549127   2551138   2553216  
  5990.000000   2555361   2557591   2559910   2562327   2564826  
  5980.000000   2567397   2570018   2572686   2575402   2578188  
  5970.000000   2581060   2584034   2587099   2590237   2593403  
  5960.000000   2596567   2599692   2602778   2605824   2608860  
  5950.000000   2611906   2614995   2618148   2621390   2624740  
  5940.000000   2628215   2631824   2635566   2639429   2643386  
  5930.000000   2647404   2651444   2655469   2659438   2663313  
  5920.000000   2667053   2670621   2673988   2677138   2680076  
  5910.000000   2682828   2685429   2687921   2690337   2692703  
  5900.000000   2695030   2697340   2699647   2701993   2704407  
  5890.000000   2706931   2709576   2712339   2715185   2718070  
  5880.000000   2720938   2723741   2726442   2729013   2731436  
  5870.000000   2733699   2735801   2737749   2739570   2741306  
  5860.000000   2743010   2744737   2746530   2748419   2750414  
  5850.000000   2752517   2754722   2757024   2759416   2761881  
  5840.000000   2764399   2766938   2769466   2771961   2774419  
  5830.000000   2776854   2779298   2781777   2784311   2786893  
  5820.000000   2789503   2792106   2794671   2797180   2799628  
  5810.000000   2802020   2804360   2806658   2808906   2811123  
  5800.000000   2813316   2815538   2817815   2820204   2822695  
  5790.000000   2825283   2827873   2830375   2832635   2834527  
  5780.000000   2835903   2836667   2836731   2836075   2834710  
  5770.000000   2832729   2830252   2827467   2824544   2821663  
  5760.000000   2818931   2816426   2814146   2812081   2810179  
  5750.000000   2808424   2806787   2805268   2803854   2802534  
  5740.000000   2801287   2800087   2798921   2797774   2796653  
  5730.000000   2795551   2794469   2793389   2792301   2791188  
  5720.000000   2790062   2788937   2787852   2786832   2785896  
  5710.000000   2785036   2784235   2783464   2782713   2781982  
  5700.000000   2781291   2780664   2780117   2779653   2779257  
  5690.000000   2778912   2778603   2778330   2778094   2777903  
  5680.000000   2777735   2777562   2777321   2776954   2776400  
  5670.000000   2775623   2774601   2773332   2771814   2770055  
  5660.000000   2768057   2765845   2763456   2760964   2758445  
  5650.000000   2755986   2753640   2751435   2749353   2747363  
  5640.000000   2745420   2743498   2741589   2739705   2737870  
  5630.000000   2736103   2734421   2732828   2731330   2729924  
  5620.000000   2728616   2727396   2726256   2725170   2724113  
  5610.000000   2723061   2722004   2720949   2719917   2718927  
  5600.000000   2717995   2717116   2716271   2715433   2714583  
  5590.000000   2713711   2712821   2711925   2711031   2710138  
  5580.000000   2709234   2708304   2707339   2706340   2705320  
  5570.000000   2704298   2703289   2702298   2701321   2700350  
  5560.000000   2699378   2698404   2697430   2696462   2695494  
  5550.000000   2694517   2693514   2692473   2691390   2690281  
  5540.000000   2689166   2688067   2686994   2685946   2684904  
  5530.000000   2683853   2682782   2681698   2680612   2679543  
  5520.000000   2678497   2677467   2676434   2675377   2674282  
  5510.000000   2673148   2671983   2670801   2669606   2668394  
  5500.000000   2667148   2665856   2664515   2663141   2661757  
  5490.000000   2660392   2659054   2657735   2656405   2655029  
  5480.000000   2653576   2652036   2650413   2648730   2647003  
  5470.000000   2645251   2643479   2641691   2639890   2638088  
  5460.000000   2636289   2634499   2632705   2630888   2629019  
  5450.000000   2627083   2625078   2623028   2620971   2618945  
  5440.000000   2616977   2615074   2613233   2611443   2609705  
  5430.000000   2608024   2606412   2604860   2603354   2601851  
  5420.000000   2600325   2598755   2597174   2595635   2594230  
  5410.000000   2593024   2592061   2591319   2590754   2590294  
  5400.000000   2589905   2589561   2589292   2589116   2589075  
  5390.000000   2589164   2589380   2589688   2590088   2590570  
  5380.000000   2591178   2591930   2592870   2593986   2595280  
  5370.000000   2596708   2598271   2599941   2601753   2603699  
  5360.000000   2605824   2608104   2610572   2613203   2616061  
  5350.000000   2619164   2622622   2626469   2630799   2635588  
  5340.000000   2640862   2646538   2652631   2659072   2665915  
  5330.000000   2673118   2680755   2688780   2697261   2706148  
  5320.000000   2715532   2725394   2735865   2746938   2758741  
  5310.000000   2771234   2784502   2798466   2813193   2828614  
  5300.000000   2844819   2861773   2879595   2898270   2917916  
  5290.000000   2938492   2960061   2982504   3005786   3029724  
  5280.000000   3054257   3079255   3104764   3130792   3157486  
  5270.000000   3184892   3213068   3241901   3271226   3300795  
  5260.000000   3330394   3359891   3389256   3418553   3447838  
  5250.000000   3477142   3506348   3535298   3563705   3591401  
  5240.000000   3618199   3644147   3669267   3693762   3717690  
  5230.000000   3741186   3764156   3786571   3808205   3828989  
  5220.000000   3848752   3867562   3885407   3902494   3918888  
  5210.000000   3934789   3950169   3965079   3979341   3992908  
  5200.000000   4005592   4017428   4028357   4038532   4047964  
  5190.000000   4056795   4064974   4072557   4079437   4085661  
  5180.000000   4091166   4096060   4100334   4104102   4107323  
  5170.000000   4110056   4112216   4113843   4114883   4115417  
  5160.000000   4115432   4115019   4114151   4112882   4111163  
  5150.000000   4109046   4106512   4103645   4100454   4097020  
  5140.000000   4093323   4089395   4085187   4080721   4075972  
  5130.000000   4070994   4065796   4060438   4054920   4049267  
  5120.000000   4043458   4037510   4031419   4025229   4018964  
  5110.000000   4012675   4006380   4000105   3993846   3987616  
  5100.000000   3981420   3975282   3969219   3963253   3957382  
  5090.000000   3951598   3945874   3940183   3934499   3928806  
  5080.000000   3923092   3917351   3911577   3905766   3899913  
  5070.000000   3894028   3888120   3882213   3876318   3870447  
  5060.000000   3864586   3858716   3852799   3846809   3840717  
  5050.000000   3834521   3828217   3821821   3815333   3808761  
  5040.000000   3802097   3795347   3788512   3781612   3774672  
  5030.000000   3767725   3760800   3753917   3747088   3740312  
  5020.000000   3733587   3726905   3720274   3713698   3707200  
  5010.000000   3700792   3694505   3688343   3682333   3676467  
  5000.000000   3670765   3665215   3659839   3654629   3649617  
  4990.000000   3644798   3640211   3635850   3631754   3627908  
  4980.000000   3624348   3621055   3618064   3615352   3612957  
  4970.000000   3610850   3609067   3607570   3606392   3605498  
  4960.000000   3604932   3604675   3604795   3605287   3606222  
  4950.000000   3607583   3609416   3611670   3614362   3617424  
  4940.000000   3620870   3624648   3628794   3633274   3638137  
  4930.000000   3643347   3648942   3654874   3661171   3667783  
  4920.000000   3674738   3681993   3689574   3697444   3705625  
  4910.000000   3714085   3722845   3731881   3741208   3750798  
  4900.000000   3760635   3770670   3780853   3791121   3801415  
  4890.000000   3811690   3821902   3832028   3842031   3851890  
  4880.000000   3861549   3870979   3880106   3888903   3897299  
  4870.000000   3905282   3912792   3919834   3926361   3932402  
  4860.000000   3937933   3943007   3947623   3951851   3955697  
  4850.000000   3959226   3962439   3965387   3968065   3970518  
  4840.000000   3972742   3974785   3976651   3978389   3980013  
  4830.000000   3981573   3983086   3984595   3986113   3987664  
  4820.000000   3989248   3990870   3992524   3994209   3995921  
  4810.000000   3997659   3999423   4001208   4003013   4004833  
  4800.000000   4006672   4008531   4010425   4012367   4014374  
  4790.000000   4016457   4018618   4020853   4023153   4025505  
  4780.000000   4027895   4030312   4032741   4035166   4037565  
  4770.000000   4039915   4042193   4044386   4046485   4048499  
  4760.000000   4050436   4052316   4054146   4055933   4057665  
  4750.000000   4059335   4060916   4062395   4063746   4064963  
  4740.000000   4066032   4066964   4067766   4068465   4069085  
  4730.000000   4069660   4070207   4070744   4071269   4071778  
  4720.000000   4072261   4072712   4073133   4073533   4073928  
  4710.000000   4074334   4074768   4075237   4075754   4076325  
  4700.000000   4076969   4077706   4078564   4079568   4080745  
  4690.000000   4082104   4083653   4085376   4087257   4089257  
  4680.000000   4091340   4093451   4095545   4097567   4099487  
  4670.000000   4101269   4102920   4104444   4105881   4107267  
  4660.000000   4108658   4110098   4111642   4113329   4115203  
  4650.000000   4117289   4119601   4122136   4124869   4127764  
  4640.000000   4130769   4133838   4136927   4140007   4143057  
  4630.000000   4146066   4149020   4151905   4154692   4157353  
  4620.000000   4159846   4162140   4164194   4165991   4167506  
  4610.000000   4168747   4169716   4170456   4170996   4171404  
  4600.000000   4171717   4171996   4172252   4172512   4172749  
  4590.000000   4172957   4173086   4173117   4172998   4172712  
  4580.000000   4172216   4171499   4170535   4169332   4167891  
  4570.000000   4166249   4164428   4162479   4160421   4158287  
  4560.000000   4156076   4153798   4151440   4149012   4146512  
  4550.000000   4143964   4141375   4138768   4136143   4133507  
  4540.000000   4130853   4128184   4125506   4122834   4120192  
  4530.000000   4117595   4115060   4112580   4110156   4107758  
  4520.000000   4105391   4103034   4100726   4098474   4096350  
  4510.000000   4094377   4092646   4091179   4090073   4089342  
  4500.000000   4089083   4089294   4090059   4091353   4093244  
  4490.000000   4095695   4098783   4102482   4106889   4111987  
  4480.000000   4117874   4124511   4131961   4140152   4149117  
  4470.000000   4158770   4169141   4180152   4191832   4204100  
  4460.000000   4216960   4230307   4244113   4258259   4272707  
  4450.000000   4287359   4302198   4317166   4332263   4347462  
  4440.000000   4362752   4378108   4393495   4408880   4424207  
  4430.000000   4439450   4454544   4469475   4484168   4498613  
  4420.000000   4512718   4526465   4539745   4552531   4564704  
  4410.000000   4576235   4587009   4597013   4606163   4614492  
  4400.000000   4621977   4628711   4634729   4640160   4645060  
  4390.000000   4649563   4653723   4657662   4661436   4665154  
  4380.000000   4668863   4672641   4676506   4680495   4684604  
  4370.000000   4688849   4693233   4697776   4702497   4707411  
  4360.000000   4712526   4717843   4723340   4729009   4734797  
  4350.000000   4740700   4746641   4752628   4758584   4764554  
  4340.000000   4770493   4776460   4782377   4788164   4793517  
  4330.000000   4798043   4801160   4802301   4800955   4796891  
  4320.000000   4790197   4781361   4771130   4760431   4750112  
  4310.000000   4740865   4733053   4726798   4721953   4718293  
  4300.000000   4715542   4713498   4712018   4711013   4710441  
  4290.000000   4710225   4710335   4710686   4711280   4712086  
  4280.000000   4713154   4714496   4716138   4718069   4720252  
  4270.000000   4722652   4725202   4727847   4730465   4732896  
  4260.000000   4734873   4736087   4736184   4734885   4732022  
  4250.000000   4727635   4721939   4715330   4708261   4701212  
  4240.000000   4694541   4688514   4683210   4678626   4674639  
  4230.000000   4671120   4667911   4664888   4661949   4659020  
  4220.000000   4656082   4653120   4650199   4647362   4644726  
  4210.000000   4642351   4640342   4638722   4637535   4636748  
  4200.000000   4636356   4636295   4636543   4637037   4637758  
  4190.000000   4638645   4639690   4640836   4642088   4643399  
  4180.000000   4644790   4646229   4647756   4649363   4651120  
  4170.000000   4653049   4655249   4657761   4660681   4664027  
  4160.000000   4667856   4672134   4676880   4682033   4687605  
  4150.000000   4693546   4699889   4706599   4713724   4721229  
  4140.000000   4729169   4737512   4746317   4755554   4765279  
  4130.000000   4775447   4786091   4797144   4808621   4820460  
  4120.000000   4832694   4845299   4858342   4871829   4885830  
  4110.000000   4900337   4915382   4930911   4946902   4963266  
  4100.000000   4979949   4996857   5013940   5031130   5048405  
  4090.000000   5065734   5083113   5100538   5118004   5135524  
  4080.000000   5153092   5170733   5188426   5206186   5223940  
  4070.000000   5241646   5259158   5276389   5293173   5309452  
  4060.000000   5325114   5340176   5354579   5368376   5381515  
  4050.000000   5394062   5405975   5417356   5428193   5438609  
  4040.000000   5448561   5458118   5467157   5475679   5483526  
  4030.000000   5490710   5497119   5502808   5507709   5511880  
  4020.000000   5515231   5517825   5519652   5520807   5521271  
  4010.000000   5521199   5520677   5519721   5518098   5515844  
  4000.000000   5513265  
##END= 
