##TITLE= Sample 014 By ssteindl date Montag, November 26 2018
##JCAMP-DX= 4.24
##DATA TYPE= INFRARED SPECTRUM
##ORIGIN= Exported PE Spectrum Data File
##OWNER= Sandra Steindl
##DATE= 18/11/26
##TIME= 12:21:33.00
##SPECTROMETER/DATA SYSTEM= PERKIN-ELMER Frontier FT-IR/NIR IR
##INSTRUMENT PARAMETERS=
  APODIZATION=stark
  DETECTOR=INGAAS
##RESOLUTION= 16.000000
##DELTAX= -2.000000
##XUNITS= 1/CM
##YUNITS= A
##XFACTOR= 1.00
##YFACTOR= 0.00000011920928955078
##FIRSTX= 10000.00
##LASTX= 4000.00
##NPOINTS= 3001
##FIRSTY= 0.257557
##MAXY= 0.646584
##MINY= 0.209907
##XYDATA= (X++(Y..Y))
 10000.000000   2160548   2156603   2153465   2152305   2153436  
  9990.000000   2156299   2160058   2163778   2166421   2167029  
  9980.000000   2165199   2161069   2155298   2148766   2142507  
  9970.000000   2137352   2133763   2131729   2130851   2130555  
  9960.000000   2130368   2130144   2130082   2130642   2132230  
  9950.000000   2135001   2138663   2142541   2145791   2147681  
  9940.000000   2147929   2146734   2144769   2142789   2141395  
  9930.000000   2140727   2140514   2140201   2139262   2137428  
  9920.000000   2134791   2131798   2129039   2127135   2126468  
  9910.000000   2127257   2129415   2132776   2136956   2141540  
  9900.000000   2145936   2149577   2151912   2152625   2151655  
  9890.000000   2149193   2145540   2140895   2135258   2128373  
  9880.000000   2119936   2109807   2098251   2086009   2074141  
  9870.000000   2063770   2055691   2050210   2047073   2045672  
  9860.000000   2045303   2045406   2045714   2046155   2046814  
  9850.000000   2047672   2048688   2049703   2050682   2051650  
  9840.000000   2052802   2054281   2056171   2058332   2060534  
  9830.000000   2062521   2064174   2065566   2066847   2068142  
  9820.000000   2069326   2070081   2069973   2068744   2066493  
  9810.000000   2063748   2061303   2059876   2059752   2060556  
  9800.000000   2061329   2060886   2058323   2053433   2046874  
  9790.000000   2039944   2034157   2030683   2030012   2031861  
  9780.000000   2035380   2039523   2043371   2046388   2048433  
  9770.000000   2049705   2050593   2051544   2052966   2055119  
  9760.000000   2058045   2061478   2064857   2067385   2068272  
  9750.000000   2066982   2063499   2058425   2052826   2047918  
  9740.000000   2044594   2043142   2043119   2043609   2043601  
  9730.000000   2042440   2040083   2037088   2034351   2032689  
  9720.000000   2032505   2033614   2035376   2036951   2037671  
  9710.000000   2037265   2035951   2034308   2033047   2032788  
  9700.000000   2033868   2036302   2039774   2043721   2047452  
  9690.000000   2050247   2051554   2051067   2048863   2045361  
  9680.000000   2041234   2037234   2033954   2031739   2030582  
  9670.000000   2030297   2030574   2031241   2032222   2033603  
  9660.000000   2035423   2037602   2039811   2041512   2042099  
  9650.000000   2041045   2038147   2033523   2027680   2021295  
  9640.000000   2015122   2009788   2005699   2003032   2001684  
  9630.000000   2001410   2001828   2002601   2003485   2004415  
  9620.000000   2005492   2006873   2008654   2010708   2012654  
  9610.000000   2013908   2013893   2012272   2009167   2005193  
  9600.000000   2001331   1998624   1997796   1998989   2001621  
  9590.000000   2004591   2006574   2006486   2003832   1998840  
  9580.000000   1992427   1985826   1980274   1976563   1974906  
  9570.000000   1974867   1975606   1976162   1975829   1974423  
  9560.000000   1972354   1970548   1970066   1971774   1975928  
  9550.000000   1982059   1989069   1995553   2000296   2002587  
  9540.000000   2002443   2000446   1997467   1994283   1991318  
  9530.000000   1988594   1985875   1982948   1979834   1976873  
  9520.000000   1974531   1973197   1972888   1973255   1973686  
  9510.000000   1973602   1972733   1971193   1969430   1967929  
  9500.000000   1966979   1966524   1966245   1965812   1965147  
  9490.000000   1964578   1964702   1966108   1969002   1973010  
  9480.000000   1977243   1980597   1982182   1981634   1979213  
  9470.000000   1975619   1971647   1967879   1964538   1961603  
  9460.000000   1959017   1956910   1955587   1955404   1956425  
  9450.000000   1958292   1960165   1961045   1960136   1957249  
  9440.000000   1952930   1948257   1944423   1942170   1941539  
  9430.000000   1941850   1942108   1941428   1939449   1936425  
  9420.000000   1933062   1930162   1928242   1927372   1927237  
  9410.000000   1927401   1927609   1927892   1928528   1929766  
  9400.000000   1931622   1933741   1935518   1936338   1935881  
  9390.000000   1934283   1932111   1930105   1928874   1928662  
  9380.000000   1929287   1930312   1931240   1931785   1931895  
  9370.000000   1931759   1931566   1931414   1931185   1930654  
  9360.000000   1929611   1927994   1925954   1923736   1921573  
  9350.000000   1919507   1917401   1914985   1912071   1908658  
  9340.000000   1905046   1901737   1899302   1898166   1898445  
  9330.000000   1899941   1902203   1904770   1907282   1909615  
  9320.000000   1911827   1914098   1916596   1919358   1922226  
  9310.000000   1924828   1926706   1927378   1926542   1924082  
  9300.000000   1920202   1915321   1910038   1904974   1900606  
  9290.000000   1897222   1894821   1893264   1892328   1891934  
  9280.000000   1892166   1893287   1895513   1898865   1902991  
  9270.000000   1907214   1910680   1912592   1912531   1910580  
  9260.000000   1907399   1903920   1901055   1899344   1898815  
  9250.000000   1899020   1899222   1898750   1897239   1894803  
  9240.000000   1891904   1889189   1887174   1886113   1885893  
  9230.000000   1886139   1886395   1886281   1885679   1884664  
  9220.000000   1883488   1882366   1881425   1880635   1879867  
  9210.000000   1878986   1877934   1876788   1875753   1875133  
  9200.000000   1875241   1876300   1878348   1881226   1884585  
  9190.000000   1887920   1890648   1892219   1892283   1890774  
  9180.000000   1887969   1884405   1880761   1877695   1875678  
  9170.000000   1874870   1875090   1875932   1876915   1877653  
  9160.000000   1877909   1877662   1877023   1876195   1875348  
  9150.000000   1874610   1874062   1873779   1873846   1874311  
  9140.000000   1875142   1876183   1877170   1877754   1877625  
  9130.000000   1876598   1874742   1872316   1869691   1867202  
  9120.000000   1865045   1863273   1861805   1860583   1859634  
  9110.000000   1859176   1859515   1860905   1863342   1866490  
  9100.000000   1869727   1872262   1873394   1872697   1870234  
  9090.000000   1866468   1862169   1858137   1855037   1853256  
  9080.000000   1852844   1853614   1855191   1857214   1859331  
  9070.000000   1861322   1863009   1864329   1865265   1865854  
  9060.000000   1866143   1866125   1865761   1864909   1863429  
  9050.000000   1861152   1858035   1854183   1849896   1845610  
  9040.000000   1841772   1838782   1836876   1836138   1836447  
  9030.000000   1837604   1839362   1841500   1843814   1846105  
  9020.000000   1848188   1849860   1850946   1851288   1850834  
  9010.000000   1849613   1847793   1845601   1843338   1841299  
  9000.000000   1839742   1838834   1838584   1838863   1839399  
  8990.000000   1839883   1840028   1839696   1838929   1837963  
  8980.000000   1837118   1836681   1836785   1837345   1838113  
  8970.000000   1838765   1839057   1838900   1838391   1837731  
  8960.000000   1837110   1836616   1836197   1835717   1835069  
  8950.000000   1834259   1833444   1832856   1832682   1832947  
  8940.000000   1833475   1833952   1834069   1833671   1832845  
  8930.000000   1831891   1831189   1831025   1831459   1832307  
  8920.000000   1833235   1833924   1834223   1834204   1834119  
  8910.000000   1834238   1834697   1835418   1836133   1836519  
  8900.000000   1836359   1835646   1834613   1833616   1832990  
  8890.000000   1832900   1833281   1833895   1834442   1834704  
  8880.000000   1834638   1834373   1834148   1834187   1834597  
  8870.000000   1835336   1836217   1837022   1837569   1837808  
  8860.000000   1837825   1837823   1838038   1838641   1839656  
  8850.000000   1840926   1842135   1842884   1842815   1841722  
  8840.000000   1839672   1836988   1834194   1831839   1830337  
  8830.000000   1829849   1830244   1831183   1832242   1833108  
  8820.000000   1833676   1834088   1834616   1835530   1836948  
  8810.000000   1838770   1840717   1842413   1843551   1843947  
  8800.000000   1843615   1842683   1841355   1839831   1838291  
  8790.000000   1836896   1835801   1835167   1835109   1835667  
  8780.000000   1836734   1838093   1839459   1840599   1841410  
  8770.000000   1841947   1842384   1842897   1843569   1844317  
  8760.000000   1844923   1845136   1844812   1844007   1842995  
  8750.000000   1842168   1841886   1842324   1843396   1844779  
  8740.000000   1846034   1846759   1846737   1845985   1844759  
  8730.000000   1843432   1842392   1841917   1842125   1842974  
  8720.000000   1844302   1845887   1847508   1849000   1850291  
  8710.000000   1851408   1852457   1853575   1854866   1856347  
  8700.000000   1857921   1859401   1860575   1861286   1861508  
  8690.000000   1861357   1861063   1860870   1860948   1861315  
  8680.000000   1861849   1862336   1862580   1862482   1862078  
  8670.000000   1861531   1861054   1860855   1861065   1861744  
  8660.000000   1862891   1864472   1866445   1868727   1871200  
  8650.000000   1873654   1875841   1877492   1878431   1878625  
  8640.000000   1878229   1877550   1876967   1876838   1877408  
  8630.000000   1878763   1880815   1883359   1886121   1888827  
  8620.000000   1891218   1893091   1894312   1894836   1894729  
  8610.000000   1894150   1893331   1892516   1891915   1891650  
  8600.000000   1891757   1892201   1892920   1893868   1895002  
  8590.000000   1896304   1897703   1899101   1900347   1901316  
  8580.000000   1901969   1902387   1902779   1903381   1904376  
  8570.000000   1905766   1907357   1908793   1909705   1909847  
  8560.000000   1909224   1908117   1906990   1906361   1906593  
  8550.000000   1907822   1909906   1912505   1915214   1917676  
  8540.000000   1919686   1921170   1922147   1922661   1922754  
  8530.000000   1922462   1921859   1921087   1920396   1920081  
  8520.000000   1920407   1921519   1923365   1925708   1928159  
  8510.000000   1930323   1931905   1932809   1933150   1933195  
  8500.000000   1933276   1933649   1934416   1935501   1936695  
  8490.000000   1937759   1938510   1938905   1939049   1939163  
  8480.000000   1939474   1940136   1941148   1942353   1943500  
  8470.000000   1944313   1944618   1944382   1943740   1942934  
  8460.000000   1942228   1941850   1941926   1942498   1943536  
  8450.000000   1945002   1946860   1949074   1951554   1954132  
  8440.000000   1956553   1958512   1959726   1960028   1959453  
  8430.000000   1958222   1956704   1955288   1954292   1953869  
  8420.000000   1953985   1954478   1955131   1955786   1956353  
  8410.000000   1956855   1957345   1957893   1958515   1959188  
  8400.000000   1959867   1960514   1961123   1961696   1962231  
  8390.000000   1962672   1962917   1962832   1962320   1961371  
  8380.000000   1960104   1958744   1957562   1956777   1956477  
  8370.000000   1956604   1956962   1957336   1957568   1957647  
  8360.000000   1957692   1957909   1958474   1959445   1960706  
  8350.000000   1962001   1963023   1963519   1963384   1962686  
  8340.000000   1961640   1960508   1959505   1958735   1958178  
  8330.000000   1957729   1957258   1956667   1955928   1955075  
  8320.000000   1954167   1953265   1952398   1951597   1950901  
  8310.000000   1950389   1950159   1950295   1950829   1951692  
  8300.000000   1952713   1953644   1954234   1954306   1953817  
  8290.000000   1952865   1951641   1950381   1949278   1948456  
  8280.000000   1947935   1947665   1947544   1947464   1947314  
  8270.000000   1946998   1946423   1945516   1944232   1942591  
  8260.000000   1940680   1938651   1936685   1934952   1933561  
  8250.000000   1932545   1931863   1931432   1931161   1930975  
  8240.000000   1930817   1930627   1930326   1929805   1928953  
  8230.000000   1927694   1926052   1924169   1922297   1920723  
  8220.000000   1919682   1919275   1919425   1919905   1920397  
  8210.000000   1920611   1920363   1919638   1918563   1917343  
  8200.000000   1916176   1915184   1914388   1913724   1913088  
  8190.000000   1912384   1911566   1910633   1909609   1908522  
  8180.000000   1907373   1906154   1904848   1903470   1902062  
  8170.000000   1900704   1899467   1898405   1897509   1896733  
  8160.000000   1895988   1895199   1894316   1893331   1892271  
  8150.000000   1891167   1890033   1888842   1887538   1886049  
  8140.000000   1884331   1882389   1880292   1878161   1876139  
  8130.000000   1874364   1872930   1871880   1871194   1870811  
  8120.000000   1870634   1870544   1870409   1870095   1869484  
  8110.000000   1868493   1867108   1865377   1863429   1861423  
  8100.000000   1859533   1857884   1856535   1855464   1854589  
  8090.000000   1853811   1853049   1852274   1851504   1850788  
  8080.000000   1850165   1849640   1849176   1848706   1848174  
  8070.000000   1847552   1846872   1846202   1845620   1845177  
  8060.000000   1844860   1844600   1844289   1843829   1843169  
  8050.000000   1842317   1841336   1840302   1839266   1838227  
  8040.000000   1837138   1835940   1834604   1833178   1831778  
  8030.000000   1830577   1829730   1829329   1829350   1829656  
  8020.000000   1830030   1830239   1830099   1829511   1828487  
  8010.000000   1827118   1825552   1823935   1822405   1821054  
  8000.000000   1819943   1819087   1818472   1818050   1817751  
  7990.000000   1817501   1817233   1816922   1816585   1816285  
  7980.000000   1816104   1816108   1816316   1816677   1817084  
  7970.000000   1817393   1817480   1817267   1816750   1815986  
  7960.000000   1815074   1814117   1813200   1812373   1811655  
  7950.000000   1811046   1810546   1810152   1809868   1809692  
  7940.000000   1809613   1809617   1809685   1809811   1810002  
  7930.000000   1810275   1810648   1811122   1811675   1812259  
  7920.000000   1812809   1813261   1813567   1813714   1813716  
  7910.000000   1813618   1813470   1813326   1813216   1813144  
  7900.000000   1813081   1812972   1812740   1812306   1811609  
  7890.000000   1810628   1809395   1808002   1806581   1805288  
  7880.000000   1804259   1803587   1803295   1803340   1803625  
  7870.000000   1804024   1804418   1804718   1804883   1804916  
  7860.000000   1804858   1804770   1804716   1804746   1804889  
  7850.000000   1805151   1805512   1805947   1806418   1806899  
  7840.000000   1807361   1807780   1808119   1808330   1808352  
  7830.000000   1808112   1807563   1806683   1805507   1804117  
  7820.000000   1802629   1801174   1799864   1798790   1798002  
  7810.000000   1797541   1797418   1797639   1798169   1798937  
  7800.000000   1799803   1800594   1801124   1801258   1800960  
  7790.000000   1800310   1799490   1798709   1798137   1797822  
  7780.000000   1797684   1797524   1797118   1796289   1794982  
  7770.000000   1793281   1791375   1789498   1787846   1786548  
  7760.000000   1785632   1785071   1784805   1784777   1784937  
  7750.000000   1785229   1785577   1785873   1785995   1785843  
  7740.000000   1785369   1784603   1783649   1782644   1781721  
  7730.000000   1780959   1780375   1779926   1779540   1779139  
  7720.000000   1778661   1778068   1777334   1776452   1775427  
  7710.000000   1774295   1773128   1772024   1771099   1770438  
  7700.000000   1770074   1769969   1770023   1770114   1770139  
  7690.000000   1770052   1769871   1769660   1769493   1769409  
  7680.000000   1769402   1769422   1769410   1769324   1769163  
  7670.000000   1768956   1768741   1768534   1768310   1768011  
  7660.000000   1767569   1766944   1766150   1765251   1764354  
  7650.000000   1763558   1762928   1762477   1762162   1761917  
  7640.000000   1761680   1761420   1761151   1760929   1760829  
  7630.000000   1760922   1761246   1761791   1762495   1763244  
  7620.000000   1763907   1764350   1764485   1764288   1763817  
  7610.000000   1763197   1762597   1762167   1762004   1762115  
  7600.000000   1762423   1762799   1763113   1763278   1763281  
  7590.000000   1763179   1763072   1763063   1763213   1763526  
  7580.000000   1763949   1764397   1764793   1765084   1765269  
  7570.000000   1765377   1765463   1765573   1765733   1765940  
  7560.000000   1766160   1766345   1766451   1766457   1766378  
  7550.000000   1766267   1766209   1766290   1766576   1767077  
  7540.000000   1767745   1768479   1769155   1769673   1769989  
  7530.000000   1770140   1770232   1770404   1770780   1771420  
  7520.000000   1772307   1773338   1774379   1775284   1775968  
  7510.000000   1776406   1776652   1776806   1776992   1777325  
  7500.000000   1777890   1778734   1779859   1781227   1782776  
  7490.000000   1784424   1786088   1787687   1789160   1790461  
  7480.000000   1791571   1792487   1793231   1793837   1794371  
  7470.000000   1794915   1795580   1796470   1797665   1799191  
  7460.000000   1801006   1803002   1805028   1806930   1808602  
  7450.000000   1810003   1811172   1812195   1813191   1814258  
  7440.000000   1815474   1816870   1818453   1820212   1822126  
  7430.000000   1824167   1826291   1828437   1830541   1832535  
  7420.000000   1834384   1836073   1837628   1839086   1840492  
  7410.000000   1841879   1843273   1844703   1846210   1847855  
  7400.000000   1849695   1851774   1854083   1856556   1859073  
  7390.000000   1861490   1863689   1865599   1867216   1868586  
  7380.000000   1869783   1870878   1871926   1872965   1874036  
  7370.000000   1875196   1876518   1878079   1879920   1882033  
  7360.000000   1884345   1886742   1889098   1891310   1893326  
  7350.000000   1895133   1896747   1898181   1899445   1900549  
  7340.000000   1901525   1902459   1903478   1904737   1906350  
  7330.000000   1908358   1910684   1913158   1915542   1917622  
  7320.000000   1919260   1920438   1921242   1921822   1922349  
  7310.000000   1922956   1923716   1924640   1925696   1926837  
  7300.000000   1928016   1929208   1930395   1931582   1932773  
  7290.000000   1933992   1935259   1936596   1938003   1939458  
  7280.000000   1940916   1942316   1943607   1944765   1945810  
  7270.000000   1946796   1947788   1948832   1949934   1951050  
  7260.000000   1952113   1953048   1953816   1954422   1954920  
  7250.000000   1955382   1955887   1956489   1957219   1958085  
  7240.000000   1959095   1960256   1961588   1963102   1964803  
  7230.000000   1966663   1968645   1970685   1972742   1974772  
  7220.000000   1976777   1978756   1980745   1982770   1984882  
  7210.000000   1987116   1989515   1992093   1994849   1997743  
  7200.000000   2000722   2003719   2006694   2009631   2012562  
  7190.000000   2015525   2018570   2021700   2024888   2028053  
  7180.000000   2031125   2034038   2036801   2039462   2042123  
  7170.000000   2044878   2047811   2050949   2054296   2057822  
  7160.000000   2061514   2065357   2069359   2073506   2077780  
  7150.000000   2082119   2086471   2090779   2095046   2099299  
  7140.000000   2103621   2108071   2112694   2117461   2122323  
  7130.000000   2127201   2132064   2136914   2141824   2146870  
  7120.000000   2152132   2157616   2163286   2169038   2174783  
  7110.000000   2180444   2186027   2191575   2197184   2202926  
  7100.000000   2208862   2214992   2221293   2227709   2234203  
  7090.000000   2240738   2247307   2253901   2260520   2267146  
  7080.000000   2273766   2280356   2286908   2293412   2299877  
  7070.000000   2306308   2312723   2319130   2325545   2331973  
  7060.000000   2338418   2344865   2351299   2357695   2364041  
  7050.000000   2370338   2376613   2382907   2389264   2395712  
  7040.000000   2402248   2408845   2415460   2422053   2428600  
  7030.000000   2435098   2441551   2447958   2454292   2460512  
  7020.000000   2466567   2472439   2478144   2483757   2489371  
  7010.000000   2495084   2500938   2506923   2512955   2518930  
  7000.000000   2524735   2530309   2535634   2540748   2545696  
  6990.000000   2550532   2555272   2559932   2564499   2568985  
  6980.000000   2573402   2577785   2582149   2586508   2590832  
  6970.000000   2595092   2599234   2603232   2607066   2610750  
  6960.000000   2614297   2617740   2621091   2624379   2627611  
  6950.000000   2630811   2633983   2637135   2640246   2643290  
  6940.000000   2646220   2649010   2651637   2654117   2656478  
  6930.000000   2658763   2660999   2663204   2665367   2667479  
  6920.000000   2669523   2671512   2673461   2675404   2677361  
  6910.000000   2679342   2681327   2683289   2685182   2686970  
  6900.000000   2688621   2690127   2691491   2692743   2693926  
  6890.000000   2695106   2696344   2697698   2699184   2700781  
  6880.000000   2702420   2704011   2705468   2706742   2707837  
  6870.000000   2708807   2709734   2710692   2711716   2712795  
  6860.000000   2713879   2714912   2715859   2716734   2717588  
  6850.000000   2718497   2719520   2720685   2721965   2723297  
  6840.000000   2724599   2725795   2726834   2727694   2728380  
  6830.000000   2728920   2729350   2729723   2730090   2730511  
  6820.000000   2731028   2731666   2732405   2733201   2733975  
  6810.000000   2734658   2735197   2735581   2735838   2736027  
  6800.000000   2736214   2736448   2736746   2737094   2737448  
  6790.000000   2737756   2737969   2738059   2738021   2737883  
  6780.000000   2737692   2737515   2737414   2737436   2737594  
  6770.000000   2737867   2738198   2738517   2738762   2738898  
  6760.000000   2738924   2738874   2738794   2738727   2738695  
  6750.000000   2738696   2738715   2738738   2738762   2738802  
  6740.000000   2738878   2739009   2739195   2739423   2739664  
  6730.000000   2739890   2740081   2740228   2740329   2740383  
  6720.000000   2740388   2740343   2740251   2740130   2740007  
  6710.000000   2739911   2739852   2739818   2739763   2739641  
  6700.000000   2739411   2739075   2738674   2738287   2737986  
  6690.000000   2737816   2737760   2737752   2737689   2737482  
  6680.000000   2737074   2736468   2735705   2734850   2733946  
  6670.000000   2733017   2732052   2731039   2729977   2728902  
  6660.000000   2727871   2726953   2726185   2725575   2725072  
  6650.000000   2724605   2724087   2723456   2722672   2721735  
  6640.000000   2720658   2719468   2718188   2716842   2715449  
  6630.000000   2714035   2712623   2711236   2709886   2708577  
  6620.000000   2707300   2706046   2704803   2703566   2702326  
  6610.000000   2701076   2699803   2698496   2697151   2695778  
  6600.000000   2694399   2693043   2691727   2690447   2689169  
  6590.000000   2687842   2686417   2684869   2683213   2681501  
  6580.000000   2679805   2678187   2676679   2675272   2673924  
  6570.000000   2672581   2671198   2669760   2668279   2666789  
  6560.000000   2665325   2663914   2662563   2661264   2659999  
  6550.000000   2658741   2657465   2656142   2654750   2653270  
  6540.000000   2651708   2650091   2648472   2646912   2645469  
  6530.000000   2644170   2643011   2641954   2640947   2639951  
  6520.000000   2638948   2637952   2636990   2636083   2635233  
  6510.000000   2634408   2633560   2632634   2631601   2630459  
  6500.000000   2629242   2628004   2626802   2625684   2624675  
  6490.000000   2623782   2622995   2622286   2621614   2620926  
  6480.000000   2620164   2619274   2618229   2617036   2615742  
  6470.000000   2614428   2613180   2612072   2611143   2610392  
  6460.000000   2609786   2609277   2608814   2608357   2607870  
  6450.000000   2607319   2606668   2605881   2604941   2603854  
  6440.000000   2602664   2601440   2600268   2599212   2598311  
  6430.000000   2597555   2596909   2596324   2595761   2595203  
  6420.000000   2594656   2594136   2593666   2593253   2592907  
  6410.000000   2592626   2592419   2592285   2592226   2592216  
  6400.000000   2592217   2592167   2592017   2591739   2591351  
  6390.000000   2590911   2590503   2590208   2590079   2590122  
  6380.000000   2590299   2590547   2590795   2590989   2591099  
  6370.000000   2591116   2591045   2590898   2590688   2590435  
  6360.000000   2590161   2589896   2589663   2589470   2589303  
  6350.000000   2589130   2588906   2588598   2588189   2587696  
  6340.000000   2587149   2586590   2586044   2585523   2585018  
  6330.000000   2584516   2584004   2583478   2582940   2582392  
  6320.000000   2581823   2581219   2580559   2579835   2579055  
  6310.000000   2578249   2577450   2576693   2575979   2575293  
  6300.000000   2574592   2573838   2572998   2572073   2571070  
  6290.000000   2570013   2568912   2567768   2566567   2565301  
  6280.000000   2563970   2562598   2561215   2559857   2558539  
  6270.000000   2557255   2555975   2554665   2553295   2551860  
  6260.000000   2550369   2548850   2547327   2545816   2544316  
  6250.000000   2542822   2541325   2539827   2538336   2536860  
  6240.000000   2535403   2533960   2532516   2531061   2529592  
  6230.000000   2528121   2526671   2525262   2523902   2522581  
  6220.000000   2521270   2519933   2518539   2517074   2515543  
  6210.000000   2513972   2512391   2510833   2509323   2507877  
  6200.000000   2506504   2505202   2503960   2502757   2501560  
  6190.000000   2500338   2499064   2497730   2496352   2494968  
  6180.000000   2493626   2492367   2491215   2490160   2489171  
  6170.000000   2488199   2487195   2486125   2484974   2483748  
  6160.000000   2482473   2481181   2479911   2478695   2477558  
  6150.000000   2476505   2475524   2474585   2473643   2472656  
  6140.000000   2471593   2470448   2469240   2468006   2466784  
  6130.000000   2465601   2464468   2463374   2462312   2461277  
  6120.000000   2460289   2459374   2458567   2457885   2457322  
  6110.000000   2456843   2456404   2455957   2455486   2454988  
  6100.000000   2454494   2454030   2453620   2453261   2452939  
  6090.000000   2452623   2452299   2451961   2451627   2451321  
  6080.000000   2451071   2450890   2450784   2450740   2450754  
  6070.000000   2450813   2450918   2451065   2451259   2451495  
  6060.000000   2451779   2452109   2452505   2452977   2453549  
  6050.000000   2454223   2455001   2455862   2456791   2457771  
  6040.000000   2458811   2459926   2461152   2462510   2464012  
  6030.000000   2465638   2467358   2469121   2470898   2472664  
  6020.000000   2474430   2476205   2478015   2479866   2481762  
  6010.000000   2483683   2485620   2487554   2489488   2491419  
  6000.000000   2493358   2495303   2497260   2499224   2501205  
  5990.000000   2503210   2505263   2507383   2509592   2511894  
  5980.000000   2514292   2516764   2519299   2521872   2524478  
  5970.000000   2527105   2529764   2532456   2535205   2538021  
  5960.000000   2540933   2543950   2547090   2550343   2553697  
  5950.000000   2557117   2560579   2564053   2567540   2571045  
  5940.000000   2574599   2578229   2581958   2585792   2589719  
  5930.000000   2593713   2597738   2601757   2605735   2609641  
  5920.000000   2613440   2617103   2620602   2623915   2627033  
  5910.000000   2629960   2632707   2635298   2637751   2640095  
  5900.000000   2642351   2644558   2646751   2648983   2651288  
  5890.000000   2653707   2656241   2658886   2661603   2664356  
  5880.000000   2667098   2669791   2672402   2674905   2677276  
  5870.000000   2679493   2681548   2683447   2685218   2686907  
  5860.000000   2688574   2690272   2692040   2693894   2695830  
  5850.000000   2697832   2699883   2701973   2704103   2706280  
  5840.000000   2708511   2710799   2713146   2715546   2717996  
  5830.000000   2720489   2723018   2725565   2728111   2730626  
  5820.000000   2733096   2735514   2737900   2740286   2742707  
  5810.000000   2745187   2747719   2750278   2752809   2755279  
  5800.000000   2757653   2759950   2762187   2764419   2766653  
  5790.000000   2768900   2771102   2773202   2775097   2776710  
  5780.000000   2777945   2778747   2779052   2778839   2778090  
  5770.000000   2776846   2775166   2773165   2770960   2768693  
  5760.000000   2766461   2764347   2762374   2760558   2758876  
  5750.000000   2757326   2755890   2754571   2753356   2752237  
  5740.000000   2751193   2750206   2749265   2748360   2747495  
  5730.000000   2746666   2745871   2745089   2744305   2743500  
  5720.000000   2742670   2741821   2740973   2740142   2739339  
  5710.000000   2738562   2737805   2737060   2736334   2735645  
  5700.000000   2735020   2734483   2734042   2733684   2733379  
  5690.000000   2733092   2732792   2732470   2732126   2731780  
  5680.000000   2731437   2731101   2730748   2730352   2729871  
  5670.000000   2729270   2728509   2727559   2726389   2724985  
  5660.000000   2723339   2721480   2719451   2717329   2715191  
  5650.000000   2713111   2711128   2709259   2707487   2705787  
  5640.000000   2704131   2702506   2700910   2699346   2697819  
  5630.000000   2696324   2694856   2693411   2691998   2690631  
  5620.000000   2689333   2688116   2686984   2685915   2684886  
  5610.000000   2683872   2682866   2681875   2680927   2680044  
  5600.000000   2679241   2678511   2677830   2677164   2676486  
  5590.000000   2675775   2675027   2674238   2673405   2672518  
  5580.000000   2671566   2670546   2669469   2668365   2667271  
  5570.000000   2666221   2665229   2664285   2663359   2662412  
  5560.000000   2661413   2660351   2659231   2658072   2656892  
  5550.000000   2655703   2654510   2653317   2652132   2650979  
  5540.000000   2649886   2648879   2647965   2647130   2646336  
  5530.000000   2645537   2644693   2643783   2642809   2641790  
  5520.000000   2640754   2639723   2638709   2637714   2636729  
  5510.000000   2635745   2634751   2633737   2632691   2631605  
  5500.000000   2630473   2629305   2628115   2626931   2625772  
  5490.000000   2624647   2623536   2622404   2621204   2619905  
  5480.000000   2618493   2616989   2615430   2613866   2612325  
  5470.000000   2610821   2609337   2607850   2606331   2604766  
  5460.000000   2603147   2601473   2599737   2597928   2596036  
  5450.000000   2594056   2592005   2589919   2587847   2585835  
  5440.000000   2583914   2582090   2580353   2578684   2577075  
  5430.000000   2575520   2574025   2572582   2571180   2569787  
  5420.000000   2568387   2566969   2565567   2564231   2563039  
  5410.000000   2562037   2561246   2560627   2560132   2559691  
  5400.000000   2559279   2558888   2558564   2558343   2558271  
  5390.000000   2558340   2558540   2558824   2559177   2559589  
  5380.000000   2560103   2560750   2561581   2562592   2563784  
  5370.000000   2565099   2566518   2567991   2569539   2571154  
  5360.000000   2572894   2574766   2576838   2579116   2581676  
  5350.000000   2584532   2587765   2591372   2595406   2599819  
  5340.000000   2604627   2609768   2615278   2621123   2627378  
  5330.000000   2634014   2641096   2648564   2656457   2664705  
  5320.000000   2673377   2682445   2692033   2702142   2712904  
  5310.000000   2724292   2736398   2749155   2762632   2776767  
  5300.000000   2791648   2807240   2823658   2840884   2859027  
  5290.000000   2878043   2897988   2918744   2940276   2962409  
  5280.000000   2985094   3008211   3031815   3055920   3080674  
  5270.000000   3106119   3132311   3159136   3186435   3213966  
  5260.000000   3241538   3269035   3296454   3323876   3351380  
  5250.000000   3379006   3406648   3434139   3461188   3487599  
  5240.000000   3513172   3537927   3561879   3585218   3608013  
  5230.000000   3630406   3652330   3673768   3694521   3714522  
  5220.000000   3733610   3751838   3769191   3785855   3801889  
  5210.000000   3817472   3832573   3847229   3861258   3874600  
  5200.000000   3887064   3898680   3909397   3919379   3928660  
  5190.000000   3937403   3945580   3953251   3960308   3966772  
  5180.000000   3972552   3977720   3982240   3986208   3989581  
  5170.000000   3992419   3994655   3996341   3997439   3998042  
  5160.000000   3998152   3997867   3997172   3996126   3994679  
  5150.000000   3992876   3990685   3988172   3985332   3982225  
  5140.000000   3978825   3975159   3971184   3966927   3962383  
  5130.000000   3957621   3952675   3947620   3942476   3937276  
  5120.000000   3932001   3926655   3921220   3915712   3910138  
  5110.000000   3904528   3898894   3893260   3887632   3882034  
  5100.000000   3876482   3871007   3865629   3860360   3855194  
  5090.000000   3850109   3845072   3840060   3835056   3830062  
  5080.000000   3825086   3820143   3815232   3810345   3805457  
  5070.000000   3800548   3795593   3790586   3785519   3780398  
  5060.000000   3775213   3769960   3764615   3759170   3753603  
  5050.000000   3747917   3742107   3736185   3730150   3724014  
  5040.000000   3717774   3711443   3705031   3698561   3692053  
  5030.000000   3685532   3679009   3672493   3665982   3659478  
  5020.000000   3652987   3646524   3640114   3633781   3627554  
  5010.000000   3621443   3615462   3609601   3603871   3598260  
  5000.000000   3592788   3587454   3582288   3577289   3572488  
  4990.000000   3567875   3563482   3559298   3555357   3551646  
  4980.000000   3548198   3544992   3542055   3539359   3536941  
  4970.000000   3534784   3532942   3531410   3530250   3529443  
  4960.000000   3529032   3528975   3529293   3529934   3530925  
  4950.000000   3532227   3533884   3535867   3538227   3540933  
  4940.000000   3544028   3547473   3551306   3555483   3560041  
  4930.000000   3564937   3570208   3575815   3581798   3588127  
  4920.000000   3594842   3601916   3609382   3617201   3625392  
  4910.000000   3633906   3642748   3651874   3661281   3670930  
  4900.000000   3680816   3690902   3701174   3711597   3722148  
  4890.000000   3732791   3743482   3754174   3764790   3775268  
  4880.000000   3785520   3795497   3805129   3814406   3823282  
  4870.000000   3831767   3839810   3847414   3854516   3861123  
  4860.000000   3867189   3872753   3877804   3882409   3886571  
  4850.000000   3890351   3893739   3896785   3899479   3901884  
  4840.000000   3904018   3905966   3907769   3909510   3911220  
  4830.000000   3912947   3914689   3916453   3918210   3919946  
  4820.000000   3921631   3923258   3924827   3926358   3927885  
  4810.000000   3929448   3931090   3932837   3934706   3936690  
  4800.000000   3938775   3940938   3943161   3945432   3947750  
  4790.000000   3950116   3952536   3955009   3957535   3960105  
  4780.000000   3962709   3965336   3967972   3970601   3973202  
  4770.000000   3975755   3978234   3980625   3982914   3985104  
  4760.000000   3987196   3989201   3991121   3992964   3994723  
  4750.000000   3996407   3998006   3999533   4000982   4002359  
  4740.000000   4003653   4004863   4005971   4006978   4007878  
  4730.000000   4008683   4009401   4010047   4010629   4011149  
  4720.000000   4011605   4011998   4012333   4012629   4012913  
  4710.000000   4013220   4013588   4014049   4014630   4015345  
  4700.000000   4016203   4017203   4018342   4019608   4020993  
  4690.000000   4022479   4024059   4025714   4027441   4029220  
  4680.000000   4031045   4032884   4034715   4036495   4038199  
  4670.000000   4039793   4041283   4042674   4044013   4045343  
  4660.000000   4046736   4048244   4049933   4051845   4054017  
  4650.000000   4056466   4059194   4062177   4065375   4068732  
  4640.000000   4072188   4075684   4079177   4082641   4086060  
  4630.000000   4089430   4092737   4095965   4099079   4102046  
  4620.000000   4104818   4107365   4109651   4111669   4113398  
  4610.000000   4114849   4116019   4116941   4117632   4118151  
  4600.000000   4118533   4118842   4119104   4119361   4119603  
  4590.000000   4119841   4120040   4120193   4120258   4120224  
  4580.000000   4120050   4119721   4119200   4118479   4117541  
  4570.000000   4116407   4115092   4113640   4112081   4110456  
  4560.000000   4108776   4107062   4105310   4103530   4101717  
  4550.000000   4099886   4098034   4096167   4094275   4092352  
  4540.000000   4090385   4088372   4086317   4084232   4082137  
  4530.000000   4080042   4077959   4075879   4073806   4071723  
  4520.000000   4069652   4067597   4065608   4063704   4061951  
  4510.000000   4060356   4058984   4057833   4056977   4056424  
  4500.000000   4056273   4056541   4057335   4058661   4060611  
  4490.000000   4063168   4066414   4070319   4074963   4080309  
  4480.000000   4086422   4093248   4100825   4109076   4118024  
  4470.000000   4127586   4137781   4148525   4159827   4171593  
  4460.000000   4183807   4196362   4209230   4222309   4235579  
  4450.000000   4248971   4262488   4276096   4289813   4303625  
  4440.000000   4317539   4331540   4345604   4359706   4373798  
  4430.000000   4387857   4401824   4415694   4429408   4442965  
  4420.000000   4456290   4469368   4482094   4494431   4506255  
  4410.000000   4517525   4528125   4538030   4547151   4555497  
  4400.000000   4563019   4569770   4575750   4581061   4585752  
  4390.000000   4589964   4593777   4597340   4600728   4604057  
  4380.000000   4607360   4610698   4614062   4617476   4620932  
  4370.000000   4624460   4628082   4631846   4635788   4639945  
  4360.000000   4644323   4648919   4653692   4658612   4663607  
  4350.000000   4668653   4673675   4678683   4683628   4688568  
  4340.000000   4693483   4698428   4703330   4708097   4712455  
  4330.000000   4716063   4718443   4719157   4717832   4714335  
  4320.000000   4708776   4701576   4693335   4684780   4676558  
  4310.000000   4669198   4662973   4657978   4654103   4651178  
  4300.000000   4648986   4647359   4646171   4645336   4644811  
  4290.000000   4644541   4644517   4644696   4645097   4645707  
  4280.000000   4646552   4647620   4648899   4650355   4651938  
  4270.000000   4653615   4655338   4657073   4658731   4660192  
  4260.000000   4661239   4661626   4661067   4659348   4656349  
  4250.000000   4652124   4646865   4640920   4634664   4628494  
  4240.000000   4622691   4617456   4612821   4608753   4605113  
  4230.000000   4601765   4598558   4595381   4592151   4588820  
  4220.000000   4585383   4581844   4578266   4574696   4571243  
  4210.000000   4567974   4564993   4562342   4560073   4558174  
  4200.000000   4556637   4555407   4554452   4553709   4553160  
  4190.000000   4552752   4552494   4552349   4552343   4552448  
  4180.000000   4552700   4553075   4553615   4554307   4555211  
  4170.000000   4556333   4557761   4559520   4561703   4564325  
  4160.000000   4567454   4571059   4575163   4579698   4584670  
  4150.000000   4590011   4595753   4601857   4608391   4615338  
  4140.000000   4622778   4630689   4639135   4648070   4657532  
  4130.000000   4667453   4677856   4688670   4699925   4711572  
  4120.000000   4723663   4736179   4749190   4762692   4776756  
  4110.000000   4791368   4806570   4822315   4838589   4855301  
  4100.000000   4872388   4889734   4907270   4924917   4942646  
  4090.000000   4960439   4978306   4996255   5014282   5032383  
  4080.000000   5050517   5068666   5086770   5104811   5122714  
  4070.000000   5140446   5157898   5175025   5191705   5207920  
  4060.000000   5223586   5238736   5253316   5267380   5280863  
  4050.000000   5293821   5306189   5318049   5329359   5340220  
  4040.000000   5350569   5360465   5369783   5378532   5386565  
  4030.000000   5393907   5400448   5406244   5411218   5415415  
  4020.000000   5418731   5421224   5422878   5423793   5423938  
  4010.000000   5423473   5422486   5420982   5418700   5415688  
  4000.000000   5412303  
##END= 
