##TITLE= Sample 005 By ssteindl date Montag, November 26 2018
##JCAMP-DX= 4.24
##DATA TYPE= INFRARED SPECTRUM
##ORIGIN= Exported PE Spectrum Data File
##OWNER= Sandra Steindl
##DATE= 18/11/26
##TIME= 12:08:08.00
##SPECTROMETER/DATA SYSTEM= PERKIN-ELMER Frontier FT-IR/NIR IR
##INSTRUMENT PARAMETERS=
  APODIZATION=stark
  DETECTOR=INGAAS
##RESOLUTION= 16.000000
##DELTAX= -2.000000
##XUNITS= 1/CM
##YUNITS= A
##XFACTOR= 1.00
##YFACTOR= 0.00000011920928955078
##FIRSTX= 10000.00
##LASTX= 4000.00
##NPOINTS= 3001
##FIRSTY= 0.296598
##MAXY= 0.624161
##MINY= 0.242150
##XYDATA= (X++(Y..Y))
 10000.000000   2488045   2482415   2476063   2468213   2459304  
  9990.000000   2450496   2442837   2437155   2434462   2435589  
  9980.000000   2440556   2448294   2457028   2464651   2469406  
  9970.000000   2470377   2467953   2463494   2458848   2455499  
  9960.000000   2454192   2454689   2456246   2457988   2459399  
  9950.000000   2460427   2461250   2462098   2462865   2463313  
  9940.000000   2463156   2462507   2461956   2462444   2464821  
  9930.000000   2469267   2474994   2480277   2483039   2481609  
  9920.000000   2475521   2465753   2454520   2444430   2437583  
  9910.000000   2434881   2435827   2438977   2442550   2445258  
  9900.000000   2446613   2447072   2447562   2449068   2452070  
  9890.000000   2456397   2461280   2465627   2468482   2469172  
  9880.000000   2467551   2463790   2458318   2451671   2444401  
  9870.000000   2437145   2430502   2425059   2421240   2419239  
  9860.000000   2418978   2420116   2422095   2424220   2425724  
  9850.000000   2425929   2424417   2421183   2416756   2412079  
  9840.000000   2408347   2406626   2407567   2411140   2416627  
  9830.000000   2422775   2428194   2431723   2432800   2431520  
  9820.000000   2428552   2424804   2421105   2417993   2415640  
  9810.000000   2414009   2412983   2412551   2412818   2413950  
  9800.000000   2416040   2418965   2422315   2425415   2427445  
  9790.000000   2427641   2425536   2421120   2414998   2408260  
  9780.000000   2402364   2398724   2398363   2401551   2407622  
  9770.000000   2415124   2422164   2427037   2428733   2427329  
  9760.000000   2423895   2420142   2417747   2417793   2420393  
  9750.000000   2424721   2429373   2432888   2434276   2433264  
  9740.000000   2430286   2426151   2421693   2417450   2413606  
  9730.000000   2410066   2406652   2403281   2400016   2397098  
  9720.000000   2394795   2393426   2393226   2394449   2397243  
  9710.000000   2401643   2407358   2413707   2419587   2423693  
  9700.000000   2424896   2422634   2417249   2409917   2402378  
  9690.000000   2396285   2392644   2391441   2391636   2391642  
  9680.000000   2389918   2385667   2379109   2371463   2364434  
  9670.000000   2359608   2357837   2358959   2361897   2365045  
  9660.000000   2366935   2366642   2364165   2360241   2356081  
  9650.000000   2352864   2351330   2351597   2353224   2355463  
  9640.000000   2357659   2359418   2360772   2361955   2363248  
  9630.000000   2364697   2366029   2366743   2366310   2364485  
  9620.000000   2361471   2357968   2354952   2353428   2354035  
  9610.000000   2356907   2361538   2366980   2372025   2375541  
  9600.000000   2376709   2375176   2371112   2365088   2357988  
  9590.000000   2350783   2344403   2339551   2336553   2335324  
  9580.000000   2335347   2335930   2336381   2336342   2335845  
  9570.000000   2335308   2335274   2336125   2337835   2339866  
  9560.000000   2341357   2341378   2339406   2335499   2330463  
  9550.000000   2325498   2321841   2320235   2320693   2322491  
  9540.000000   2324480   2325558   2325060   2323037   2320161  
  9530.000000   2317535   2316241   2317027   2320044   2324819  
  9520.000000   2330443   2335791   2339881   2341993   2341842  
  9510.000000   2339515   2335435   2330269   2324810   2319887  
  9500.000000   2316230   2314362   2314480   2316422   2319636  
  9490.000000   2323328   2326578   2328625   2329018   2327774  
  9480.000000   2325318   2322356   2319622   2317681   2316748  
  9470.000000   2316698   2317127   2317580   2317699   2317364  
  9460.000000   2316626   2315608   2314315   2312563   2310018  
  9450.000000   2306315   2301315   2295175   2288459   2281941  
  9440.000000   2276417   2272435   2270135   2269282   2269414  
  9430.000000   2270096   2271088   2272385   2274128   2276418  
  9420.000000   2279196   2282138   2284797   2286706   2287654  
  9410.000000   2287710   2287258   2286775   2286660   2287083  
  9400.000000   2287927   2288934   2289804   2290395   2290715  
  9390.000000   2290895   2291035   2291113   2290946   2290255  
  9380.000000   2288788   2286407   2283194   2279398   2275432  
  9370.000000   2271721   2268637   2266441   2265234   2265047  
  9360.000000   2265754   2267193   2269104   2271273   2273557  
  9350.000000   2275943   2278497   2281229   2283997   2286381  
  9340.000000   2287776   2287469   2284974   2280218   2273749  
  9330.000000   2266640   2260181   2255500   2253144   2253014  
  9320.000000   2254398   2256330   2257902   2258613   2258441  
  9310.000000   2257729   2256899   2256181   2255545   2254709  
  9300.000000   2253423   2251572   2249387   2247296   2245801  
  9290.000000   2245228   2245581   2246599   2247851   2249022  
  9280.000000   2250016   2251014   2252318   2254121   2256351  
  9270.000000   2258621   2260382   2261081   2260395   2258328  
  9260.000000   2255260   2251776   2248492   2245888   2244202  
  9250.000000   2243483   2243580   2244299   2245393   2246641  
  9240.000000   2247830   2248775   2249358   2249512   2249253  
  9230.000000   2248599   2247577   2246153   2244287   2241953  
  9220.000000   2239249   2236459   2234060   2232617   2232564  
  9210.000000   2234061   2236834   2240273   2243527   2245832  
  9200.000000   2246717   2246161   2244590   2242647   2241008  
  9190.000000   2240053   2239793   2239804   2239418   2237986  
  9180.000000   2235144   2230978   2226011   2221135   2217357  
  9170.000000   2215522   2216014   2218670   2222785   2227300  
  9160.000000   2231046   2233096   2233037   2231087   2227990  
  9150.000000   2224770   2222397   2221489   2222117   2223814  
  9140.000000   2225766   2227097   2227173   2225757   2223037  
  9130.000000   2219508   2215749   2212235   2209180   2206553  
  9120.000000   2204197   2201959   2199828   2197946   2196558  
  9110.000000   2195932   2196193   2197281   2198906   2200665  
  9100.000000   2202192   2203225   2203711   2203699   2203349  
  9090.000000   2202759   2201963   2200867   2199361   2197407  
  9080.000000   2195138   2192876   2191029   2190012   2190053  
  9070.000000   2191158   2193026   2195213   2197248   2198792  
  9060.000000   2199703   2200003   2199823   2199253   2198298  
  9050.000000   2196833   2194722   2191924   2188626   2185223  
  9040.000000   2182227   2180125   2179194   2179426   2180481  
  9030.000000   2181860   2183065   2183767   2183879   2183524  
  9020.000000   2182967   2182442   2182074   2181817   2181548  
  9010.000000   2181131   2180536   2179857   2179299   2179102  
  9000.000000   2179431   2180334   2181693   2183295   2184876  
  8990.000000   2186201   2187123   2187561   2187519   2187015  
  8980.000000   2186091   2184791   2183193   2181419   2179659  
  8970.000000   2178158   2177175   2176931   2177517   2178887  
  8960.000000   2180805   2182937   2184873   2186289   2186987  
  8950.000000   2186981   2186456   2185709   2185039   2184637  
  8940.000000   2184529   2184558   2184459   2183927   2182745  
  8930.000000   2180821   2178244   2175218   2172016   2168912  
  8920.000000   2166131   2163835   2162114   2161029   2160614  
  8910.000000   2160904   2161883   2163503   2165647   2168142  
  8900.000000   2170744   2173178   2175191   2176552   2177134  
  8890.000000   2176890   2175937   2174455   2172695   2170876  
  8880.000000   2169173   2167663   2166335   2165151   2164092  
  8870.000000   2163233   2162693   2162642   2163184   2164327  
  8860.000000   2165911   2167668   2169296   2170548   2171320  
  8850.000000   2171634   2171625   2171420   2171101   2170645  
  8840.000000   2169992   2169098   2168024   2166952   2166145  
  8830.000000   2165856   2166206   2167138   2168394   2169633  
  8820.000000   2170540   2170953   2170899   2170574   2170241  
  8810.000000   2170124   2170317   2170774   2171350   2171887  
  8800.000000   2172283   2172523   2172657   2172747   2172818  
  8790.000000   2172835   2172718   2172388   2171808   2171012  
  8780.000000   2170091   2169177   2168390   2167825   2167534  
  8770.000000   2167545   2167864   2168471   2169298   2170201  
  8760.000000   2170977   2171391   2171263   2170535   2169319  
  8750.000000   2167882   2166579   2165745   2165591   2166146  
  8740.000000   2167240   2168584   2169860   2170828   2171372  
  8730.000000   2171497   2171284   2170818   2170171   2169368  
  8720.000000   2168437   2167420   2166420   2165575   2165029  
  8710.000000   2164887   2165170   2165823   2166740   2167807  
  8700.000000   2168954   2170134   2171335   2172510   2173582  
  8690.000000   2174428   2174939   2175083   2174937   2174727  
  8680.000000   2174745   2175298   2176567   2178564   2181087  
  8670.000000   2183779   2186213   2187986   2188813   2188536  
  8660.000000   2187148   2184756   2181610   2178024   2174406  
  8650.000000   2171172   2168733   2167390   2167250   2168216  
  8640.000000   2169973   2172146   2174364   2176437   2178368  
  8630.000000   2180340   2182597   2185278   2188333   2191447  
  8620.000000   2194164   2195985   2196593   2195934   2194268  
  8610.000000   2192088   2189952   2188358   2187579   2187669  
  8600.000000   2188449   2189629   2190873   2191890   2192466  
  8590.000000   2192475   2191885   2190735   2189155   2187321  
  8580.000000   2185468   2183819   2182587   2181901   2181818  
  8570.000000   2182330   2183401   2184998   2187081   2189599  
  8560.000000   2192444   2195433   2198322   2200824   2202719  
  8550.000000   2203876   2204335   2204260   2203926   2203605  
  8540.000000   2203508   2203733   2204271   2205053   2205969  
  8530.000000   2206952   2207939   2208929   2209901   2210850  
  8520.000000   2211743   2212554   2213266   2213870   2214366  
  8510.000000   2214724   2214897   2214806   2214374   2213578  
  8500.000000   2212481   2211263   2210182   2209533   2209551  
  8490.000000   2210348   2211840   2213786   2215823   2217580  
  8480.000000   2218759   2219220   2219012   2218332   2217472  
  8470.000000   2216692   2216180   2215972   2215991   2216062  
  8460.000000   2216011   2215726   2215208   2214581   2214041  
  8450.000000   2213816   2214074   2214904   2216262   2218022  
  8440.000000   2219977   2221918   2223656   2225051   2226029  
  8430.000000   2226559   2226674   2226412   2225838   2224982  
  8420.000000   2223878   2222528   2220953   2219195   2217352  
  8410.000000   2215609   2214208   2213437   2213520   2214591  
  8400.000000   2216606   2219366   2222511   2225635   2228357  
  8390.000000   2230414   2231690   2232222   2232172   2231746  
  8380.000000   2231152   2230532   2229964   2229437   2228874  
  8370.000000   2228150   2227131   2225734   2223956   2221915  
  8360.000000   2219819   2217955   2216585   2215900   2215925  
  8350.000000   2216533   2217478   2218485   2219339   2219935  
  8340.000000   2220303   2220547   2220781   2221046   2221305  
  8330.000000   2221441   2221347   2220971   2220378   2219715  
  8320.000000   2219171   2218898   2218947   2219265   2219706  
  8310.000000   2220109   2220342   2220363   2220190   2219898  
  8300.000000   2219552   2219210   2218894   2218620   2218397  
  8290.000000   2218234   2218130   2218043   2217884   2217506  
  8280.000000   2216750   2215496   2213729   2211553   2209185  
  8270.000000   2206902   2204977   2203617   2202914   2202843  
  8260.000000   2203270   2204024   2204905   2205757   2206448  
  8250.000000   2206910   2207126   2207128   2206979   2206739  
  8240.000000   2206446   2206084   2205588   2204854   2203770  
  8230.000000   2202264   2200335   2198096   2195738   2193509  
  8220.000000   2191629   2190250   2189401   2189000   2188849  
  8210.000000   2188705   2188320   2187527   2186276   2184646  
  8200.000000   2182828   2181066   2179599   2178576   2178020  
  8190.000000   2177800   2177681   2177387   2176705   2175549  
  8180.000000   2173995   2172250   2170577   2169209   2168272  
  8170.000000   2167753   2167517   2167369   2167128   2166695  
  8160.000000   2166063   2165311   2164539   2163839   2163244  
  8150.000000   2162743   2162294   2161850   2161382   2160868  
  8140.000000   2160282   2159571   2158660   2157469   2155952  
  8130.000000   2154134   2152126   2150105   2148271   2146791  
  8120.000000   2145737   2145088   2144724   2144506   2144307  
  8110.000000   2144077   2143827   2143615   2143483   2143417  
  8100.000000   2143329   2143058   2142446   2141360   2139782  
  8090.000000   2137786   2135545   2133258   2131097   2129172  
  8080.000000   2127512   2126104   2124918   2123956   2123243  
  8070.000000   2122823   2122704   2122842   2123107   2123319  
  8060.000000   2123291   2122892   2122099   2120999   2119774  
  8050.000000   2118616   2117673   2116979   2116459   2115948  
  8040.000000   2115275   2114315   2113051   2111575   2110057  
  8030.000000   2108695   2107641   2106975   2106682   2106681  
  8020.000000   2106862   2107121   2107388   2107621   2107797  
  8010.000000   2107897   2107887   2107730   2107396   2106886  
  8000.000000   2106243   2105540   2104864   2104275   2103780  
  7990.000000   2103316   2102770   2102011   2100944   2099556  
  7980.000000   2097929   2096235   2094680   2093454   2092664  
  7970.000000   2092322   2092345   2092596   2092944   2093289  
  7960.000000   2093589   2093834   2094018   2094110   2094053  
  7950.000000   2093785   2093283   2092596   2091867   2091288  
  7940.000000   2091052   2091269   2091911   2092813   2093699  
  7930.000000   2094283   2094344   2093801   2092731   2091332  
  7920.000000   2089862   2088550   2087551   2086910   2086579  
  7910.000000   2086457   2086424   2086389   2086302   2086172  
  7900.000000   2086045   2086002   2086122   2086461   2087019  
  7890.000000   2087727   2088452   2089019   2089274   2089122  
  7880.000000   2088581   2087775   2086904   2086180   2085749  
  7870.000000   2085649   2085788   2085999   2086096   2085958  
  7860.000000   2085557   2084979   2084352   2083809   2083413  
  7850.000000   2083148   2082928   2082643   2082215   2081610  
  7840.000000   2080859   2080012   2079117   2078193   2077232  
  7830.000000   2076227   2075201   2074229   2073427   2072929  
  7820.000000   2072828   2073157   2073849   2074775   2075768  
  7810.000000   2076667   2077359   2077771   2077883   2077680  
  7800.000000   2077158   2076298   2075108   2073626   2071953  
  7790.000000   2070254   2068721   2067547   2066857   2066698  
  7780.000000   2066999   2067623   2068378   2069086   2069603  
  7770.000000   2069841   2069767   2069379   2068698   2067750  
  7760.000000   2066576   2065231   2063798   2062377   2061074  
  7750.000000   2059976   2059122   2058497   2058026   2057602  
  7740.000000   2057113   2056471   2055641   2054630   2053494  
  7730.000000   2052306   2051146   2050083   2049171   2048449  
  7720.000000   2047943   2047661   2047598   2047720   2047976  
  7710.000000   2048289   2048579   2048762   2048774   2048573  
  7700.000000   2048150   2047526   2046756   2045918   2045109  
  7690.000000   2044424   2043938   2043693   2043680   2043846  
  7680.000000   2044103   2044362   2044550   2044635   2044620  
  7670.000000   2044524   2044366   2044140   2043817   2043362  
  7660.000000   2042760   2042042   2041290   2040621   2040143  
  7650.000000   2039918   2039925   2040067   2040191   2040139  
  7640.000000   2039807   2039160   2038256   2037210   2036163  
  7630.000000   2035241   2034527   2034059   2033835   2033842  
  7620.000000   2034054   2034447   2034993   2035640   2036322  
  7610.000000   2036940   2037388   2037554   2037363   2036779  
  7600.000000   2035840   2034651   2033389   2032270   2031516  
  7590.000000   2031299   2031689   2032622   2033896   2035218  
  7580.000000   2036274   2036818   2036739   2036088   2035057  
  7570.000000   2033920   2032952   2032350   2032193   2032442  
  7560.000000   2032980   2033668   2034385   2035056   2035638  
  7550.000000   2036109   2036437   2036584   2036510   2036196  
  7540.000000   2035674   2035019   2034361   2033829   2033536  
  7530.000000   2033526   2033777   2034198   2034671   2035079  
  7520.000000   2035351   2035475   2035511   2035563   2035762  
  7510.000000   2036215   2036991   2038087   2039451   2040970  
  7500.000000   2042514   2043950   2045180   2046154   2046876  
  7490.000000   2047397   2047803   2048190   2048651   2049245  
  7480.000000   2049998   2050889   2051867   2052858   2053796  
  7470.000000   2054628   2055339   2055944   2056488   2057024  
  7460.000000   2057597   2058231   2058937   2059712   2060561  
  7450.000000   2061495   2062541   2063719   2065028   2066423  
  7440.000000   2067824   2069119   2070218   2071058   2071651  
  7430.000000   2072064   2072426   2072873   2073525   2074456  
  7420.000000   2075686   2077200   2078952   2080893   2082967  
  7410.000000   2085112   2087260   2089320   2091200   2092814  
  7400.000000   2094118   2095112   2095860   2096463   2097051  
  7390.000000   2097740   2098612   2099704   2100996   2102438  
  7380.000000   2103948   2105448   2106873   2108197   2109426  
  7370.000000   2110604   2111792   2113051   2114418   2115891  
  7360.000000   2117429   2118962   2120422   2121755   2122954  
  7350.000000   2124041   2125063   2126063   2127055   2128029  
  7340.000000   2128955   2129817   2130631   2131455   2132374  
  7330.000000   2133469   2134779   2136282   2137890   2139482  
  7320.000000   2140942   2142202   2143258   2144166   2145017  
  7310.000000   2145897   2146860   2147914   2149026   2150146  
  7300.000000   2151230   2152258   2153227   2154158   2155073  
  7290.000000   2155994   2156928   2157882   2158849   2159814  
  7280.000000   2160749   2161612   2162349   2162913   2163286  
  7270.000000   2163490   2163595   2163708   2163945   2164395  
  7260.000000   2165091   2166001   2167038   2168084   2169035  
  7250.000000   2169817   2170417   2170859   2171214   2171557  
  7240.000000   2171968   2172513   2173256   2174248   2175542  
  7230.000000   2177156   2179084   2181253   2183556   2185840  
  7220.000000   2187968   2189833   2191417   2192778   2194061  
  7210.000000   2195432   2197058   2199030   2201365   2203983  
  7200.000000   2206760   2209555   2212277   2214882   2217398  
  7190.000000   2219874   2222374   2224922   2227517   2230112  
  7180.000000   2232669   2235151   2237581   2240003   2242503  
  7170.000000   2245155   2248031   2251153   2254527   2258117  
  7160.000000   2261894   2265809   2269832   2273924   2278065  
  7150.000000   2282227   2286415   2290634   2294928   2299328  
  7140.000000   2303872   2308544   2313306   2318064   2322740  
  7130.000000   2327258   2331617   2335855   2340080   2344401  
  7120.000000   2348922   2353688   2358698   2363900   2369236  
  7110.000000   2374658   2380153   2385728   2391403   2397171  
  7100.000000   2403007   2408839   2414602   2420230   2425709  
  7090.000000   2431053   2436326   2441592   2446915   2452324  
  7080.000000   2457820   2463383   2468983   2474603   2480246  
  7070.000000   2485931   2491689   2497538   2503474   2509458  
  7060.000000   2515424   2521289   2526984   2532466   2537750  
  7050.000000   2542898   2548011   2553191   2558506   2563966  
  7040.000000   2569514   2575053   2580477   2585720   2590778  
  7030.000000   2595718   2600653   2605705   2610956   2616432  
  7020.000000   2622079   2627800   2633476   2639011   2644344  
  7010.000000   2649465   2654396   2659180   2663858   2668469  
  7000.000000   2673032   2677566   2682070   2686552   2691003  
  6990.000000   2695427   2699811   2704157   2708451   2712689  
  6980.000000   2716841   2720879   2724751   2728416   2731837  
  6970.000000   2735016   2737977   2740786   2743507   2746216  
  6960.000000   2748950   2751735   2754560   2757420   2760295  
  6950.000000   2763182   2766063   2768926   2771731   2774442  
  6940.000000   2777014   2779433   2781703   2783866   2785965  
  6930.000000   2788047   2790118   2792168   2794150   2796026  
  6920.000000   2797762   2799366   2800855   2802271   2803633  
  6910.000000   2804956   2806223   2807420   2808525   2809541  
  6900.000000   2810476   2811356   2812199   2813026   2813846  
  6890.000000   2814670   2815513   2816392   2817317   2818285  
  6880.000000   2819271   2820238   2821142   2821958   2822687  
  6870.000000   2823372   2824071   2824855   2825768   2826828  
  6860.000000   2828009   2829268   2830542   2831775   2832918  
  6850.000000   2833934   2834792   2835476   2835980   2836318  
  6840.000000   2836522   2836644   2836737   2836854   2837027  
  6830.000000   2837275   2837597   2837989   2838439   2838937  
  6820.000000   2839458   2839967   2840416   2840756   2840956  
  6810.000000   2841014   2840964   2840865   2840781   2840751  
  6800.000000   2840782   2840844   2840892   2840896   2840853  
  6790.000000   2840803   2840799   2840897   2841114   2841434  
  6780.000000   2841799   2842142   2842409   2842573   2842639  
  6770.000000   2842626   2842550   2842413   2842200   2841894  
  6760.000000   2841491   2841019   2840525   2840076   2839729  
  6750.000000   2839519   2839444   2839475   2839559   2839639  
  6740.000000   2839661   2839585   2839387   2839063   2838632  
  6730.000000   2838137   2837633   2837188   2836849   2836643  
  6720.000000   2836553   2836535   2836520   2836445   2836261  
  6710.000000   2835947   2835495   2834914   2834210   2833390  
  6700.000000   2832467   2831474   2830459   2829490   2828623  
  6690.000000   2827898   2827306   2826810   2826338   2825829  
  6680.000000   2825236   2824551   2823791   2822987   2822160  
  6670.000000   2821312   2820428   2819481   2818452   2817335  
  6660.000000   2816137   2814873   2813555   2812192   2810791  
  6650.000000   2809377   2807984   2806670   2805483   2804458  
  6640.000000   2803580   2802801   2802033   2801187   2800189  
  6630.000000   2799008   2797651   2796158   2794579   2792962  
  6620.000000   2791336   2789724   2788132   2786569   2785032  
  6610.000000   2783518   2782004   2780466   2778870   2777201  
  6600.000000   2775458   2773669   2771873   2770110   2768402  
  6590.000000   2766752   2765139   2763538   2761926   2760297  
  6580.000000   2758658   2757023   2755405   2753811   2752243  
  6570.000000   2750701   2749193   2747730   2746325   2744980  
  6560.000000   2743681   2742402   2741112   2739790   2738438  
  6550.000000   2737086   2735775   2734545   2733414   2732368  
  6540.000000   2731361   2730332   2729224   2728000   2726654  
  6530.000000   2725205   2723693   2722160   2720650   2719195  
  6520.000000   2717816   2716523   2715311   2714162   2713046  
  6510.000000   2711933   2710795   2709622   2708422   2707218  
  6500.000000   2706041   2704908   2703826   2702778   2701739  
  6490.000000   2700687   2699613   2698527   2697455   2696427  
  6480.000000   2695466   2694581   2693761   2692984   2692221  
  6470.000000   2691436   2690599   2689677   2688649   2687505  
  6460.000000   2686257   2684941   2683612   2682334   2681162  
  6450.000000   2680131   2679239   2678461   2677753   2677071  
  6440.000000   2676380   2675658   2674895   2674079   2673200  
  6430.000000   2672246   2671220   2670135   2669034   2667964  
  6420.000000   2666979   2666108   2665362   2664719   2664153  
  6410.000000   2663638   2663165   2662738   2662372   2662067  
  6400.000000   2661816   2661590   2661362   2661110   2660839  
  6390.000000   2660568   2660329   2660141   2660001   2659879  
  6380.000000   2659731   2659509   2659187   2658765   2658265  
  6370.000000   2657727   2657184   2656667   2656188   2655758  
  6360.000000   2655383   2655071   2654825   2654638   2654484  
  6350.000000   2654325   2654115   2653817   2653407   2652889  
  6340.000000   2652278   2651610   2650916   2650233   2649586  
  6330.000000   2649002   2648488   2648045   2647644   2647239  
  6320.000000   2646760   2646145   2645351   2644379   2643265  
  6310.000000   2642085   2640905   2639781   2638714   2637680  
  6300.000000   2636624   2635509   2634316   2633070   2631803  
  6290.000000   2630555   2629334   2628128   2626893   2625592  
  6280.000000   2624196   2622709   2621154   2619568   2617974  
  6270.000000   2616388   2614803   2613213   2611613   2610012  
  6260.000000   2608420   2606847   2605282   2603701   2602064  
  6250.000000   2600343   2598528   2596639   2594716   2592812  
  6240.000000   2590965   2589195   2587496   2585853   2584239  
  6230.000000   2582639   2581039   2579428   2577791   2576113  
  6220.000000   2574374   2572566   2570695   2568779   2566852  
  6210.000000   2564943   2563075   2561257   2559487   2557764  
  6200.000000   2556089   2554471   2552914   2551418   2549963  
  6190.000000   2548517   2547042   2545506   2543899   2542227  
  6180.000000   2540518   2538802   2537112   2535467   2533886  
  6170.000000   2532380   2530958   2529626   2528375   2527179  
  6160.000000   2525996   2524778   2523489   2522117   2520686  
  6150.000000   2519244   2517848   2516537   2515318   2514162  
  6140.000000   2513023   2511855   2510636   2509374   2508103  
  6130.000000   2506862   2505679   2504559   2503490   2502449  
  6120.000000   2501432   2500444   2499514   2498672   2497936  
  6110.000000   2497300   2496743   2496224   2495712   2495183  
  6100.000000   2494637   2494078   2493520   2492960   2492399  
  6090.000000   2491823   2491234   2490637   2490057   2489521  
  6080.000000   2489061   2488699   2488452   2488324   2488322  
  6070.000000   2488436   2488660   2488964   2489320   2489679  
  6060.000000   2490010   2490285   2490512   2490711   2490934  
  6050.000000   2491221   2491618   2492143   2492809   2493606  
  6040.000000   2494535   2495582   2496739   2497980   2499277  
  6030.000000   2500583   2501868   2503103   2504299   2505480  
  6020.000000   2506697   2507986   2509378   2510863   2512421  
  6010.000000   2514009   2515597   2517164   2518711   2520243  
  6000.000000   2521774   2523304   2524836   2526365   2527902  
  5990.000000   2529461   2531076   2532768   2534560   2536445  
  5980.000000   2538415   2540440   2542507   2544606   2546748  
  5970.000000   2548943   2551210   2553548   2555957   2558419  
  5960.000000   2560931   2563483   2566080   2568720   2571405  
  5950.000000   2574119   2576854   2579594   2582347   2585124  
  5940.000000   2587954   2590863   2593868   2596967   2600142  
  5930.000000   2603364   2606605   2609848   2613078   2616286  
  5920.000000   2619455   2622555   2625549   2628396   2631071  
  5910.000000   2633568   2635904   2638109   2640223   2642282  
  5900.000000   2644314   2646349   2648410   2650532   2652736  
  5890.000000   2655043   2657444   2659916   2662409   2664880  
  5880.000000   2667290   2669626   2671896   2674118   2676307  
  5870.000000   2678461   2680560   2682568   2684457   2686213  
  5860.000000   2687850   2689403   2690923   2692460   2694057  
  5850.000000   2695743   2697541   2699462   2701513   2703685  
  5840.000000   2705957   2708286   2710623   2712919   2715142  
  5830.000000   2717288   2719385   2721477   2723616   2725835  
  5820.000000   2728144   2730525   2732938   2735340   2737689  
  5810.000000   2739962   2742139   2744225   2746217   2748141  
  5800.000000   2750005   2751850   2753693   2755568   2757464  
  5790.000000   2759372   2761224   2762959   2764471   2765685  
  5780.000000   2766505   2766883   2766768   2766160   2765073  
  5770.000000   2763567   2761720   2759644   2757443   2755229  
  5760.000000   2753070   2751024   2749107   2747334   2745706  
  5750.000000   2744241   2742949   2741848   2740935   2740190  
  5740.000000   2739573   2739032   2738525   2738011   2737482  
  5730.000000   2736932   2736381   2735835   2735316   2734826  
  5720.000000   2734377   2733966   2733600   2733269   2732964  
  5710.000000   2732668   2732372   2732076   2731797   2731566  
  5700.000000   2731417   2731376   2731446   2731605   2731810  
  5690.000000   2732012   2732166   2732252   2732264   2732223  
  5680.000000   2732142   2732042   2731918   2731764   2731551  
  5670.000000   2731252   2730824   2730234   2729437   2728410  
  5660.000000   2727136   2725641   2723967   2722195   2720403  
  5650.000000   2718665   2717019   2715473   2714002   2712577  
  5640.000000   2711167   2709767   2708387   2707053   2705788  
  5630.000000   2704602   2703496   2702455   2701470   2700529  
  5620.000000   2699632   2698772   2697943   2697124   2696296  
  5610.000000   2695440   2694553   2693647   2692748   2691882  
  5600.000000   2691066   2690298   2689563   2688836   2688098  
  5590.000000   2687343   2686580   2685823   2685085   2684368  
  5580.000000   2683662   2682956   2682237   2681507   2680772  
  5570.000000   2680043   2679320   2678590   2677827   2677001  
  5560.000000   2676087   2675083   2674003   2672882   2671758  
  5550.000000   2670666   2669627   2668649   2667729   2666860  
  5540.000000   2666029   2665227   2664440   2663652   2662852  
  5530.000000   2662032   2661192   2660341   2659491   2658652  
  5520.000000   2657826   2657008   2656186   2655350   2654493  
  5510.000000   2653616   2652720   2651805   2650859   2649870  
  5500.000000   2648818   2647699   2646521   2645313   2644103  
  5490.000000   2642920   2641765   2640628   2639476   2638283  
  5480.000000   2637030   2635724   2634381   2633025   2631667  
  5470.000000   2630306   2628919   2627482   2625970   2624379  
  5460.000000   2622710   2620976   2619186   2617347   2615458  
  5450.000000   2613525   2611561   2609589   2607636   2605726  
  5440.000000   2603872   2602074   2600334   2598652   2597047  
  5430.000000   2595537   2594142   2592852   2591643   2590463  
  5420.000000   2589270   2588032   2586770   2585523   2584368  
  5410.000000   2583358   2582523   2581839   2581269   2580754  
  5400.000000   2580277   2579835   2579473   2579223   2579127  
  5390.000000   2579175   2579354   2579619   2579963   2580377  
  5380.000000   2580906   2581572   2582416   2583420   2584572  
  5370.000000   2585811   2587121   2588468   2589888   2591392  
  5360.000000   2593045   2594858   2596884   2599119   2601620  
  5350.000000   2604390   2607507   2610977   2614864   2619134  
  5340.000000   2623813   2628838   2634238   2639966   2646075  
  5330.000000   2652523   2659359   2666520   2674043   2681875  
  5320.000000   2690098   2698713   2707863   2717570   2727969  
  5310.000000   2739029   2750815   2763234   2776321   2789994  
  5300.000000   2804330   2819305   2835050   2851575   2869013  
  5290.000000   2887339   2906613   2926719   2947614   2969117  
  5280.000000   2991167   3013644   3036598   3060047   3084142  
  5270.000000   3108939   3134502   3160729   3187464   3214462  
  5260.000000   3241511   3268464   3295284   3322022   3348740  
  5250.000000   3375479   3402154   3428629   3454648   3480040  
  5240.000000   3504614   3528385   3551348   3573672   3595407  
  5230.000000   3616686   3637444   3657676   3677196   3695953  
  5220.000000   3713794   3730771   3746858   3762227   3776917  
  5210.000000   3791100   3804744   3817904   3830428   3842291  
  5200.000000   3853336   3863605   3873044   3881791   3889845  
  5190.000000   3897332   3904202   3910514   3916177   3921242  
  5180.000000   3925653   3929507   3932778   3935558   3937796  
  5170.000000   3939538   3940712   3941369   3941474   3941122  
  5160.000000   3940313   3939144   3937591   3935710   3933456  
  5150.000000   3930874   3927942   3924727   3921220   3917474  
  5140.000000   3913455   3909177   3904597   3899742   3894609  
  5130.000000   3889270   3883758   3878148   3872452   3866705  
  5120.000000   3860890   3855019   3849082   3843103   3837085  
  5110.000000   3831048   3824981   3818887   3812749   3806573  
  5100.000000   3800370   3794172   3788007   3781904   3775867  
  5090.000000   3769894   3763963   3758060   3752171   3746297  
  5080.000000   3740436   3734589   3728742   3722878   3716967  
  5070.000000   3710995   3704952   3698850   3692702   3686532  
  5060.000000   3680346   3674150   3667930   3661677   3655373  
  5050.000000   3649016   3642600   3636130   3629602   3623019  
  5040.000000   3616382   3609699   3602986   3596269   3589576  
  5030.000000   3582936   3576368   3569881   3563476   3557143  
  5020.000000   3550882   3544685   3538564   3532519   3526570  
  5010.000000   3520717   3514979   3509350   3503849   3498467  
  5000.000000   3493223   3488103   3483127   3478282   3473599  
  4990.000000   3469074   3464755   3460650   3456814   3453244  
  4980.000000   3449979   3446993   3444306   3441881   3439741  
  4970.000000   3437858   3436269   3434952   3433944   3433217  
  4960.000000   3432805   3432677   3432876   3433381   3434245  
  4950.000000   3435447   3437029   3438945   3441216   3443781  
  4940.000000   3446663   3449823   3453307   3457099   3461256  
  4930.000000   3465753   3470626   3475829   3481381   3487238  
  4920.000000   3493425   3499914   3506736   3513865   3521320  
  4910.000000   3529062   3537094   3545373   3553895   3562623  
  4900.000000   3571548   3580634   3589859   3599185   3608582  
  4890.000000   3618019   3627461   3636880   3646231   3655477  
  4880.000000   3664555   3673429   3682033   3690346   3698312  
  4870.000000   3705928   3713144   3719963   3726341   3732293  
  4860.000000   3737795   3742889   3747573   3751904   3755881  
  4850.000000   3759555   3762913   3765998   3768800   3771371  
  4840.000000   3773717   3775898   3777927   3779852   3781678  
  4830.000000   3783436   3785125   3786771   3788374   3789954  
  4820.000000   3791509   3793049   3794567   3796067   3797549  
  4810.000000   3799021   3800489   3801962   3803443   3804930  
  4800.000000   3806423   3807920   3809430   3810965   3812543  
  4790.000000   3814178   3815875   3817628   3819419   3821229  
  4780.000000   3823041   3824850   3826655   3828462   3830268  
  4770.000000   3832069   3833841   3835565   3837213   3838779  
  4760.000000   3840255   3841651   3842969   3844218   3845383  
  4750.000000   3846460   3847427   3848282   3849019   3849655  
  4740.000000   3850198   3850666   3851059   3851380   3851615  
  4730.000000   3851761   3851809   3851765   3851635   3851435  
  4720.000000   3851177   3850875   3850542   3850189   3849833  
  4710.000000   3849487   3849169   3848895   3848679   3848531  
  4700.000000   3848466   3848493   3848627   3848879   3849261  
  4690.000000   3849774   3850419   3851179   3852043   3852982  
  4680.000000   3853980   3855001   3856023   3857004   3857919  
  4670.000000   3858731   3859433   3860020   3860528   3860998  
  4660.000000   3861501   3862097   3862856   3863818   3865017  
  4650.000000   3866454   3868126   3870004   3872062   3874259  
  4640.000000   3876561   3878930   3881336   3883757   3886175  
  4630.000000   3888581   3890964   3893314   3895615   3897846  
  4620.000000   3899978   3901986   3903836   3905503   3906959  
  4610.000000   3908192   3909189   3909968   3910545   3910976  
  4600.000000   3911304   3911602   3911908   3912266   3912670  
  4590.000000   3913116   3913558   3913965   3914285   3914499  
  4580.000000   3914578   3914523   3914324   3913988   3913505  
  4570.000000   3912882   3912111   3911206   3910169   3909028  
  4560.000000   3907795   3906505   3905170   3903818   3902448  
  4550.000000   3901071   3899665   3898219   3896700   3895090  
  4540.000000   3893368   3891534   3889599   3887588   3885533  
  4530.000000   3883461   3881397   3879348   3877329   3875332  
  4520.000000   3873380   3871471   3869646   3867906   3866297  
  4510.000000   3864810   3863494   3862342   3861429   3860771  
  4500.000000   3860478   3860587   3861218   3862391   3864208  
  4490.000000   3866655   3869813   3873650   3878237   3883529  
  4480.000000   3889585   3896339   3903831   3911981   3920823  
  4470.000000   3930287   3940414   3951147   3962521   3974467  
  4460.000000   3986983   3999967   4013376   4027089   4041043  
  4450.000000   4055126   4069289   4083456   4097607   4111714  
  4440.000000   4125779   4139803   4153785   4167731   4181607  
  4430.000000   4195406   4209063   4222567   4235839   4248879  
  4420.000000   4261606   4274024   4286040   4297643   4308715  
  4410.000000   4319219   4329017   4338065   4346242   4353539  
  4400.000000   4359899   4365389   4370032   4373965   4377270  
  4390.000000   4380112   4382581   4384825   4386909   4388939  
  4380.000000   4390948   4393004   4395123   4397355   4399723  
  4370.000000   4402273   4405044   4408077   4411411   4415067  
  4360.000000   4419063   4423394   4428043   4432985   4438162  
  4350.000000   4443534   4449014   4454567   4460116   4465666  
  4340.000000   4471180   4476684   4482111   4487380   4492253  
  4330.000000   4496431   4499497   4501061   4500797   4498586  
  4320.000000   4494534   4489017   4482569   4475837   4469388  
  4310.000000   4463688   4458968   4455304   4452594   4450691  
  4300.000000   4449410   4448619   4448220   4448152   4448381  
  4290.000000   4448855   4449547   4450401   4451408   4452541  
  4280.000000   4453818   4455237   4456803   4458509   4460325  
  4270.000000   4462235   4464191   4466152   4468019   4469667  
  4260.000000   4470891   4471472   4471161   4469787   4467255  
  4250.000000   4463628   4459079   4453912   4448443   4443005  
  4240.000000   4437827   4433076   4428778   4424914   4421387  
  4230.000000   4418110   4414980   4411928   4408897   4405845  
  4220.000000   4402758   4399620   4396464   4393314   4390253  
  4210.000000   4387340   4384675   4382305   4380295   4378644  
  4200.000000   4377357   4376383   4375692   4375209   4374903  
  4190.000000   4374710   4374623   4374603   4374682   4374845  
  4180.000000   4375148   4375587   4376224   4377053   4378138  
  4170.000000   4379482   4381163   4383201   4385682   4388616  
  4160.000000   4392064   4395994   4400424   4405282   4410571  
  4150.000000   4416219   4422252   4428625   4435396   4442540  
  4140.000000   4450128   4458137   4466630   4475571   4485004  
  4130.000000   4494873   4505199   4515916   4527044   4538531  
  4120.000000   4550417   4562683   4575391   4588538   4602177  
  4110.000000   4616288   4630893   4645941   4661418   4677247  
  4100.000000   4693391   4709765   4726323   4742998   4759762  
  4090.000000   4776584   4793461   4810393   4827383   4844443  
  4080.000000   4861567   4878762   4895998   4913267   4930499  
  4070.000000   4947656   4964628   4981359   4997735   5013733  
  4060.000000   5029276   5044391   5059021   5073203   5086864  
  4050.000000   5100033   5112631   5124713   5136228   5147266  
  4040.000000   5157777   5167834   5177341   5186330   5194674  
  4030.000000   5202398   5209380   5215651   5221101   5225750  
  4020.000000   5229474   5232324   5234283   5235460   5235842  
  4010.000000   5235597   5234819   5233537   5231528   5228852  
  4000.000000   5225836  
##END= 
