##TITLE= Sample 012 By ssteindl date Montag, November 26 2018
##JCAMP-DX= 4.24
##DATA TYPE= INFRARED SPECTRUM
##ORIGIN= Exported PE Spectrum Data File
##OWNER= Sandra Steindl
##DATE= 18/11/26
##TIME= 12:14:36.00
##SPECTROMETER/DATA SYSTEM= PERKIN-ELMER Frontier FT-IR/NIR IR
##INSTRUMENT PARAMETERS=
  APODIZATION=stark
  DETECTOR=INGAAS
##RESOLUTION= 16.000000
##DELTAX= -2.000000
##XUNITS= 1/CM
##YUNITS= A
##XFACTOR= 1.00
##YFACTOR= 0.00000011920928955078
##FIRSTX= 10000.00
##LASTX= 4000.00
##NPOINTS= 3001
##FIRSTY= 0.266749
##MAXY= 0.623501
##MINY= 0.213339
##XYDATA= (X++(Y..Y))
 10000.000000   2237656   2229741   2222476   2216952   2213801  
  9990.000000   2213012   2214256   2217101   2221134   2225964  
  9980.000000   2231324   2236830   2241935   2245848   2247768  
  9970.000000   2247083   2243631   2237854   2230739   2223631  
  9960.000000   2217850   2214368   2213484   2214766   2217111  
  9950.000000   2219044   2219114   2216232   2209985   2200695  
  9940.000000   2189360   2177400   2166315   2157359   2151326  
  9930.000000   2148487   2148708   2151587   2156586   2163067  
  9920.000000   2170233   2177118   2182679   2185948   2186436  
  9910.000000   2184201   2180111   2175412   2171519   2169368  
  9900.000000   2169193   2170451   2172115   2173244   2173373  
  9890.000000   2172843   2172542   2173554   2176537   2181385  
  9880.000000   2187171   2192441   2195784   2196295   2193908  
  9870.000000   2189325   2183714   2178311   2174064   2171533  
  9860.000000   2170885   2172039   2174715   2178443   2182521  
  9850.000000   2186025   2187982   2187634   2184753   2179804  
  9840.000000   2173878   2168374   2164529   2163049   2163894  
  9830.000000   2166459   2169844   2173315   2176484   2179362  
  9820.000000   2182092   2184682   2186810   2187833   2187053  
  9810.000000   2184005   2178774   2172003   2164765   2158200  
  9800.000000   2153190   2150196   2149169   2149779   2151449  
  9790.000000   2153609   2155642   2157026   2157336   2156358  
  9780.000000   2154199   2151239   2148126   2145434   2143548  
  9770.000000   2142355   2141362   2139830   2137153   2133209  
  9760.000000   2128460   2123944   2120823   2120063   2121989  
  9750.000000   2126241   2131877   2137675   2142497   2145464  
  9740.000000   2146124   2144333   2140278   2134343   2127196  
  9730.000000   2119697   2112888   2107748   2104946   2104641  
  9720.000000   2106351   2109200   2112107   2114275   2115364  
  9710.000000   2115616   2115678   2116205   2117596   2119654  
  9700.000000   2121726   2122828   2122119   2119177   2114255  
  9690.000000   2108241   2102435   2098230   2096686   2098317  
  9680.000000   2102844   2109331   2116323   2122269   2125898  
  9670.000000   2126564   2124418   2120310   2115501   2111213  
  9660.000000   2108255   2106778   2106351   2106193   2105561  
  9650.000000   2104058   2101763   2099186   2096953   2095556  
  9640.000000   2095102   2095318   2095718   2095813   2095360  
  9630.000000   2094364   2093056   2091717   2090557   2089713  
  9620.000000   2089228   2089204   2089751   2091016   2093035  
  9610.000000   2095649   2098481   2100966   2102538   2102745  
  9600.000000   2101388   2098507   2094333   2089203   2083521  
  9590.000000   2077771   2072533   2068470   2066187   2066059  
  9580.000000   2067980   2071307   2074929   2077596   2078333  
  9570.000000   2076789   2073386   2069132   2065248   2062679  
  9560.000000   2061804   2062360   2063667   2064985   2065826  
  9550.000000   2066131   2066154   2066246   2066565   2066959  
  9540.000000   2067042   2066362   2064679   2062012   2058664  
  9530.000000   2055017   2051398   2047982   2044855   2042155  
  9520.000000   2040169   2039345   2040086   2042533   2046345  
  9510.000000   2050715   2054573   2056955   2057379   2056015  
  9500.000000   2053646   2051311   2049908   2049829   2050859  
  9490.000000   2052339   2053498   2053821   2053206   2051989  
  9480.000000   2050641   2049593   2048947   2048530   2047972  
  9470.000000   2046919   2045248   2043047   2040613   2038171  
  9460.000000   2035783   2033265   2030324   2026777   2022719  
  9450.000000   2018624   2015212   2013271   2013362   2015673  
  9440.000000   2019883   2025270   2030865   2035702   2039072  
  9430.000000   2040579   2040236   2038283   2035168   2031357  
  9420.000000   2027322   2023429   2019968   2017141   2015093  
  9410.000000   2013941   2013708   2014372   2015742   2017588  
  9400.000000   2019541   2021283   2022519   2023127   2023167  
  9390.000000   2022843   2022442   2022127   2021912   2021541  
  9380.000000   2020630   2018723   2015511   2010939   2005304  
  9370.000000   1999240   1993557   1989086   1986424   1985857  
  9360.000000   1987262   1990210   1994028   1997982   2001381  
  9350.000000   2003734   2004776   2004522   2003191   2001151  
  9340.000000   1998838   1996639   1994871   1993637   1992858  
  9330.000000   1992199   1991208   1989382   1986359   1982007  
  9320.000000   1976514   1970375   1964327   1959183   1955634  
  9310.000000   1954095   1954590   1956811   1960217   1964208  
  9300.000000   1968300   1972194   1975819   1979153   1982172  
  9290.000000   1984685   1986426   1987091   1986515   1984777  
  9280.000000   1982256   1979639   1977690   1977103   1978178  
  9270.000000   1980821   1984499   1988411   1991639   1993340  
  9260.000000   1992941   1990212   1985329   1978771   1971273  
  9250.000000   1963700   1956958   1951862   1948977   1948535  
  9240.000000   1950348   1953917   1958478   1963226   1967433  
  9230.000000   1970625   1972641   1973555   1973614   1973044  
  9220.000000   1972061   1970777   1969294   1967712   1966184  
  9210.000000   1964918   1964086   1963828   1964108   1964788  
  9200.000000   1965580   1966179   1966311   1965784   1964518  
  9190.000000   1962491   1959744   1956356   1952487   1948388  
  9180.000000   1944428   1941059   1938734   1937799   1938343  
  9170.000000   1940160   1942728   1945384   1947477   1948548  
  9160.000000   1948446   1947327   1945615   1943778   1942208  
  9150.000000   1941070   1940346   1939850   1939355   1938681  
  9140.000000   1937769   1936693   1935588   1934615   1933873  
  9130.000000   1933409   1933185   1933123   1933125   1933102  
  9120.000000   1932996   1932758   1932371   1931827   1931156  
  9110.000000   1930393   1929577   1928723   1927825   1926863  
  9100.000000   1925812   1924707   1923655   1922839   1922466  
  9090.000000   1922685   1923529   1924846   1926315   1927506  
  9080.000000   1927982   1927463   1925886   1923480   1920685  
  9070.000000   1918083   1916228   1915496   1915962   1917376  
  9060.000000   1919223   1920821   1921489   1920728   1918365  
  9050.000000   1914607   1909988   1905242   1901147   1898296  
  9040.000000   1896988   1897131   1898348   1900052   1901629  
  9030.000000   1902590   1902693   1901978   1900729   1899385  
  9020.000000   1898447   1898336   1899309   1901370   1904280  
  9010.000000   1907589   1910731   1913176   1914562   1914818  
  9000.000000   1914163   1913043   1911965   1911314   1911224  
  8990.000000   1911509   1911766   1911504   1910356   1908222  
  8980.000000   1905305   1902074   1899078   1896837   1895658  
  8970.000000   1895620   1896563   1898187   1900158   1902147  
  8960.000000   1903898   1905204   1905952   1906088   1905641  
  8950.000000   1904720   1903520   1902288   1901281   1900720  
  8940.000000   1900765   1901480   1902818   1904633   1906675  
  8930.000000   1908621   1910084   1910710   1910269   1908750  
  8920.000000   1906412   1903733   1901322   1899727   1899270  
  8910.000000   1899932   1901347   1902949   1904148   1904572  
  8900.000000   1904147   1903131   1901962   1901112   1900886  
  8890.000000   1901340   1902268   1903296   1904023   1904140  
  8880.000000   1903504   1902150   1900247   1898043   1895785  
  8870.000000   1893686   1891885   1890425   1889250   1888211  
  8860.000000   1887115   1885776   1884105   1882144   1880104  
  8850.000000   1878273   1876967   1876366   1876503   1877184  
  8840.000000   1878102   1878908   1879387   1879517   1879505  
  8830.000000   1879721   1880574   1882397   1885301   1889164  
  8820.000000   1893623   1898181   1902305   1905551   1907648  
  8810.000000   1908518   1908272   1907117   1905299   1903014  
  8800.000000   1900402   1897532   1894463   1891299   1888220  
  8790.000000   1885504   1883424   1882238   1882050   1882829  
  8780.000000   1884368   1886361   1888487   1890460   1892120  
  8770.000000   1893376   1894248   1894761   1894994   1895020  
  8760.000000   1894965   1894986   1895271   1895996   1897263  
  8750.000000   1899083   1901321   1903763   1906123   1908153  
  8740.000000   1909662   1910549   1910787   1910398   1909455  
  8730.000000   1908056   1906342   1904485   1902675   1901104  
  8720.000000   1899891   1899097   1898678   1898572   1898698  
  8710.000000   1899031   1899576   1900353   1901340   1902425  
  8700.000000   1903419   1904078   1904207   1903713   1902678  
  8690.000000   1901331   1899997   1898995   1898557   1898768  
  8680.000000   1899580   1900833   1902328   1903838   1905154  
  8670.000000   1906080   1906476   1906275   1905546   1904492  
  8660.000000   1903467   1902876   1903103   1904358   1906619  
  8650.000000   1909602   1912843   1915843   1918210   1919781  
  8640.000000   1920643   1921086   1921493   1922209   1923437  
  8630.000000   1925185   1927269   1929394   1931238   1932555  
  8620.000000   1933221   1933272   1932860   1932220   1931582  
  8610.000000   1931118   1930889   1930839   1930841   1930748  
  8600.000000   1930478   1930042   1929557   1929197   1929139  
  8590.000000   1929484   1930242   1931320   1932594   1933944  
  8580.000000   1935318   1936742   1938304   1940105   1942200  
  8570.000000   1944585   1947185   1949883   1952536   1955005  
  8560.000000   1957178   1958953   1960254   1961015   1961220  
  8550.000000   1960894   1960106   1958981   1957666   1956337  
  8540.000000   1955131   1954205   1953689   1953722   1954374  
  8530.000000   1955659   1957470   1959574   1961615   1963188  
  8520.000000   1963961   1963744   1962578   1960712   1958581  
  8510.000000   1956661   1955368   1954949   1955457   1956754  
  8500.000000   1958567   1960570   1962459   1964005   1965069  
  8490.000000   1965618   1965724   1965535   1965251   1965070  
  8480.000000   1965173   1965659   1966558   1967806   1969287  
  8470.000000   1970852   1972341   1973623   1974599   1975230  
  8460.000000   1975528   1975581   1975545   1975620   1975987  
  8450.000000   1976775   1978003   1979566   1981243   1982773  
  8440.000000   1983932   1984603   1984798   1984632   1984266  
  8430.000000   1983838   1983411   1982974   1982476   1981905  
  8420.000000   1981310   1980834   1980632   1980849   1981518  
  8410.000000   1982569   1983805   1984992   1985918   1986444  
  8400.000000   1986529   1986187   1985477   1984459   1983204  
  8390.000000   1981791   1980329   1978968   1977867   1977178  
  8380.000000   1976973   1977251   1977915   1978826   1979821  
  8370.000000   1980753   1981504   1981979   1982117   1981870  
  8360.000000   1981245   1980296   1979172   1978072   1977213  
  8350.000000   1976765   1976784   1977219   1977908   1978672  
  8340.000000   1979361   1979918   1980365   1980769   1981172  
  8330.000000   1981527   1981701   1981499   1980769   1979462  
  8320.000000   1977692   1975715   1973867   1972466   1971706  
  8310.000000   1971621   1972068   1972810   1973580   1974163  
  8300.000000   1974435   1974371   1974027   1973499   1972890  
  8290.000000   1972280   1971737   1971298   1970991   1970826  
  8280.000000   1970790   1970863   1971004   1971181   1971358  
  8270.000000   1971519   1971647   1971730   1971734   1971611  
  8260.000000   1971298   1970740   1969917   1968859   1967659  
  8250.000000   1966448   1965363   1964494   1963848   1963347  
  8240.000000   1962845   1962205   1961329   1960238   1959045  
  8230.000000   1957961   1957190   1956882   1957039   1957520  
  8220.000000   1958063   1958362   1958156   1957278   1955704  
  8210.000000   1953522   1950914   1948086   1945242   1942549  
  8200.000000   1940142   1938130   1936580   1935529   1934943  
  8190.000000   1934742   1934790   1934950   1935096   1935149  
  8180.000000   1935076   1934872   1934528   1934009   1933257  
  8170.000000   1932211   1930859   1929262   1927567   1925952  
  8160.000000   1924567   1923463   1922566   1921704   1920670  
  8150.000000   1919311   1917591   1915617   1913592   1911743  
  8140.000000   1910235   1909126   1908373   1907871   1907518  
  8130.000000   1907243   1907023   1906840   1906660   1906394  
  8120.000000   1905928   1905165   1904090   1902801   1901503  
  8110.000000   1900436   1899790   1899631   1899863   1900277  
  8100.000000   1900607   1900639   1900268   1899523   1898528  
  8090.000000   1897432   1896338   1895265   1894154   1892909  
  8080.000000   1891456   1889785   1887959   1886100   1884342  
  8070.000000   1882808   1881556   1880600   1879887   1879339  
  8060.000000   1878851   1878320   1877662   1876826   1875814  
  8050.000000   1874673   1873492   1872355   1871324   1870394  
  8040.000000   1869504   1868556   1867470   1866225   1864896  
  8030.000000   1863640   1862649   1862077   1861974   1862254  
  8020.000000   1862715   1863096   1863166   1862782   1861943  
  8010.000000   1860753   1859396   1858052   1856862   1855895  
  8000.000000   1855165   1854652   1854334   1854206   1854268  
  7990.000000   1854513   1854902   1855366   1855803   1856116  
  7980.000000   1856231   1856119   1855800   1855327   1854769  
  7970.000000   1854186   1853616   1853074   1852554   1852041  
  7960.000000   1851511   1850936   1850283   1849524   1848641  
  7950.000000   1847638   1846546   1845421   1844331   1843336  
  7940.000000   1842480   1841772   1841203   1840755   1840424  
  7930.000000   1840229   1840202   1840378   1840761   1841313  
  7920.000000   1841950   1842559   1843039   1843322   1843407  
  7910.000000   1843346   1843225   1843118   1843063   1843031  
  7900.000000   1842951   1842724   1842282   1841598   1840717  
  7890.000000   1839737   1838784   1837980   1837415   1837142  
  7880.000000   1837172   1837494   1838077   1838882   1839848  
  7870.000000   1840898   1841923   1842803   1843424   1843707  
  7860.000000   1843636   1843260   1842690   1842060   1841490  
  7850.000000   1841047   1840725   1840456   1840130   1839659  
  7840.000000   1838990   1838158   1837250   1836405   1835744  
  7830.000000   1835358   1835253   1835375   1835604   1835808  
  7820.000000   1835862   1835687   1835253   1834580   1833728  
  7810.000000   1832773   1831798   1830867   1830026   1829286  
  7800.000000   1828624   1827987   1827301   1826512   1825597  
  7790.000000   1824601   1823623   1822808   1822290   1822152  
  7780.000000   1822381   1822857   1823382   1823728   1823711  
  7770.000000   1823237   1822340   1821151   1819868   1818676  
  7760.000000   1817701   1816978   1816453   1816027   1815595  
  7750.000000   1815100   1814547   1814008   1813576   1813337  
  7740.000000   1813321   1813487   1813725   1813887   1813833  
  7730.000000   1813469   1812784   1811851   1810807   1809819  
  7720.000000   1809027   1808511   1808267   1808223   1808261  
  7710.000000   1808263   1808142   1807863   1807436   1806903  
  7700.000000   1806307   1805683   1805048   1804407   1803768  
  7690.000000   1803145   1802559   1802023   1801535   1801073  
  7680.000000   1800602   1800091   1799534   1798956   1798401  
  7670.000000   1797915   1797521   1797206   1796929   1796639  
  7660.000000   1796306   1795937   1795575   1795273   1795064  
  7650.000000   1794935   1794830   1794669   1794395   1794004  
  7640.000000   1793564   1793185   1792977   1792997   1793212  
  7630.000000   1793504   1793713   1793695   1793390   1792836  
  7620.000000   1792165   1791542   1791106   1790928   1790992  
  7610.000000   1791216   1791502   1791772   1792003   1792215  
  7600.000000   1792448   1792727   1793040   1793341   1793564  
  7590.000000   1793661   1793624   1793493   1793346   1793259  
  7580.000000   1793281   1793403   1793560   1793650   1793569  
  7570.000000   1793248   1792682   1791934   1791126   1790397  
  7560.000000   1789869   1789613   1789637   1789890   1790293  
  7550.000000   1790760   1791236   1791704   1792182   1792697  
  7540.000000   1793269   1793885   1794519   1795123   1795678  
  7530.000000   1796182   1796678   1797219   1797853   1798596  
  7520.000000   1799426   1800293   1801147   1801955   1802727  
  7510.000000   1803499   1804317   1805199   1806127   1807038  
  7500.000000   1807859   1808531   1809049   1809460   1809861  
  7490.000000   1810345   1810988   1811803   1812754   1813768  
  7480.000000   1814776   1815734   1816649   1817565   1818553  
  7470.000000   1819680   1820995   1822512   1824211   1826044  
  7460.000000   1827947   1829842   1831655   1833320   1834801  
  7450.000000   1836091   1837218   1838229   1839187   1840137  
  7440.000000   1841106   1842094   1843091   1844091   1845108  
  7430.000000   1846183   1847373   1848730   1850281   1852012  
  7420.000000   1853873   1855792   1857700   1859541   1861297  
  7410.000000   1862971   1864587   1866168   1867735   1869301  
  7400.000000   1870872   1872451   1874042   1875644   1877252  
  7390.000000   1878856   1880447   1882024   1883591   1885161  
  7380.000000   1886744   1888336   1889913   1891436   1892867  
  7370.000000   1894190   1895424   1896628   1897886   1899278  
  7360.000000   1900850   1902593   1904439   1906286   1908026  
  7350.000000   1909585   1910947   1912154   1913296   1914475  
  7340.000000   1915768   1917210   1918789   1920455   1922143  
  7330.000000   1923795   1925369   1926852   1928251   1929587  
  7320.000000   1930876   1932129   1933341   1934507   1935616  
  7310.000000   1936675   1937709   1938760   1939873   1941087  
  7300.000000   1942407   1943806   1945221   1946569   1947774  
  7290.000000   1948789   1949605   1950259   1950810   1951332  
  7280.000000   1951884   1952512   1953237   1954070   1955007  
  7270.000000   1956038   1957142   1958281   1959401   1960437  
  7260.000000   1961325   1962023   1962526   1962865   1963122  
  7250.000000   1963394   1963794   1964405   1965283   1966421  
  7240.000000   1967773   1969242   1970724   1972118   1973378  
  7230.000000   1974507   1975591   1976745   1978108   1979767  
  7220.000000   1981759   1984024   1986467   1988951   1991392  
  7210.000000   1993751   1996083   1998478   2001043   2003829  
  7200.000000   2006826   2009944   2013082   2016142   2019110  
  7190.000000   2022022   2024986   2028095   2031411   2034910  
  7180.000000   2038507   2042074   2045503   2048732   2051783  
  7170.000000   2054719   2057655   2060678   2063864   2067225  
  7160.000000   2070755   2074406   2078141   2081913   2085707  
  7150.000000   2089512   2093360   2097298   2101421   2105810  
  7140.000000   2110548   2115639   2121032   2126589   2132159  
  7130.000000   2137580   2142778   2147739   2152562   2157373  
  7120.000000   2162329   2167515   2172971   2178645   2184458  
  7110.000000   2190316   2196169   2202001   2207851   2213769  
  7100.000000   2219813   2226013   2232379   2238879   2245466  
  7090.000000   2252064   2258607   2265022   2271275   2277354  
  7080.000000   2283299   2289174   2295065   2301040   2307141  
  7070.000000   2313364   2319677   2326029   2332386   2338731  
  7060.000000   2345075   2351431   2357810   2364198   2370575  
  7050.000000   2376915   2383217   2389503   2395821   2402216  
  7040.000000   2408716   2415312   2421965   2428625   2435246  
  7030.000000   2441814   2448335   2454825   2461283   2467676  
  7020.000000   2473937   2479990   2485768   2491255   2496478  
  7010.000000   2501519   2506465   2511409   2516402   2521478  
  7000.000000   2526627   2531841   2537080   2542319   2547500  
  6990.000000   2552580   2557496   2562222   2566749   2571116  
  6980.000000   2575374   2579588   2583781   2587945   2592020  
  6970.000000   2595942   2599649   2603135   2606429   2609614  
  6960.000000   2612761   2615937   2619142   2622358   2625521  
  6950.000000   2628587   2631520   2634330   2637035   2639672  
  6940.000000   2642250   2644768   2647192   2649490   2651621  
  6930.000000   2653570   2655338   2656959   2658478   2659967  
  6920.000000   2661487   2663100   2664832   2666679   2668592  
  6910.000000   2670501   2672322   2673992   2675482   2676807  
  6900.000000   2678018   2679185   2680369   2681612   2682920  
  6890.000000   2684284   2685674   2687069   2688452   2689820  
  6880.000000   2691167   2692490   2693777   2695016   2696194  
  6870.000000   2697301   2698331   2699283   2700156   2700959  
  6860.000000   2701703   2702417   2703131   2703884   2704699  
  6850.000000   2705585   2706522   2707476   2708406   2709285  
  6840.000000   2710098   2710854   2711558   2712215   2712811  
  6830.000000   2713327   2713746   2714077   2714348   2714617  
  6820.000000   2714939   2715355   2715865   2716443   2717035  
  6810.000000   2717597   2718100   2718543   2718934   2719289  
  6800.000000   2719599   2719850   2720016   2720092   2720094  
  6790.000000   2720066   2720055   2720097   2720186   2720288  
  6780.000000   2720340   2720293   2720120   2719833   2719471  
  6770.000000   2719077   2718675   2718263   2717820   2717329  
  6760.000000   2716791   2716239   2715724   2715297   2714983  
  6750.000000   2714772   2714623   2714484   2714313   2714097  
  6740.000000   2713844   2713575   2713310   2713057   2712816  
  6730.000000   2712590   2712396   2712263   2712218   2712268  
  6720.000000   2712382   2712492   2712509   2712359   2712006  
  6710.000000   2711473   2710822   2710138   2709485   2708900  
  6700.000000   2708374   2707889   2707420   2706970   2706548  
  6690.000000   2706175   2705839   2705502   2705092   2704537  
  6680.000000   2703780   2702820   2701698   2700495   2699291  
  6670.000000   2698149   2697087   2696093   2695127   2694159  
  6660.000000   2693160   2692128   2691060   2689964   2688835  
  6650.000000   2687674   2686479   2685258   2684015   2682758  
  6640.000000   2681481   2680169   2678801   2677366   2675863  
  6630.000000   2674317   2672756   2671212   2669692   2668190  
  6620.000000   2666680   2665145   2663582   2662018   2660486  
  6610.000000   2659019   2657621   2656262   2654881   2653414  
  6600.000000   2651811   2650064   2648202   2646282   2644364  
  6590.000000   2642492   2640685   2638940   2637248   2635602  
  6580.000000   2634002   2632457   2630966   2629520   2628094  
  6570.000000   2626667   2625222   2623763   2622310   2620891  
  6560.000000   2619525   2618211   2616929   2615639   2614303  
  6550.000000   2612892   2611399   2609832   2608217   2606585  
  6540.000000   2604972   2603415   2601950   2600606   2599399  
  6530.000000   2598323   2597345   2596415   2595477   2594487  
  6520.000000   2593428   2592307   2591154   2590001   2588872  
  6510.000000   2587768   2586684   2585610   2584548   2583513  
  6500.000000   2582526   2581604   2580740   2579909   2579072  
  6490.000000   2578193   2577258   2576280   2575290   2574324  
  6480.000000   2573394   2572485   2571556   2570560   2569468  
  6470.000000   2568282   2567038   2565790   2564589   2563462  
  6460.000000   2562403   2561387   2560379   2559358   2558324  
  6450.000000   2557296   2556305   2555373   2554514   2553723  
  6440.000000   2552986   2552283   2551598   2550913   2550215  
  6430.000000   2549491   2548738   2547957   2547170   2546401  
  6420.000000   2545680   2545022   2544423   2543855   2543284  
  6410.000000   2542676   2542028   2541364   2540736   2540199  
  6400.000000   2539793   2539524   2539365   2539259   2539150  
  6390.000000   2538994   2538778   2538515   2538237   2537976  
  6380.000000   2537755   2537578   2537434   2537300   2537148  
  6370.000000   2536954   2536699   2536374   2535980   2535531  
  6360.000000   2535048   2534559   2534086   2533644   2533230  
  6350.000000   2532827   2532412   2531967   2531478   2530945  
  6340.000000   2530372   2529765   2529120   2528439   2527723  
  6330.000000   2526992   2526276   2525620   2525055   2524597  
  6320.000000   2524215   2523856   2523437   2522890   2522167  
  6310.000000   2521268   2520220   2519076   2517877   2516654  
  6300.000000   2515408   2514138   2512832   2511501   2510161  
  6290.000000   2508837   2507539   2506267   2504994   2503693  
  6280.000000   2502333   2500906   2499419   2497895   2496357  
  6270.000000   2494823   2493297   2491774   2490244   2488701  
  6260.000000   2487139   2485558   2483948   2482298   2480591  
  6250.000000   2478816   2476973   2475082   2473172   2471279  
  6240.000000   2469426   2467623   2465857   2464111   2462359  
  6230.000000   2460593   2458811   2457026   2455248   2453488  
  6220.000000   2451742   2450002   2448256   2446494   2444708  
  6210.000000   2442896   2441059   2439200   2437325   2435449  
  6200.000000   2433589   2431771   2430015   2428334   2426726  
  6190.000000   2425177   2423666   2422175   2420698   2419239  
  6180.000000   2417811   2416422   2415070   2413735   2412390  
  6170.000000   2411003   2409554   2408034   2406460   2404855  
  6160.000000   2403250   2401674   2400153   2398708   2397353  
  6150.000000   2396098   2394942   2393870   2392852   2391845  
  6140.000000   2390806   2389700   2388512   2387245   2385924  
  6130.000000   2384572   2383216   2381865   2380528   2379205  
  6120.000000   2377906   2376646   2375446   2374323   2373286  
  6110.000000   2372326   2371428   2370570   2369741   2368939  
  6100.000000   2368180   2367479   2366853   2366298   2365806  
  6090.000000   2365350   2364913   2364473   2364033   2363595  
  6080.000000   2363181   2362804   2362485   2362231   2362055  
  6070.000000   2361955   2361940   2362001   2362137   2362332  
  6060.000000   2362584   2362877   2363215   2363594   2364024  
  6050.000000   2364500   2365033   2365613   2366249   2366942  
  6040.000000   2367709   2368558   2369509   2370561   2371714  
  6030.000000   2372946   2374244   2375585   2376966   2378383  
  6020.000000   2379851   2381370   2382947   2384573   2386241  
  6010.000000   2387936   2389654   2391389   2393143   2394907  
  6000.000000   2396678   2398436   2400176   2401886   2403580  
  5990.000000   2405270   2406988   2408751   2410580   2412477  
  5980.000000   2414445   2416480   2418592   2420790   2423095  
  5970.000000   2425513   2428046   2430670   2433363   2436087  
  5960.000000   2438824   2441554   2444283   2447011   2449749  
  5950.000000   2452492   2455244   2457998   2460764   2463556  
  5940.000000   2466401   2469322   2472335   2475442   2478627  
  5930.000000   2481863   2485118   2488363   2491575   2494735  
  5920.000000   2497824   2500824   2503715   2506481   2509113  
  5910.000000   2511613   2513994   2516274   2518475   2520618  
  5900.000000   2522722   2524817   2526929   2529100   2531364  
  5890.000000   2533756   2536280   2538926   2541650   2544399  
  5880.000000   2547107   2549721   2552200   2554528   2556708  
  5870.000000   2558761   2560720   2562621   2564503   2566396  
  5860.000000   2568322   2570288   2572289   2574316   2576359  
  5850.000000   2578421   2580513   2582658   2584883   2587205  
  5840.000000   2589630   2592144   2594728   2597350   2599988  
  5830.000000   2602620   2605231   2607806   2610332   2612795  
  5820.000000   2615189   2617520   2619807   2622081   2624371  
  5810.000000   2626697   2629054   2631430   2633787   2636110  
  5800.000000   2638375   2640605   2642800   2644991   2647157  
  5790.000000   2649290   2651318   2653190   2654811   2656120  
  5780.000000   2657028   2657481   2657410   2656791   2655610  
  5770.000000   2653925   2651823   2649458   2646979   2644545  
  5760.000000   2642251   2640160   2638262   2636536   2634936  
  5750.000000   2633447   2632057   2630782   2629631   2628603  
  5740.000000   2627683   2626843   2626061   2625313   2624603  
  5730.000000   2623923   2623285   2622672   2622082   2621492  
  5720.000000   2620901   2620311   2619749   2619236   2618806  
  5710.000000   2618468   2618232   2618085   2618018   2618019  
  5700.000000   2618079   2618191   2618344   2618527   2618723  
  5690.000000   2618926   2619132   2619355   2619599   2619872  
  5680.000000   2620155   2620420   2620614   2620689   2620595  
  5670.000000   2620308   2619805   2619091   2618160   2617025  
  5660.000000   2615694   2614197   2612574   2610889   2609199  
  5650.000000   2607562   2605999   2604512   2603072   2601653  
  5640.000000   2600229   2598802   2597390   2596026   2594738  
  5630.000000   2593541   2592437   2591411   2590450   2589540  
  5620.000000   2588674   2587847   2587054   2586283   2585522  
  5610.000000   2584761   2584002   2583256   2582540   2581866  
  5600.000000   2581235   2580632   2580033   2579412   2578752  
  5590.000000   2578053   2577327   2576589   2575847   2575098  
  5580.000000   2574327   2573521   2572674   2571798   2570911  
  5570.000000   2570041   2569201   2568394   2567603   2566809  
  5560.000000   2565988   2565131   2564236   2563306   2562343  
  5550.000000   2561348   2560315   2559248   2558157   2557069  
  5540.000000   2556011   2555010   2554075   2553195   2552343  
  5530.000000   2551490   2550611   2549705   2548781   2547859  
  5520.000000   2546954   2546071   2545196   2544314   2543405  
  5510.000000   2542460   2541475   2540457   2539406   2538327  
  5500.000000   2537217   2536082   2534928   2533776   2532639  
  5490.000000   2531528   2530433   2529331   2528186   2526973  
  5480.000000   2525676   2524306   2522881   2521429   2519967  
  5470.000000   2518499   2517016   2515511   2513977   2512422  
  5460.000000   2510855   2509283   2507696   2506075   2504390  
  5450.000000   2502625   2500780   2498881   2496969   2495091  
  5440.000000   2493276   2491534   2489859   2488237   2486663  
  5430.000000   2485134   2483653   2482204   2480764   2479288  
  5420.000000   2477748   2476129   2474472   2472847   2471362  
  5410.000000   2470094   2469092   2468330   2467754   2467282  
  5400.000000   2466869   2466489   2466175   2465956   2465881  
  5390.000000   2465947   2466152   2466454   2466845   2467315  
  5380.000000   2467912   2468663   2469619   2470768   2472104  
  5370.000000   2473560   2475110   2476701   2478353   2480059  
  5360.000000   2481879   2483819   2485942   2488253   2490826  
  5350.000000   2493683   2496921   2500562   2504683   2509251  
  5340.000000   2514286   2519707   2525525   2531671   2538189  
  5330.000000   2545035   2552271   2559851   2567831   2576166  
  5320.000000   2584938   2594135   2603882   2614187   2625182  
  5310.000000   2636843   2649261   2662365   2676212   2690722  
  5300.000000   2705964   2721885   2738588   2756053   2774400  
  5290.000000   2793604   2813739   2834713   2856503   2878943  
  5280.000000   2901977   2925482   2949496   2974023   2999196  
  5270.000000   3025051   3051630   3078813   3106434   3134246  
  5260.000000   3162046   3189709   3217221   3244654   3272077  
  5250.000000   3299536   3326933   3354128   3380855   3406947  
  5240.000000   3432219   3456695   3480375   3503425   3525884  
  5230.000000   3547871   3569309   3590190   3610333   3629702  
  5220.000000   3648152   3665746   3682452   3698431   3713706  
  5210.000000   3728433   3742572   3756174   3769092   3781310  
  5200.000000   3792673   3803228   3812922   3821899   3830164  
  5190.000000   3837860   3844951   3851513   3857462   3862853  
  5180.000000   3867616   3871837   3875471   3878597   3881148  
  5170.000000   3883162   3884556   3885377   3885586   3885279  
  5160.000000   3884464   3883247   3881624   3879661   3877323  
  5150.000000   3874657   3871636   3868320   3864696   3860822  
  5140.000000   3856674   3852288   3847635   3842758   3837652  
  5130.000000   3832375   3826934   3821370   3815668   3809839  
  5120.000000   3803861   3797756   3791536   3785254   3778945  
  5110.000000   3772654   3766392   3760168   3753968   3747795  
  5100.000000   3741647   3735546   3729502   3723527   3717611  
  5090.000000   3711735   3705870   3699998   3694111   3688222  
  5080.000000   3682347   3676507   3670702   3664927   3659154  
  5070.000000   3653363   3647535   3641670   3635773   3629862  
  5060.000000   3623941   3618013   3612057   3606055   3599979  
  5050.000000   3593817   3587557   3581208   3574777   3568285  
  5040.000000   3561744   3555173   3548582   3541984   3535381  
  5030.000000   3528775   3522160   3515531   3508885   3502225  
  5020.000000   3495567   3488931   3482353   3475859   3469483  
  5010.000000   3463239   3457149   3451211   3445437   3439815  
  5000.000000   3434357   3429047   3423901   3418901   3414072  
  4990.000000   3409403   3404931   3400652   3396611   3392800  
  4980.000000   3389257   3385961   3382946   3380186   3377720  
  4970.000000   3375532   3373674   3372132   3370954   3370114  
  4960.000000   3369646   3369513   3369747   3370315   3371260  
  4950.000000   3372552   3374236   3376272   3378690   3381438  
  4940.000000   3384539   3387945   3391688   3395731   3400112  
  4930.000000   3404797   3409816   3415131   3420772   3426708  
  4920.000000   3432976   3439555   3446482   3453728   3461309  
  4910.000000   3469179   3477335   3485725   3494342   3503142  
  4900.000000   3512116   3521226   3530453   3539765   3549138  
  4890.000000   3558549   3567978   3577414   3586831   3596212  
  4880.000000   3605508   3614687   3623675   3632427   3640859  
  4870.000000   3648933   3656576   3663774   3670485   3676735  
  4860.000000   3682520   3687901   3692896   3697576   3701952  
  4850.000000   3706086   3709977   3713672   3717168   3720509  
  4840.000000   3723690   3726749   3729673   3732487   3735175  
  4830.000000   3737758   3740227   3742606   3744895   3747112  
  4820.000000   3749252   3751324   3753323   3755262   3757148  
  4810.000000   3759009   3760864   3762740   3764647   3766592  
  4800.000000   3768564   3770553   3772546   3774534   3776513  
  4790.000000   3778483   3780447   3782409   3784376   3786359  
  4780.000000   3788373   3790435   3792558   3794746   3796987  
  4770.000000   3799257   3801515   3803728   3805858   3807891  
  4760.000000   3809817   3811645   3813374   3815010   3816537  
  4750.000000   3817945   3819208   3820323   3821277   3822092  
  4740.000000   3822777   3823364   3823863   3824297   3824658  
  4730.000000   3824948   3825146   3825247   3825234   3825108  
  4720.000000   3824868   3824528   3824098   3823599   3823047  
  4710.000000   3822462   3821865   3821277   3820725   3820236  
  4700.000000   3819837   3819554   3819405   3819397   3819534  
  4690.000000   3819805   3820199   3820700   3821294   3821958  
  4680.000000   3822676   3823411   3824138   3824811   3825409  
  4670.000000   3825902   3826302   3826617   3826898   3827182  
  4660.000000   3827530   3827979   3828574   3829333   3830282  
  4650.000000   3831425   3832773   3834322   3836067   3837986  
  4640.000000   3840054   3842236   3844497   3846805   3849134  
  4630.000000   3851463   3853775   3856052   3858271   3860407  
  4620.000000   3862428   3864304   3866004   3867510   3868803  
  4610.000000   3869887   3870761   3871453   3871980   3872386  
  4600.000000   3872698   3872960   3873189   3873413   3873624  
  4590.000000   3873827   3873992   3874110   3874145   3874087  
  4580.000000   3873909   3873609   3873171   3872604   3871902  
  4570.000000   3871080   3870139   3869097   3867951   3866713  
  4560.000000   3865375   3863942   3862405   3860774   3859052  
  4550.000000   3857263   3855425   3853566   3851704   3849858  
  4540.000000   3848034   3846230   3844441   3842654   3840866  
  4530.000000   3839066   3837264   3835461   3833683   3831938  
  4520.000000   3830272   3828693   3827252   3825950   3824836  
  4510.000000   3823900   3823196   3822718   3822539   3822669  
  4500.000000   3823206   3824166   3825650   3827656   3830268  
  4490.000000   3833457   3837291   3841732   3846846   3852599  
  4480.000000   3859062   3866199   3874072   3882629   3891908  
  4470.000000   3901829   3912398   3923511   3935145   3947186  
  4460.000000   3959603   3972288   3985216   3998303   4011534  
  4450.000000   4024848   4038239   4051671   4065145   4078648  
  4440.000000   4092184   4105752   4119341   4132951   4146543  
  4430.000000   4160113   4173599   4186989   4200205   4213225  
  4420.000000   4225950   4238350   4250313   4261813   4272742  
  4410.000000   4283085   4292744   4301716   4309912   4317342  
  4400.000000   4323948   4329777   4334830   4339213   4342987  
  4390.000000   4346300   4349240   4351947   4354492   4356973  
  4380.000000   4359424   4361902   4364422   4367032   4369765  
  4370.000000   4372684   4375846   4379318   4383152   4387379  
  4360.000000   4392003   4397002   4402323   4407909   4413672  
  4350.000000   4419557   4425471   4431397   4437274   4443137  
  4340.000000   4448968   4454810   4460601   4466254   4471512  
  4330.000000   4476048   4479401   4481141   4480895   4478520  
  4320.000000   4474110   4468065   4460966   4453526   4446382  
  4310.000000   4440064   4434842   4430810   4427851   4425790  
  4300.000000   4424398   4423503   4422970   4422715   4422695  
  4290.000000   4422855   4423182   4423629   4424212   4424920  
  4280.000000   4425794   4426852   4428120   4429608   4431304  
  4270.000000   4433202   4435259   4437432   4439605   4441629  
  4260.000000   4443260   4444236   4444267   4443141   4440741  
  4250.000000   4437117   4432449   4427055   4421282   4415497  
  4240.000000   4409968   4404900   4400352   4396334   4392755  
  4230.000000   4389526   4386521   4383641   4380788   4377887  
  4220.000000   4374895   4371781   4368576   4365309   4362076  
  4210.000000   4358953   4356057   4353454   4351226   4349388  
  4200.000000   4347957   4346886   4346141   4345635   4345322  
  4190.000000   4345117   4345001   4344926   4344921   4344976  
  4180.000000   4345154   4345458   4345958   4346656   4347623  
  4170.000000   4348867   4350467   4352438   4354854   4357710  
  4160.000000   4361052   4364838   4369090   4373755   4378866  
  4150.000000   4384386   4390374   4396801   4403723   4411094  
  4140.000000   4418951   4427234   4435982   4445143   4454773  
  4130.000000   4464832   4475377   4486363   4497829   4509727  
  4120.000000   4522089   4534877   4548137   4561849   4576061  
  4110.000000   4590755   4605959   4621630   4637757   4654262  
  4100.000000   4671096   4688162   4705397   4722722   4740098  
  4090.000000   4757488   4774881   4792276   4809674   4827088  
  4080.000000   4844514   4861974   4879448   4896948   4914420  
  4070.000000   4931836   4949091   4966132   4982840   4999193  
  4060.000000   5015116   5030640   5045715   5060382   5074562  
  4050.000000   5088279   5101441   5114096   5126179   5137775  
  4040.000000   5148822   5159384   5169347   5178730   5187394  
  4030.000000   5195365   5202532   5208949   5214534   5219334  
  4020.000000   5223233   5226281   5228440   5229794   5230301  
  4010.000000   5230125   5229361   5228053   5225981   5223220  
  4000.000000   5220108  
##END= 
