##TITLE= Sample 016 By ssteindl date Montag, November 26 2018
##JCAMP-DX= 4.24
##DATA TYPE= INFRARED SPECTRUM
##ORIGIN= Exported PE Spectrum Data File
##OWNER= Sandra Steindl
##DATE= 18/11/26
##TIME= 12:23:42.00
##SPECTROMETER/DATA SYSTEM= PERKIN-ELMER Frontier FT-IR/NIR IR
##INSTRUMENT PARAMETERS=
  APODIZATION=stark
  DETECTOR=INGAAS
##RESOLUTION= 16.000000
##DELTAX= -2.000000
##XUNITS= 1/CM
##YUNITS= A
##XFACTOR= 1.00
##YFACTOR= 0.00000011920928955078
##FIRSTX= 10000.00
##LASTX= 4000.00
##NPOINTS= 3001
##FIRSTY= 0.277047
##MAXY= 0.645699
##MINY= 0.222542
##XYDATA= (X++(Y..Y))
 10000.000000   2324039   2323045   2323728   2327944   2335130  
  9990.000000   2343187   2350561   2356779   2361665   2365408  
  9980.000000   2368842   2373134   2378924   2386119   2393949  
  9970.000000   2401223   2406560   2408861   2407683   2403290  
  9960.000000   2396597   2388846   2381206   2374510   2368982  
  9950.000000   2364414   2360272   2356162   2352002   2348273  
  9940.000000   2345780   2345459   2347810   2352669   2359026  
  9930.000000   2365319   2369929   2371706   2370391   2366587  
  9920.000000   2361531   2356527   2352546   2349904   2348360  
  9910.000000   2347311   2346163   2344532   2342298   2339513  
  9900.000000   2336234   2332487   2328330   2324022   2320123  
  9890.000000   2317400   2316568   2317914   2321062   2325021  
  9880.000000   2328520   2330571   2330864   2329966   2328984  
  9870.000000   2329081   2330840   2333977   2337460   2339917  
  9860.000000   2340336   2338362   2334469   2329518   2324331  
  9850.000000   2319245   2314077   2308407   2302043   2295404  
  9840.000000   2289544   2285830   2285340   2288388   2294281  
  9830.000000   2301618   2308750   2314429   2318114   2320016  
  9820.000000   2320803   2321145   2321482   2321861   2322163  
  9810.000000   2322246   2322092   2321756   2321149   2319987  
  9800.000000   2317746   2314028   2308825   2302806   2297190  
  9790.000000   2293320   2292064   2293286   2295762   2297556  
  9780.000000   2296779   2292422   2284829   2275690   2267416  
  9770.000000   2262289   2261654   2265511   2272650   2281106  
  9760.000000   2288884   2294423   2296963   2296431   2293323  
  9750.000000   2288398   2282577   2276813   2272089   2269244  
  9740.000000   2268838   2270913   2274913   2279828   2284409  
  9730.000000   2287709   2289238   2289269   2288510   2287876  
  9720.000000   2288019   2289086   2290734   2292244   2292914  
  9710.000000   2292181   2289839   2285921   2280636   2274275  
  9700.000000   2267163   2259760   2252652   2246598   2242362  
  9690.000000   2240553   2241405   2244664   2249600   2255171  
  9680.000000   2260271   2263986   2265800   2265640   2263878  
  9670.000000   2261165   2258325   2256135   2255223   2255886  
  9660.000000   2258051   2261233   2264655   2267428   2268781  
  9650.000000   2268306   2266032   2262441   2258246   2254218  
  9640.000000   2250942   2248754   2247690   2247603   2248197  
  9630.000000   2249171   2250206   2251050   2251464   2251304  
  9620.000000   2250473   2248977   2246857   2244184   2241017  
  9610.000000   2237395   2233400   2229163   2224949   2221077  
  9600.000000   2217868   2215456   2213708   2212182   2210294  
  9590.000000   2207545   2203802   2199422   2195205   2192133  
  9580.000000   2191021   2192214   2195476   2200067   2205042  
  9570.000000   2209516   2212933   2215081   2216052   2216040  
  9560.000000   2215254   2213824   2211897   2209671   2207481  
  9550.000000   2205716   2204689   2204498   2204926   2205559  
  9540.000000   2205900   2205664   2204810   2203628   2202495  
  9530.000000   2201737   2201428   2201402   2201366   2201063  
  9520.000000   2200422   2199543   2198605   2197697   2196704  
  9510.000000   2195333   2193230   2190230   2186485   2182531  
  9500.000000   2179094   2176849   2176105   2176680   2177948  
  9490.000000   2179064   2179286   2178172   2175716   2172212  
  9480.000000   2168136   2163924   2159905   2156285   2153211  
  9470.000000   2150851   2149394   2149026   2149810   2151624  
  9460.000000   2154148   2156912   2159455   2161375   2162478  
  9450.000000   2162659   2161945   2160339   2157888   2154692  
  9440.000000   2151039   2147460   2144693   2143536   2144541  
  9430.000000   2147848   2152980   2159023   2164761   2169092  
  9420.000000   2171271   2171142   2169122   2165994   2162640  
  9410.000000   2159685   2157402   2155620   2153945   2151899  
  9400.000000   2149169   2145700   2141692   2137570   2133787  
  9390.000000   2130819   2129002   2128599   2129723   2132356  
  9380.000000   2136286   2141089   2146133   2150656   2153913  
  9370.000000   2155377   2154887   2152719   2149491   2145972  
  9360.000000   2142854   2140535   2139046   2138073   2137109  
  9350.000000   2135653   2133349   2130114   2126056   2121470  
  9340.000000   2116665   2111970   2107686   2104128   2101635  
  9330.000000   2100455   2100698   2102134   2104269   2106351  
  9320.000000   2107628   2107500   2105749   2102632   2098866  
  9310.000000   2095441   2093331   2093220   2095358   2099507  
  9300.000000   2105048   2111077   2116615   2120737   2122781  
  9290.000000   2122428   2119782   2115311   2109812   2104250  
  9280.000000   2099632   2096750   2096023   2097394   2100364  
  9270.000000   2104207   2108086   2111352   2113566   2114710  
  9260.000000   2115058   2115108   2115353   2116116   2117495  
  9250.000000   2119274   2121013   2122090   2121915   2120108  
  9240.000000   2116631   2111847   2106393   2101098   2096746  
  9230.000000   2093918   2092797   2093175   2094510   2096135  
  9220.000000   2097392   2097820   2097194   2095599   2093355  
  9210.000000   2090916   2088752   2087219   2086539   2086661  
  9200.000000   2087301   2087946   2088041   2087132   2085033  
  9190.000000   2081899   2078205   2074658   2071957   2070593  
  9180.000000   2070672   2071921   2073823   2075769   2077265  
  9170.000000   2078021   2078019   2077414   2076416   2075180  
  9160.000000   2073757   2072183   2070526   2068967   2067753  
  9150.000000   2067193   2067526   2068835   2070928   2073369  
  9140.000000   2075559   2076870   2076802   2075054   2071637  
  9130.000000   2066848   2061262   2055565   2050449   2046482  
  9120.000000   2044030   2043187   2043747   2045312   2047391  
  9110.000000   2049549   2051434   2052864   2053799   2054321  
  9100.000000   2054557   2054623   2054623   2054611   2054635  
  9090.000000   2054692   2054766   2054795   2054681   2054301  
  9080.000000   2053506   2052197   2050324   2047950   2045203  
  9070.000000   2042303   2039500   2037042   2035119   2033831  
  9060.000000   2033185   2033044   2033163   2033208   2032875  
  9050.000000   2031932   2030307   2028132   2025744   2023597  
  9040.000000   2022168   2021840   2022856   2025199   2028607  
  9030.000000   2032586   2036552   2039865   2041977   2042545  
  9020.000000   2041580   2039432   2036734   2034273   2032791  
  9010.000000   2032785   2034294   2036983   2040205   2043300  
  9000.000000   2045705   2047193   2047842   2047955   2047810  
  8990.000000   2047498   2046865   2045538   2043151   2039489  
  8980.000000   2034711   2029297   2023969   2019467   2016322  
  8970.000000   2014771   2014663   2015646   2017248   2019122  
  8960.000000   2021058   2023038   2025120   2027364   2029736  
  8950.000000   2032045   2033976   2035128   2035183   2033917  
  8940.000000   2031339   2027655   2023298   2018795   2014643  
  8930.000000   2011197   2008589   2006751   2005456   2004468  
  8920.000000   2003640   2002976   2002608   2002694   2003332  
  8910.000000   2004445   2005815   2007111   2008079   2008606  
  8900.000000   2008814   2008980   2009432   2010438   2012097  
  8890.000000   2014344   2016961   2019694   2022298   2024579  
  8880.000000   2026361   2027463   2027709   2026943   2025124  
  8870.000000   2022347   2018891   2015129   2011442   2008100  
  8860.000000   2005233   2002863   2000968   1999603   1998891  
  8850.000000   1999043   2000200   2002368   2005309   2008604  
  8840.000000   2011765   2014379   2016240   2017352   2017915  
  8830.000000   2018136   2018173   2018013   2017587   2016789  
  8820.000000   2015613   2014155   2012606   2011167   2009954  
  8810.000000   2008998   2008245   2007680   2007359   2007456  
  8800.000000   2008175   2009656   2011849   2014475   2017073  
  8790.000000   2019147   2020329   2020509   2019859   2018758  
  8780.000000   2017659   2016928   2016748   2017081   2017723  
  8770.000000   2018387   2018789   2018719   2018068   2016855  
  8760.000000   2015196   2013316   2011492   2010023   2009148  
  8750.000000   2008986   2009498   2010487   2011668   2012746  
  8740.000000   2013511   2013876   2013875   2013615   2013222  
  8730.000000   2012785   2012361   2011964   2011627   2011387  
  8720.000000   2011300   2011391   2011635   2011945   2012201  
  8710.000000   2012303   2012225   2012031   2011862   2011872  
  8700.000000   2012178   2012807   2013707   2014760   2015840  
  8690.000000   2016847   2017722   2018441   2019006   2019433  
  8680.000000   2019778   2020115   2020553   2021169   2021979  
  8670.000000   2022880   2023675   2024128   2024082   2023560  
  8660.000000   2022811   2022270   2022397   2023531   2025710  
  8650.000000   2028653   2031822   2034615   2036587   2037570  
  8640.000000   2037713   2037357   2036880   2036522   2036317  
  8630.000000   2036121   2035745   2035084   2034221   2033410  
  8620.000000   2032978   2033191   2034117   2035621   2037382  
  8610.000000   2039050   2040341   2041141   2041517   2041660  
  8600.000000   2041815   2042174   2042840   2043789   2044903  
  8590.000000   2045994   2046861   2047344   2047367   2046980  
  8580.000000   2046349   2045748   2045467   2045736   2046626  
  8570.000000   2048016   2049615   2051045   2051966   2052173  
  8560.000000   2051672   2050652   2049415   2048266   2047428  
  8550.000000   2046993   2046949   2047217   2047726   2048427  
  8540.000000   2049296   2050300   2051370   2052402   2053277  
  8530.000000   2053915   2054320   2054579   2054854   2055293  
  8520.000000   2055992   2056934   2058015   2059077   2059986  
  8510.000000   2060672   2061166   2061579   2062059   2062744  
  8500.000000   2063707   2064959   2066430   2068030   2069651  
  8490.000000   2071211   2072648   2073937   2075077   2076080  
  8480.000000   2076950   2077669   2078198   2078461   2078385  
  8470.000000   2077907   2077038   2075872   2074594   2073453  
  8460.000000   2072679   2072455   2072826   2073734   2075017  
  8450.000000   2076501   2078048   2079591   2081124   2082653  
  8440.000000   2084146   2085487   2086498   2086989   2086865  
  8430.000000   2086170   2085124   2084060   2083332   2083204  
  8420.000000   2083736   2084804   2086127   2087407   2088414  
  8410.000000   2089063   2089404   2089562   2089649   2089692  
  8400.000000   2089611   2089267   2088559   2087490   2086213  
  8390.000000   2084992   2084114   2083800   2084102   2084917  
  8380.000000   2085993   2087057   2087878   2088354   2088499  
  8370.000000   2088419   2088237   2088038   2087842   2087605  
  8360.000000   2087267   2086773   2086106   2085281   2084332  
  8350.000000   2083298   2082212   2081113   2080050   2079091  
  8340.000000   2078302   2077724   2077355   2077133   2076956  
  8330.000000   2076715   2076334   2075809   2075200   2074619  
  8320.000000   2074168   2073909   2073843   2073919   2074064  
  8310.000000   2074206   2074298   2074309   2074213   2073955  
  8300.000000   2073457   2072628   2071412   2069828   2067995  
  8290.000000   2066106   2064394   2063064   2062245   2061958  
  8280.000000   2062105   2062524   2063013   2063417   2063622  
  8270.000000   2063599   2063376   2063029   2062649   2062299  
  8260.000000   2061993   2061674   2061234   2060529   2059438  
  8250.000000   2057899   2055959   2053778   2051587   2049639  
  8240.000000   2048110   2047065   2046431   2046046   2045716  
  8230.000000   2045301   2044757   2044147   2043584   2043177  
  8220.000000   2042957   2042866   2042771   2042524   2042029  
  8210.000000   2041282   2040366   2039406   2038497   2037658  
  8200.000000   2036798   2035772   2034424   2032674   2030557  
  8190.000000   2028232   2025923   2023851   2022140   2020796  
  8180.000000   2019693   2018648   2017485   2016104   2014522  
  8170.000000   2012847   2011238   2009823   2008651   2007655  
  8160.000000   2006695   2005602   2004271   2002691   2000975  
  8150.000000   1999316   1997933   1996990   1996541   1996517  
  8140.000000   1996748   1997024   1997155   1997023   1996596  
  8130.000000   1995920   1995080   1994166   1993240   1992321  
  8120.000000   1991392   1990407   1989311   1988050   1986599  
  8110.000000   1984961   1983187   1981367   1979614   1978046  
  8100.000000   1976739   1975719   1974939   1974309   1973731  
  8090.000000   1973147   1972570   1972076   1971767   1971705  
  8080.000000   1971864   1972119   1972263   1972095   1971483  
  8070.000000   1970436   1969094   1967697   1966484   1965622  
  8060.000000   1965131   1964889   1964667   1964202   1963275  
  8050.000000   1961769   1959683   1957128   1954287   1951389  
  8040.000000   1948664   1946325   1944535   1943383   1942861  
  8030.000000   1942861   1943188   1943607   1943891   1943892  
  8020.000000   1943565   1942972   1942247   1941538   1940963  
  8010.000000   1940555   1940282   1940040   1939717   1939206  
  8000.000000   1938448   1937430   1936186   1934781   1933302  
  7990.000000   1931841   1930485   1929293   1928294   1927476  
  7980.000000   1926799   1926209   1925678   1925210   1924862  
  7970.000000   1924707   1924809   1925175   1925738   1926363  
  7960.000000   1926890   1927185   1927197   1926978   1926667  
  7950.000000   1926432   1926412   1926650   1927082   1927545  
  7940.000000   1927845   1927811   1927363   1926528   1925433  
  7930.000000   1924263   1923200   1922390   1921898   1921725  
  7920.000000   1921806   1922056   1922374   1922680   1922904  
  7910.000000   1923001   1922944   1922726   1922365   1921892  
  7900.000000   1921360   1920808   1920268   1919731   1919158  
  7890.000000   1918493   1917689   1916751   1915754   1914842  
  7880.000000   1914191   1913955   1914203   1914875   1915788  
  7870.000000   1916679   1917292   1917455   1917151   1916507  
  7860.000000   1915761   1915161   1914883   1914975   1915349  
  7850.000000   1915834   1916253   1916482   1916497   1916351  
  7840.000000   1916133   1915916   1915714   1915492   1915187  
  7830.000000   1914750   1914185   1913546   1912915   1912382  
  7820.000000   1911993   1911765   1911675   1911702   1911823  
  7810.000000   1912025   1912284   1912540   1912701   1912645  
  7800.000000   1912267   1911511   1910414   1909090   1907708  
  7790.000000   1906439   1905397   1904630   1904103   1903756  
  7780.000000   1903522   1903373   1903299   1903301   1903346  
  7770.000000   1903357   1903215   1902796   1902022   1900889  
  7760.000000   1899492   1897981   1896533   1895283   1894299  
  7750.000000   1893572   1893038   1892625   1892276   1891980  
  7740.000000   1891755   1891634   1891625   1891712   1891842  
  7730.000000   1891955   1892003   1891964   1891853   1891703  
  7720.000000   1891547   1891391   1891207   1890934   1890500  
  7710.000000   1889838   1888918   1887755   1886414   1885000  
  7700.000000   1883626   1882405   1881411   1880682   1880201  
  7690.000000   1879914   1879742   1879594   1879393   1879083  
  7680.000000   1878643   1878082   1877442   1876780   1876167  
  7670.000000   1875666   1875328   1875178   1875211   1875391  
  7660.000000   1875656   1875934   1876151   1876255   1876218  
  7650.000000   1876036   1875729   1875317   1874824   1874257  
  7640.000000   1873619   1872906   1872126   1871293   1870442  
  7630.000000   1869612   1868850   1868191   1867662   1867270  
  7620.000000   1867010   1866867   1866817   1866835   1866896  
  7610.000000   1866980   1867076   1867183   1867316   1867490  
  7600.000000   1867730   1868041   1868420   1868830   1869224  
  7590.000000   1869540   1869726   1869758   1869650   1869461  
  7580.000000   1869278   1869198   1869298   1869610   1870104  
  7570.000000   1870690   1871232   1871583   1871630   1871322  
  7560.000000   1870695   1869857   1868967   1868190   1867656  
  7550.000000   1867433   1867512   1867828   1868290   1868814  
  7540.000000   1869352   1869891   1870442   1871011   1871586  
  7530.000000   1872120   1872561   1872851   1872984   1872995  
  7520.000000   1872979   1873045   1873297   1873783   1874484  
  7510.000000   1875321   1876190   1876995   1877688   1878280  
  7500.000000   1878831   1879419   1880109   1880920   1881829  
  7490.000000   1882775   1883701   1884561   1885352   1886087  
  7480.000000   1886803   1887512   1888216   1888882   1889484  
  7470.000000   1889997   1890442   1890869   1891362   1892005  
  7460.000000   1892870   1893999   1895402   1897066   1898960  
  7450.000000   1901047   1903282   1905602   1907926   1910152  
  7440.000000   1912179   1913917   1915331   1916426   1917269  
  7430.000000   1917954   1918591   1919275   1920069   1921000  
  7420.000000   1922061   1923230   1924469   1925738   1926994  
  7410.000000   1928200   1929329   1930378   1931369   1932355  
  7400.000000   1933409   1934597   1935970   1937533   1939259  
  7390.000000   1941084   1942943   1944785   1946584   1948340  
  7380.000000   1950066   1951772   1953453   1955085   1956646  
  7370.000000   1958113   1959489   1960788   1962037   1963257  
  7360.000000   1964457   1965636   1966786   1967918   1969056  
  7350.000000   1970250   1971551   1972996   1974583   1976269  
  7340.000000   1977976   1979626   1981157   1982555   1983852  
  7330.000000   1985116   1986426   1987844   1989392   1991043  
  7320.000000   1992728   1994347   1995796   1996992   1997903  
  7310.000000   1998553   1999030   1999467   2000011   2000786  
  7300.000000   2001852   2003197   2004734   2006339   2007877  
  7290.000000   2009260   2010454   2011496   2012461   2013431  
  7280.000000   2014453   2015533   2016633   2017696   2018678  
  7270.000000   2019563   2020376   2021167   2021984   2022856  
  7260.000000   2023776   2024709   2025608   2026436   2027187  
  7250.000000   2027881   2028566   2029289   2030096   2031005  
  7240.000000   2032025   2033143   2034363   2035680   2037111  
  7230.000000   2038657   2040326   2042094   2043944   2045839  
  7220.000000   2047768   2049721   2051727   2053815   2056036  
  7210.000000   2058422   2060998   2063753   2066660   2069666  
  7200.000000   2072717   2075758   2078760   2081704   2084598  
  7190.000000   2087454   2090294   2093128   2095961   2098778  
  7180.000000   2101565   2104297   2106966   2109566   2112115  
  7170.000000   2114637   2117177   2119767   2122453   2125250  
  7160.000000   2128167   2131185   2134287   2137448   2140670  
  7150.000000   2143969   2147400   2151017   2154888   2159033  
  7140.000000   2163446   2168048   2172754   2177443   2182054  
  7130.000000   2186547   2190968   2195381   2199897   2204591  
  7120.000000   2209525   2214694   2220067   2225571   2231150  
  7110.000000   2236747   2242350   2247951   2253571   2259211  
  7100.000000   2264883   2270570   2276268   2281957   2287645  
  7090.000000   2293338   2299074   2304891   2310836   2316943  
  7080.000000   2323223   2329649   2336164   2342679   2349111  
  7070.000000   2355388   2361485   2367418   2373246   2379029  
  7060.000000   2384821   2390641   2396479   2402309   2408115  
  7050.000000   2413906   2419715   2425591   2431565   2437634  
  7040.000000   2443752   2449842   2455830   2461670   2467359  
  7030.000000   2472937   2478460   2483979   2489514   2495065  
  7020.000000   2500610   2506149   2511692   2517279   2522937  
  7010.000000   2528671   2534427   2540118   2545621   2550839  
  7000.000000   2555715   2560261   2564535   2568630   2572630  
  6990.000000   2576609   2580603   2584645   2588746   2592921  
  6980.000000   2597157   2601435   2605686   2609846   2613843  
  6970.000000   2617653   2621292   2624833   2628354   2631919  
  6960.000000   2635528   2639131   2642621   2645909   2648935  
  6950.000000   2651723   2654347   2656926   2659554   2662289  
  6940.000000   2665110   2667960   2670742   2673381   2675816  
  6930.000000   2678038   2680054   2681899   2683608   2685226  
  6920.000000   2686786   2688327   2689864   2691405   2692936  
  6910.000000   2694442   2695908   2697347   2698792   2700298  
  6900.000000   2701900   2703605   2705364   2707095   2708697  
  6890.000000   2710103   2711304   2712365   2713393   2714507  
  6880.000000   2715778   2717213   2718746   2720271   2721668  
  6870.000000   2722850   2723776   2724456   2724930   2725259  
  6860.000000   2725507   2725744   2726034   2726440   2727002  
  6850.000000   2727735   2728610   2729570   2730536   2731451  
  6840.000000   2732285   2733053   2733792   2734542   2735312  
  6830.000000   2736081   2736800   2737425   2737944   2738387  
  6820.000000   2738816   2739303   2739885   2740555   2741254  
  6810.000000   2741905   2742437   2742824   2743081   2743258  
  6800.000000   2743405   2743561   2743728   2743898   2744054  
  6790.000000   2744202   2744360   2744557   2744804   2745085  
  6780.000000   2745352   2745545   2745611   2745536   2745344  
  6770.000000   2745091   2744836   2744622   2744460   2744334  
  6760.000000   2744219   2744101   2743987   2743905   2743888  
  6750.000000   2743954   2744097   2744288   2744483   2744648  
  6740.000000   2744765   2744839   2744893   2744953   2745040  
  6730.000000   2745162   2745311   2745469   2745612   2745712  
  6720.000000   2745739   2745674   2745507   2745255   2744953  
  6710.000000   2744661   2744433   2744318   2744323   2744428  
  6700.000000   2744577   2744710   2744775   2744748   2744629  
  6690.000000   2744437   2744191   2743901   2743560   2743158  
  6680.000000   2742684   2742149   2741574   2740992   2740428  
  6670.000000   2739898   2739392   2738893   2738374   2737819  
  6660.000000   2737217   2736570   2735876   2735138   2734347  
  6650.000000   2733498   2732585   2731613   2730584   2729509  
  6640.000000   2728392   2727239   2726053   2724852   2723653  
  6630.000000   2722484   2721362   2720293   2719255   2718213  
  6620.000000   2717124   2715962   2714719   2713419   2712095  
  6610.000000   2710780   2709485   2708202   2706900   2705555  
  6600.000000   2704150   2702698   2701218   2699739   2698269  
  6590.000000   2696797   2695297   2693745   2692129   2690464  
  6580.000000   2688781   2687118   2685495   2683913   2682352  
  6570.000000   2680784   2679193   2677585   2675982   2674416  
  6560.000000   2672910   2671464   2670057   2668657   2667237  
  6550.000000   2665785   2664313   2662843   2661401   2659999  
  6540.000000   2658638   2657310   2656009   2654738   2653508  
  6530.000000   2652332   2651216   2650146   2649095   2648027  
  6520.000000   2646915   2645744   2644524   2643276   2642030  
  6510.000000   2640807   2639617   2638455   2637309   2636162  
  6500.000000   2634997   2633799   2632558   2631270   2629943  
  6490.000000   2628601   2627281   2626023   2624862   2623807  
  6480.000000   2622837   2621903   2620949   2619927   2618822  
  6470.000000   2617657   2616480   2615344   2614285   2613305  
  6460.000000   2612376   2611447   2610478   2609447   2608366  
  6450.000000   2607266   2606188   2605162   2604198   2603287  
  6440.000000   2602415   2601563   2600726   2599899   2599085  
  6430.000000   2598278   2597469   2596643   2595797   2594937  
  6420.000000   2594094   2593301   2592602   2592020   2591564  
  6410.000000   2591216   2590948   2590726   2590528   2590341  
  6400.000000   2590171   2590027   2589922   2589861   2589840  
  6390.000000   2589843   2589851   2589839   2589787   2589684  
  6380.000000   2589528   2589330   2589106   2588871   2588633  
  6370.000000   2588390   2588124   2587817   2587450   2587024  
  6360.000000   2586549   2586059   2585586   2585158   2584786  
  6350.000000   2584465   2584172   2583883   2583574   2583229  
  6340.000000   2582837   2582393   2581889   2581325   2580702  
  6330.000000   2580035   2579352   2578692   2578088   2577569  
  6320.000000   2577131   2576754   2576386   2575979   2575481  
  6310.000000   2574871   2574141   2573314   2572416   2571485  
  6300.000000   2570541   2569595   2568639   2567649   2566590  
  6290.000000   2565434   2564155   2562760   2561274   2559759  
  6280.000000   2558279   2556907   2555682   2554613   2553664  
  6270.000000   2552773   2551862   2550866   2549738   2548461  
  6260.000000   2547042   2545500   2543857   2542139   2540368  
  6250.000000   2538571   2536777   2535017   2533316   2531688  
  6240.000000   2530126   2528619   2527147   2525699   2524271  
  6230.000000   2522869   2521499   2520157   2518830   2517494  
  6220.000000   2516125   2514707   2513240   2511738   2510223  
  6210.000000   2508715   2507226   2505761   2504322   2502911  
  6200.000000   2501534   2500197   2498902   2497640   2496392  
  6190.000000   2495134   2493851   2492543   2491231   2489946  
  6180.000000   2488719   2487565   2486479   2485438   2484414  
  6170.000000   2483380   2482329   2481263   2480192   2479120  
  6160.000000   2478042   2476941   2475803   2474622   2473416  
  6150.000000   2472211   2471043   2469935   2468891   2467895  
  6140.000000   2466922   2465951   2464977   2464011   2463078  
  6130.000000   2462195   2461372   2460591   2459828   2459048  
  6120.000000   2458235   2457376   2456487   2455583   2454691  
  6110.000000   2453832   2453033   2452319   2451719   2451257  
  6100.000000   2450950   2450789   2450754   2450797   2450872  
  6090.000000   2450935   2450972   2450978   2450980   2450994  
  6080.000000   2451045   2451134   2451267   2451433   2451640  
  6070.000000   2451891   2452202   2452577   2453022   2453521  
  6060.000000   2454063   2454629   2455217   2455826   2456476  
  6050.000000   2457180   2457967   2458848   2459846   2460965  
  6040.000000   2462218   2463597   2465092   2466665   2468283  
  6030.000000   2469903   2471509   2473100   2474711   2476382  
  6020.000000   2478162   2480068   2482097   2484209   2486361  
  6010.000000   2488503   2490612   2492681   2494727   2496763  
  6000.000000   2498806   2500852   2502902   2504950   2507013  
  5990.000000   2509113   2511288   2513564   2515961   2518474  
  5980.000000   2521093   2523795   2526572   2529416   2532336  
  5970.000000   2535327   2538391   2541503   2544656   2547827  
  5960.000000   2551027   2554258   2557547   2560895   2564304  
  5950.000000   2567751   2571219   2574694   2578191   2581748  
  5940.000000   2585422   2589260   2593290   2597499   2601841  
  5930.000000   2606246   2610640   2614964   2619178   2623261  
  5920.000000   2627200   2630981   2634585   2637995   2641199  
  5910.000000   2644206   2647037   2649730   2652323   2654860  
  5900.000000   2657368   2659879   2662412   2664998   2667649  
  5890.000000   2670383   2673187   2676048   2678927   2681797  
  5880.000000   2684624   2687393   2690088   2692692   2695182  
  5870.000000   2697523   2699681   2701634   2703388   2704981  
  5860.000000   2706480   2707964   2709505   2711157   2712944  
  5850.000000   2714871   2716925   2719094   2721358   2723700  
  5840.000000   2726093   2728506   2730910   2733274   2735594  
  5830.000000   2737873   2740138   2742412   2744715   2747047  
  5820.000000   2749400   2751757   2754109   2756459   2758820  
  5810.000000   2761209   2763631   2766084   2768544   2770998  
  5800.000000   2773419   2775821   2778202   2780593   2782981  
  5790.000000   2785364   2787678   2789871   2791845   2793524  
  5780.000000   2794806   2795619   2795877   2795541   2794583  
  5770.000000   2793054   2791035   2788687   2786170   2783666  
  5760.000000   2781288   2779118   2777152   2775368   2773702  
  5750.000000   2772124   2770600   2769138   2767738   2766408  
  5740.000000   2765144   2763934   2762766   2761630   2760529  
  5730.000000   2759462   2758432   2757427   2756440   2755451  
  5720.000000   2754463   2753481   2752531   2751630   2750797  
  5710.000000   2750024   2749300   2748600   2747911   2747232  
  5700.000000   2746578   2745969   2745421   2744935   2744495  
  5690.000000   2744082   2743669   2743252   2742826   2742404  
  5680.000000   2741985   2741566   2741116   2740604   2739977  
  5670.000000   2739195   2738210   2736996   2735521   2733778  
  5660.000000   2731770   2729533   2727121   2724618   2722106  
  5650.000000   2719663   2717329   2715122   2713018   2710993  
  5640.000000   2709015   2707075   2705176   2703332   2701557  
  5630.000000   2699854   2698221   2696647   2695132   2693675  
  5620.000000   2692293   2690990   2689769   2688612   2687497  
  5610.000000   2686391   2685283   2684168   2683069   2682012  
  5600.000000   2681026   2680127   2679319   2678589   2677918  
  5590.000000   2677282   2676659   2676026   2675361   2674643  
  5580.000000   2673857   2673004   2672098   2671165   2670235  
  5570.000000   2669328   2668444   2667567   2666666   2665718  
  5560.000000   2664710   2663650   2662562   2661473   2660400  
  5550.000000   2659345   2658297   2657239   2656162   2655069  
  5540.000000   2653975   2652897   2651845   2650815   2649791  
  5530.000000   2648759   2647709   2646649   2645597   2644576  
  5520.000000   2643600   2642672   2641777   2640897   2640013  
  5510.000000   2639114   2638197   2637261   2636299   2635302  
  5500.000000   2634252   2633142   2631974   2630767   2629546  
  5490.000000   2628338   2627148   2625968   2624769   2623526  
  5480.000000   2622215   2620838   2619405   2617939   2616452  
  5470.000000   2614949   2613417   2611843   2610213   2608527  
  5460.000000   2606789   2605014   2603207   2601373   2599509  
  5450.000000   2597619   2595712   2593806   2591922   2590072  
  5440.000000   2588260   2586477   2584719   2582988   2581305  
  5430.000000   2579695   2578181   2576756   2575397   2574049  
  5420.000000   2572678   2571260   2569833   2568459   2567235  
  5410.000000   2566224   2565455   2564886   2564455   2564075  
  5400.000000   2563706   2563329   2562985   2562714   2562572  
  5390.000000   2562566   2562703   2562950   2563308   2563773  
  5380.000000   2564385   2565164   2566139   2567281   2568566  
  5370.000000   2569921   2571325   2572737   2574197   2575715  
  5360.000000   2577363   2579150   2581134   2583312   2585744  
  5350.000000   2588443   2591499   2594935   2598829   2603163  
  5340.000000   2607967   2613172   2618795   2624768   2631127  
  5330.000000   2637811   2644861   2652211   2659906   2667899  
  5320.000000   2676287   2685079   2694427   2704356   2715010  
  5310.000000   2726362   2738487   2751297   2764832   2779010  
  5300.000000   2793905   2809482   2825860   2843034   2861126  
  5290.000000   2880100   2900009   2920731   2942217   2964283  
  5280.000000   2986869   3009857   3033309   3057254   3081859  
  5270.000000   3107183   3133293   3160075   3187362   3214891  
  5260.000000   3242446   3269888   3297199   3324459   3351758  
  5250.000000   3379158   3406585   3433898   3460830   3487193  
  5240.000000   3512788   3537623   3561698   3585183   3608132  
  5230.000000   3630670   3652721   3674260   3695084   3715123  
  5220.000000   3734217   3752419   3769711   3786279   3802181  
  5210.000000   3817599   3832509   3846959   3860778   3873919  
  5200.000000   3886204   3897663   3908250   3918124   3927317  
  5190.000000   3935991   3944117   3951757   3958802   3965271  
  5180.000000   3971068   3976256   3980791   3984760   3988111  
  5170.000000   3990896   3993038   3994586   3995499   3995876  
  5160.000000   3995730   3995181   3994233   3992962   3991326  
  5150.000000   3989366   3987034   3984379   3981375   3978077  
  5140.000000   3974464   3970577   3966390   3961946   3957239  
  5130.000000   3952330   3947236   3942014   3936671   3931241  
  5120.000000   3925713   3920112   3914437   3908724   3902986  
  5110.000000   3897258   3891542   3885851   3880172   3874507  
  5100.000000   3868848   3863200   3857566   3851952   3846360  
  5090.000000   3840794   3835259   3829771   3824343   3818997  
  5080.000000   3813735   3808554   3803423   3798309   3793169  
  5070.000000   3787980   3782722   3777406   3772040   3766638  
  5060.000000   3761195   3755704   3750136   3744474   3738697  
  5050.000000   3732808   3726809   3720719   3714546   3708304  
  5040.000000   3701991   3695616   3689182   3682706   3676205  
  5030.000000   3669704   3663222   3656773   3650368   3644011  
  5020.000000   3637711   3631474   3625316   3619246   3613283  
  5010.000000   3607426   3601688   3596061   3590557   3585169  
  5000.000000   3579919   3574803   3569853   3565066   3560475  
  4990.000000   3556075   3551903   3547953   3544263   3540820  
  4980.000000   3537661   3534762   3532156   3529813   3527767  
  4970.000000   3525992   3524528   3523349   3522498   3521947  
  4960.000000   3521737   3521841   3522309   3523118   3524322  
  4950.000000   3525891   3527866   3530195   3532898   3535914  
  4940.000000   3539269   3542922   3546929   3551276   3556032  
  4930.000000   3561180   3566768   3572749   3579141   3585880  
  4920.000000   3592979   3600383   3608116   3616143   3624496  
  4910.000000   3633149   3642128   3651404   3660988   3670845  
  4900.000000   3680965   3691305   3701836   3712517   3723304  
  4890.000000   3734155   3745013   3755828   3766523   3777044  
  4880.000000   3787307   3797274   3806873   3816090   3824862  
  4870.000000   3833180   3840969   3848220   3854861   3860909  
  4860.000000   3866333   3871201   3875519   3879379   3882783  
  4850.000000   3885797   3888396   3890623   3892452   3893940  
  4840.000000   3895094   3895993   3896668   3897197   3897606  
  4830.000000   3897950   3898244   3898523   3898796   3899089  
  4820.000000   3899407   3899767   3900176   3900651   3901203  
  4810.000000   3901849   3902602   3903463   3904431   3905485  
  4800.000000   3906609   3907779   3908992   3910248   3911568  
  4790.000000   3912965   3914460   3916053   3917738   3919492  
  4780.000000   3921296   3923127   3924979   3926842   3928718  
  4770.000000   3930605   3932496   3934384   3936261   3938121  
  4760.000000   3939963   3941788   3943593   3945371   3947106  
  4750.000000   3948778   3950365   3951857   3953248   3954553  
  4740.000000   3955786   3956973   3958127   3959261   3960372  
  4730.000000   3961455   3962497   3963486   3964414   3965275  
  4720.000000   3966071   3966807   3967500   3968168   3968842  
  4710.000000   3969548   3970325   3971196   3972192   3973328  
  4700.000000   3974621   3976072   3977691   3979471   3981416  
  4690.000000   3983515   3985766   3988151   3990663   3993274  
  4680.000000   3995968   3998705   4001463   4004196   4006884  
  4670.000000   4009494   4012027   4014480   4016888   4019276  
  4660.000000   4021700   4024199   4026826   4029616   4032603  
  4650.000000   4035801   4039214   4042829   4046618   4050541  
  4640.000000   4054553   4058610   4062669   4066707   4070695  
  4630.000000   4074624   4078468   4082213   4085824   4089272  
  4620.000000   4092513   4095520   4098249   4100686   4102805  
  4610.000000   4104616   4106117   4107352   4108351   4109189  
  4600.000000   4109906   4110573   4111205   4111833   4112426  
  4590.000000   4112971   4113409   4113714   4113833   4113753  
  4580.000000   4113444   4112913   4112151   4111187   4110031  
  4570.000000   4108731   4107314   4105831   4104302   4102754  
  4560.000000   4101177   4099568   4097894   4096145   4094295  
  4550.000000   4092354   4090322   4088221   4086062   4083861  
  4540.000000   4081621   4079347   4077037   4074694   4072321  
  4530.000000   4069919   4067492   4065036   4062556   4060047  
  4520.000000   4057529   4055007   4052529   4050110   4047814  
  4510.000000   4045653   4043696   4041949   4040492   4039334  
  4500.000000   4038571   4038213   4038362   4039018   4040277  
  4490.000000   4042128   4044671   4047897   4051912   4056700  
  4480.000000   4062347   4068801   4076104   4084161   4092983  
  4470.000000   4102466   4112626   4123378   4134754   4146680  
  4460.000000   4159176   4172152   4185592   4199385   4213489  
  4450.000000   4227795   4242267   4256834   4271489   4286206  
  4440.000000   4300999   4315868   4330815   4345835   4360894  
  4430.000000   4375971   4390996   4405938   4420702   4435254  
  4420.000000   4449484   4463352   4476742   4489621   4501877  
  4410.000000   4513493   4524374   4534526   4543881   4552474  
  4400.000000   4560270   4567337   4573680   4579401   4584537  
  4390.000000   4589216   4593500   4597526   4601365   4605144  
  4380.000000   4608916   4612770   4616723   4620815   4625035  
  4370.000000   4629393   4633871   4638473   4643188   4648024  
  4360.000000   4652979   4658067   4663282   4668644   4674120  
  4350.000000   4679719   4685365   4691049   4696671   4702238  
  4340.000000   4707669   4712983   4718079   4722869   4727081  
  4330.000000   4730394   4732336   4732479   4730448   4726119  
  4320.000000   4719622   4711409   4702127   4692550   4683370  
  4310.000000   4675146   4668159   4662494   4658024   4654555  
  4300.000000   4651860   4649767   4648166   4646993   4646237  
  4290.000000   4645862   4645875   4646231   4646941   4647970  
  4280.000000   4649325   4650974   4652886   4655007   4657269  
  4270.000000   4659617   4661976   4664288   4666436   4668282  
  4260.000000   4669599   4670141   4669629   4667866   4664741  
  4250.000000   4660324   4654811   4648550   4641916   4635312  
  4240.000000   4629023   4623273   4618113   4613535   4609417  
  4230.000000   4605636   4602036   4598495   4594913   4591222  
  4220.000000   4587408   4583472   4579487   4575520   4571704  
  4210.000000   4568130   4564928   4562148   4559852   4558015  
  4200.000000   4556620   4555588   4554869   4554380   4554091  
  4190.000000   4553943   4553944   4554056   4554302   4554645  
  4180.000000   4555110   4555655   4556313   4557058   4557958  
  4170.000000   4559026   4560367   4562024   4564105   4566637  
  4160.000000   4569694   4573258   4577358   4581937   4587008  
  4150.000000   4592509   4598462   4604812   4611596   4618770  
  4140.000000   4626384   4634398   4642869   4651752   4661094  
  4130.000000   4670837   4681013   4691559   4702518   4713856  
  4120.000000   4725648   4737901   4750711   4764093   4778120  
  4110.000000   4792772   4808071   4823953   4840391   4857290  
  4100.000000   4874598   4892209   4910064   4928077   4946205  
  4090.000000   4964395   4982620   5000854   5019069   5037252  
  4080.000000   5055371   5073432   5091407   5109317   5127112  
  4070.000000   5144790   5162246   5179432   5196205   5212518  
  4060.000000   5228246   5243395   5257882   5271756   5284958  
  4050.000000   5297564   5309533   5320972   5331852   5342276  
  4040.000000   5352175   5361589   5370376   5378523   5385876  
  4030.000000   5392454   5398162   5403077   5407158   5410492  
  4020.000000   5413022   5414845   5415971   5416515   5416458  
  4010.000000   5415947   5415045   5413754   5411836   5409321  
  4000.000000   5406495  
##END= 
