##TITLE= Sample 007 By ssteindl date Donnerstag, November 22 2018
##JCAMP-DX= 4.24
##DATA TYPE= INFRARED SPECTRUM
##ORIGIN= Exported PE Spectrum Data File
##OWNER= Sandra Steindl
##DATE= 18/11/22
##TIME= 10:15:37.00
##SPECTROMETER/DATA SYSTEM= PERKIN-ELMER Frontier FT-IR/NIR IR
##INSTRUMENT PARAMETERS=
  APODIZATION=stark
  DETECTOR=INGAAS
##RESOLUTION= 16.000000
##DELTAX= -2.000000
##XUNITS= 1/CM
##YUNITS= A
##XFACTOR= 1.00
##YFACTOR= 0.00000011920928955078
##FIRSTX= 10000.00
##LASTX= 4000.00
##NPOINTS= 3001
##FIRSTY= 0.265317
##MAXY= 0.628172
##MINY= 0.208197
##XYDATA= (X++(Y..Y))
 10000.000000   2225639   2224343   2223342   2222764   2222119  
  9990.000000   2220847   2218920   2216839   2215095   2213978  
  9980.000000   2213590   2213800   2214224   2214313   2213639  
  9970.000000   2211928   2209153   2205429   2201029   2196262  
  9960.000000   2191481   2187095   2183537   2181278   2180653  
  9950.000000   2181812   2184570   2188492   2192951   2197330  
  9940.000000   2201110   2203931   2205553   2205775   2204497  
  9930.000000   2201649   2197450   2192286   2186884   2181968  
  9920.000000   2178167   2175674   2174195   2173075   2171575  
  9910.000000   2169386   2166804   2164888   2164980   2168299  
  9900.000000   2175274   2185346   2197021   2208324   2217413  
  9890.000000   2223029   2224803   2223087   2218736   2212666  
  9880.000000   2205700   2198421   2191323   2184882   2179571  
  9870.000000   2175790   2173585   2172698   2172447   2172218  
  9860.000000   2171563   2170608   2169871   2170089   2171782  
  9850.000000   2174884   2178698   2181990   2183520   2182402  
  9840.000000   2178525   2172505   2165488   2158692   2153030  
  9830.000000   2148917   2146303   2144894   2144354   2144423  
  9820.000000   2144877   2145445   2145749   2145367   2143996  
  9810.000000   2141601   2138545   2135455   2133085   2131974  
  9800.000000   2132294   2133759   2135757   2137616   2138867  
  9790.000000   2139424   2139574   2139780   2140455   2141724  
  9780.000000   2143371   2144888   2145670   2145214   2143333  
  9770.000000   2140218   2136456   2132862   2130273   2129318  
  9760.000000   2130185   2132584   2135765   2138770   2140726  
  9750.000000   2141146   2140112   2138225   2136393   2135452  
  9740.000000   2135846   2137438   2139595   2141449   2142284  
  9730.000000   2141825   2140326   2138474   2137036   2136614  
  9720.000000   2137361   2139043   2141125   2143061   2144430  
  9710.000000   2145046   2144871   2143936   2142247   2139797  
  9700.000000   2136653   2133003   2129207   2125651   2122630  
  9690.000000   2120176   2118018   2115738   2112943   2109586  
  9680.000000   2106024   2103005   2101381   2101767   2104271  
  9670.000000   2108349   2112969   2116852   2118896   2118467  
  9660.000000   2115594   2110947   2105604   2100790   2097522  
  9650.000000   2096423   2097583   2100578   2104600   2108597  
  9640.000000   2111524   2112522   2111095   2107207   2101264  
  9630.000000   2094026   2086465   2079568   2074245   2071127  
  9620.000000   2070504   2072223   2075672   2079922   2083849  
  9610.000000   2086497   2087280   2086214   2083920   2081418  
  9600.000000   2079841   2079957   2081938   2085184   2088563  
  9590.000000   2090777   2090832   2088426   2083993   2078620  
  9580.000000   2073578   2070003   2068500   2069063   2071122  
  9570.000000   2073748   2075943   2076825   2075820   2072723  
  9560.000000   2067704   2061305   2054335   2047789   2042640  
  9550.000000   2039639   2039117   2040857   2044164   2048027  
  9540.000000   2051410   2053504   2053893   2052564   2049841  
  9530.000000   2046198   2042215   2038410   2035329   2033389  
  9520.000000   2032916   2033962   2036267   2039266   2042181  
  9510.000000   2044328   2045297   2045217   2044652   2044476  
  9500.000000   2045462   2048004   2051884   2056329   2060246  
  9490.000000   2062583   2062689   2060464   2056364   2051129  
  9480.000000   2045527   2040108   2035097   2030474   2026065  
  9470.000000   2021783   2017692   2014127   2011531   2010394  
  9460.000000   2010955   2013161   2016530   2020286   2023507  
  9450.000000   2025329   2025228   2023068   2019238   2014432  
  9440.000000   2009518   2005189   2001817   1999349   1997439  
  9430.000000   1995648   1993672   1991489   1989352   1987683  
  9420.000000   1986857   1987022   1988000   1989322   1990443  
  9410.000000   1990904   1990559   1989553   1988301   1987283  
  9400.000000   1986917   1987421   1988798   1990860   1993336  
  9390.000000   1995919   1998355   2000422   2001955   2002846  
  9380.000000   2003046   2002621   2001699   2000529   1999379  
  9370.000000   1998555   1998295   1998755   1999923   2001638  
  9360.000000   2003541   2005154   2005906   2005298   2003017  
  9350.000000   1999086   1993902   1988170   1982728   1978318  
  9340.000000   1975377   1973930   1973589   1973722   1973664  
  9330.000000   1972982   1971588   1969718   1967788   1966185  
  9320.000000   1965168   1964747   1964783   1964992   1965142  
  9310.000000   1965064   1964763   1964344   1963976   1963838  
  9300.000000   1964047   1964707   1965845   1967479   1969537  
  9290.000000   1971895   1974342   1976634   1978514   1979754  
  9280.000000   1980156   1979556   1977848   1974991   1971068  
  9270.000000   1966270   1960946   1955542   1950565   1946461  
  9260.000000   1943505   1941754   1941026   1941021   1941390  
  9250.000000   1941895   1942440   1943110   1944082   1945517  
  9240.000000   1947464   1949806   1952307   1954647   1956527  
  9230.000000   1957712   1958093   1957679   1956570   1954913  
  9220.000000   1952860   1950561   1948139   1945696   1943304  
  9210.000000   1941004   1938813   1936729   1934725   1932759  
  9200.000000   1930788   1928810   1926878   1925109   1923661  
  9190.000000   1922712   1922417   1922872   1924062   1925847  
  9180.000000   1927988   1930193   1932200   1933801   1934896  
  9170.000000   1935432   1935434   1934906   1933878   1932350  
  9160.000000   1930364   1928030   1925534   1923139   1921098  
  9150.000000   1919657   1918977   1919151   1920143   1921821  
  9140.000000   1923931   1926142   1928044   1929219   1929331  
  9130.000000   1928245   1926126   1923398   1920676   1918563  
  9120.000000   1917491   1917536   1918385   1919449   1920077  
  9110.000000   1919784   1918383   1916087   1913405   1910980  
  9100.000000   1909322   1908699   1909071   1910145   1911476  
  9090.000000   1912601   1913180   1913014   1912078   1910468  
  9080.000000   1908396   1906120   1903906   1901958   1900403  
  9070.000000   1899260   1898473   1897945   1897617   1897507  
  9060.000000   1897703   1898313   1899358   1900738   1902212  
  9050.000000   1903472   1904252   1904437   1904144   1903666  
  9040.000000   1903365   1903505   1904142   1905078   1905933  
  9030.000000   1906303   1905916   1904739   1902976   1900986  
  9020.000000   1899153   1897761   1896904   1896514   1896395  
  9010.000000   1896337   1896148   1895748   1895133   1894414  
  9000.000000   1893750   1893339   1893343   1893825   1894699  
  8990.000000   1895683   1896376   1896312   1895138   1892727  
  8980.000000   1889263   1885218   1881215   1877885   1875686  
  8970.000000   1874808   1875154   1876414   1878199   1880096  
  8960.000000   1881751   1882853   1883191   1882616   1881119  
  8950.000000   1878853   1876201   1873695   1871901   1871275  
  8940.000000   1872028   1874066   1876991   1880279   1883418  
  8930.000000   1886055   1887999   1889213   1889730   1889574  
  8920.000000   1888736   1887195   1885046   1882496   1879896  
  8910.000000   1877612   1875930   1874942   1874495   1874288  
  8900.000000   1873968   1873327   1872366   1871323   1870571  
  8890.000000   1870459   1871174   1872653   1874614   1876629  
  8880.000000   1878296   1879326   1879664   1879441   1878943  
  8870.000000   1878472   1878275   1878460   1878983   1879697  
  8860.000000   1880389   1880905   1881164   1881235   1881269  
  8850.000000   1881489   1882068   1883072   1884399   1885774  
  8840.000000   1886832   1887176   1886516   1884726   1881916  
  8830.000000   1878406   1874676   1871265   1868672   1867273  
  8820.000000   1867232   1868486   1870723   1873478   1876211  
  8810.000000   1878457   1879921   1880550   1880526   1880173  
  8800.000000   1879844   1879774   1880032   1880489   1880918  
  8790.000000   1881076   1880848   1880254   1879460   1878665  
  8780.000000   1878015   1877535   1877120   1876609   1875871  
  8770.000000   1874919   1873933   1873243   1873215   1874139  
  8760.000000   1876111   1878989   1882410   1885871   1888866  
  8750.000000   1890990   1892046   1892052   1891231   1889937  
  8740.000000   1888557   1887437   1886804   1886749   1887232  
  8730.000000   1888106   1889169   1890187   1890930   1891193  
  8720.000000   1890817   1889727   1887961   1885711   1883315  
  8710.000000   1881225   1879903   1879727   1880851   1883178  
  8700.000000   1886339   1889816   1893063   1895640   1897304  
  8690.000000   1898011   1897897   1897147   1895961   1894466  
  8680.000000   1892776   1890992   1889265   1887790   1886772  
  8670.000000   1886392   1886720   1887729   1889250   1891069  
  8660.000000   1892942   1894667   1896092   1897114   1897700  
  8650.000000   1897842   1897610   1897091   1896443   1895807  
  8640.000000   1895328   1895066   1895017   1895104   1895233  
  8630.000000   1895356   1895487   1895745   1896301   1897335  
  8620.000000   1898959   1901182   1903893   1906872   1909835  
  8610.000000   1912479   1914556   1915900   1916478   1916387  
  8600.000000   1915860   1915199   1914708   1914605   1914956  
  8590.000000   1915674   1916549   1917364   1917964   1918354  
  8580.000000   1918661   1919099   1919834   1920916   1922229  
  8570.000000   1923543   1924622   1925317   1925645   1925752  
  8560.000000   1925851   1926093   1926499   1926943   1927229  
  8550.000000   1927199   1926816   1926219   1925664   1925438  
  8540.000000   1925726   1926575   1927874   1929430   1931029  
  8530.000000   1932506   1933770   1934757   1935416   1935674  
  8520.000000   1935474   1934811   1933772   1932554   1931427  
  8510.000000   1930660   1930437   1930812   1931712   1932979  
  8500.000000   1934424   1935878   1937215   1938325   1939108  
  8490.000000   1939464   1939361   1938858   1938163   1937582  
  8480.000000   1937478   1938122   1939608   1941790   1944336  
  8470.000000   1946846   1948988   1950619   1951801   1952770  
  8460.000000   1953800   1955105   1956759   1958687   1960730  
  8450.000000   1962697   1964435   1965836   1966817   1967323  
  8440.000000   1967298   1966757   1965797   1964643   1963597  
  8430.000000   1962970   1962957   1963559   1964539   1965508  
  8420.000000   1966035   1965831   1964836   1963264   1961508  
  8410.000000   1960029   1959193   1959165   1959873   1961061  
  8400.000000   1962394   1963555   1964313   1964560   1964311  
  8390.000000   1963662   1962748   1961706   1960675   1959765  
  8380.000000   1959066   1958613   1958413   1958422   1958559  
  8370.000000   1958737   1958868   1958912   1958871   1958811  
  8360.000000   1958823   1959021   1959478   1960222   1961177  
  8350.000000   1962207   1963108   1963703   1963870   1963600  
  8340.000000   1962985   1962169   1961284   1960363   1959322  
  8330.000000   1957960   1956047   1953437   1950175   1946533  
  8320.000000   1942952   1939950   1937955   1937220   1937721  
  8310.000000   1939211   1941278   1943482   1945455   1946938  
  8300.000000   1947815   1948045   1947672   1946758   1945412  
  8290.000000   1943761   1941984   1940271   1938811   1937756  
  8280.000000   1937187   1937115   1937461   1938109   1938881  
  8270.000000   1939601   1940065   1940102   1939588   1938507  
  8260.000000   1936966   1935183   1933440   1932002   1931034  
  8250.000000   1930537   1930335   1930139   1929639   1928628  
  8240.000000   1927056   1925058   1922880   1920809   1919070  
  8230.000000   1917788   1916956   1916480   1916214   1916013  
  8220.000000   1915756   1915346   1914712   1913802   1912592  
  8210.000000   1911094   1909364   1907486   1905559   1903666  
  8200.000000   1901867   1900198   1898682   1897361   1896286  
  8190.000000   1895526   1895107   1895005   1895098   1895204  
  8180.000000   1895114   1894662   1893771   1892474   1890890  
  8170.000000   1889170   1887448   1885788   1884196   1882626  
  8160.000000   1881038   1879412   1877771   1876160   1874614  
  8150.000000   1873151   1871749   1870387   1869058   1867798  
  8140.000000   1866681   1865790   1865176   1864812   1864598  
  8130.000000   1864366   1863940   1863187   1862059   1860603  
  8120.000000   1858949   1857259   1855690   1854351   1853287  
  8110.000000   1852483   1851880   1851384   1850903   1850335  
  8100.000000   1849599   1848629   1847399   1845931   1844300  
  8090.000000   1842642   1841125   1839934   1839215   1839053  
  8080.000000   1839431   1840232   1841245   1842206   1842848  
  8070.000000   1842945   1842368   1841090   1839204   1836884  
  8060.000000   1834367   1831889   1829667   1827845   1826491  
  8050.000000   1825584   1825029   1824683   1824381   1823986  
  8040.000000   1823405   1822628   1821718   1820798   1820016  
  8030.000000   1819494   1819297   1819396   1819689   1820014  
  8020.000000   1820205   1820130   1819724   1818997   1818022  
  8010.000000   1816907   1815767   1814698   1813767   1813001  
  8000.000000   1812399   1811922   1811505   1811064   1810505  
  7990.000000   1809757   1808779   1807600   1806310   1805058  
  7980.000000   1804009   1803305   1803023   1803142   1803552  
  7970.000000   1804069   1804487   1804621   1804351   1803645  
  7960.000000   1802558   1801217   1799795   1798465   1797376  
  7950.000000   1796612   1796193   1796052   1796069   1796081  
  7940.000000   1795932   1795503   1794749   1793716   1792535  
  7930.000000   1791395   1790500   1790031   1790089   1790685  
  7920.000000   1791727   1793040   1794412   1795626   1796515  
  7910.000000   1796973   1796978   1796564   1795817   1794836  
  7900.000000   1793731   1792599   1791541   1790646   1789998  
  7890.000000   1789656   1789634   1789902   1790365   1790906  
  7880.000000   1791395   1791748   1791938   1792016   1792077  
  7870.000000   1792229   1792549   1793037   1793625   1794180  
  7860.000000   1794553   1794616   1794295   1793586   1792548  
  7850.000000   1791290   1789940   1788639   1787511   1786663  
  7840.000000   1786156   1786005   1786159   1786512   1786921  
  7830.000000   1787238   1787347   1787198   1786811   1786272  
  7820.000000   1785696   1785190   1784834   1784652   1784636  
  7810.000000   1784746   1784931   1785138   1785310   1785388  
  7800.000000   1785314   1785051   1784592   1783984   1783317  
  7790.000000   1782711   1782265   1782033   1781984   1782027  
  7780.000000   1782026   1781856   1781444   1780784   1779927  
  7770.000000   1778947   1777903   1776816   1775674   1774454  
  7760.000000   1773158   1771838   1770594   1769552   1768821  
  7750.000000   1768461   1768453   1768714   1769117   1769526  
  7740.000000   1769827   1769944   1769844   1769531   1769048  
  7730.000000   1768458   1767852   1767316   1766923   1766692  
  7720.000000   1766581   1766489   1766278   1765836   1765112  
  7710.000000   1764160   1763113   1762155   1761441   1761043  
  7700.000000   1760917   1760908   1760806   1760413   1759609  
  7690.000000   1758389   1756860   1755205   1753629   1752309  
  7680.000000   1751352   1750790   1750587   1750651   1750872  
  7670.000000   1751119   1751281   1751266   1751033   1750588  
  7660.000000   1749996   1749355   1748778   1748356   1748147  
  7650.000000   1748156   1748360   1748713   1749174   1749706  
  7640.000000   1750277   1750844   1751344   1751703   1751848  
  7630.000000   1751731   1751359   1750795   1750145   1749529  
  7620.000000   1749044   1748741   1748612   1748613   1748682  
  7610.000000   1748773   1748861   1748952   1749054   1749166  
  7600.000000   1749261   1749286   1749186   1748915   1748472  
  7590.000000   1747904   1747306   1746798   1746498   1746484  
  7580.000000   1746771   1747306   1747976   1748636   1749145  
  7570.000000   1749396   1749349   1749034   1748542   1747998  
  7560.000000   1747522   1747207   1747102   1747216   1747532  
  7550.000000   1748017   1748632   1749319   1750011   1750610  
  7540.000000   1751011   1751110   1750850   1750237   1749374  
  7530.000000   1748433   1747634   1747180   1747210   1747769  
  7520.000000   1748800   1750167   1751692   1753196   1754537  
  7510.000000   1755630   1756454   1757041   1757472   1757848  
  7500.000000   1758282   1758862   1759637   1760596   1761679  
  7490.000000   1762793   1763845   1764777   1765582   1766304  
  7480.000000   1767014   1767771   1768594   1769444   1770250  
  7470.000000   1770930   1771446   1771812   1772115   1772467  
  7460.000000   1772983   1773729   1774716   1775891   1777179  
  7450.000000   1778497   1779799   1781065   1782307   1783538  
  7440.000000   1784772   1786010   1787251   1788490   1789745  
  7430.000000   1791034   1792387   1793812   1795302   1796822  
  7420.000000   1798326   1799769   1801123   1802391   1803605  
  7410.000000   1804823   1806109   1807519   1809083   1810791  
  7400.000000   1812590   1814393   1816102   1817625   1818919  
  7390.000000   1819992   1820918   1821806   1822768   1823891  
  7380.000000   1825202   1826682   1828268   1829903   1831549  
  7370.000000   1833206   1834894   1836620   1838360   1840042  
  7360.000000   1841566   1842838   1843818   1844533   1845087  
  7350.000000   1845623   1846282   1847155   1848262   1849563  
  7340.000000   1850986   1852472   1853991   1855546   1857145  
  7330.000000   1858781   1860408   1861952   1863336   1864516  
  7320.000000   1865509   1866393   1867287   1868307   1869538  
  7310.000000   1870990   1872607   1874269   1875838   1877192  
  7300.000000   1878254   1879019   1879551   1879989   1880504  
  7290.000000   1881282   1882468   1884128   1886218   1888589  
  7280.000000   1891020   1893261   1895096   1896396   1897154  
  7270.000000   1897473   1897534   1897534   1897652   1898004  
  7260.000000   1898644   1899565   1900730   1902083   1903564  
  7250.000000   1905108   1906657   1908155   1909572   1910896  
  7240.000000   1912161   1913412   1914720   1916125   1917670  
  7230.000000   1919348   1921160   1923089   1925143   1927324  
  7220.000000   1929648   1932104   1934682   1937343   1940064  
  7210.000000   1942823   1945638   1948531   1951539   1954671  
  7200.000000   1957918   1961236   1964582   1967917   1971238  
  7190.000000   1974559   1977919   1981334   1984804   1988284  
  7180.000000   1991723   1995062   1998280   2001375   2004389  
  7170.000000   2007356   2010315   2013280   2016272   2019303  
  7160.000000   2022423   2025687   2029171   2032922   2036960  
  7150.000000   2041246   2045716   2050275   2054851   2059388  
  7140.000000   2063888   2068359   2072845   2077359   2081925  
  7130.000000   2086536   2091213   2095961   2100820   2105804  
  7120.000000   2110932   2116183   2121534   2126942   2132391  
  7110.000000   2137875   2143421   2149048   2154782   2160609  
  7100.000000   2166507   2172426   2178338   2184214   2190062  
  7090.000000   2195888   2201711   2207531   2213348   2219162  
  7080.000000   2224991   2230875   2236871   2243033   2249389  
  7070.000000   2255914   2262537   2269146   2275620   2281857  
  7060.000000   2287801   2293446   2298835   2304041   2309159  
  7050.000000   2314288   2319515   2324910   2330507   2336310  
  7040.000000   2342271   2348318   2354356   2360298   2366072  
  7030.000000   2371648   2377024   2382232   2387313   2392314  
  7020.000000   2397272   2402221   2407178   2412158   2417152  
  7010.000000   2422142   2427081   2431928   2436631   2441175  
  7000.000000   2445561   2449834   2454036   2458219   2462395  
  6990.000000   2466563   2470688   2474745   2478709   2482585  
  6980.000000   2486378   2490097   2493722   2497217   2500524  
  6970.000000   2503609   2506459   2509126   2511687   2514256  
  6960.000000   2516920   2519739   2522705   2525774   2528850  
  6950.000000   2531841   2534651   2537223   2539519   2541551  
  6940.000000   2543353   2545004   2546586   2548188   2549865  
  6930.000000   2551635   2553453   2555244   2556915   2558411  
  6920.000000   2559716   2560894   2562041   2563275   2564670  
  6910.000000   2566247   2567953   2569690   2571346   2572834  
  6900.000000   2574116   2575217   2576199   2577150   2578145  
  6890.000000   2579241   2580451   2581757   2583108   2584442  
  6880.000000   2585692   2586812   2587773   2588586   2589282  
  6870.000000   2589921   2590554   2591226   2591952   2592727  
  6860.000000   2593531   2594347   2595162   2595976   2596786  
  6850.000000   2597585   2598347   2599046   2599657   2600186  
  6840.000000   2600669   2601179   2601788   2602555   2603487  
  6830.000000   2604543   2605633   2606659   2607532   2608206  
  6820.000000   2608669   2608943   2609057   2609041   2608916  
  6810.000000   2608706   2608445   2608191   2608006   2607955  
  6800.000000   2608069   2608345   2608733   2609164   2609555  
  6790.000000   2609849   2610015   2610054   2609986   2609843  
  6780.000000   2609655   2609451   2609257   2609108   2609032  
  6770.000000   2609054   2609178   2609383   2609625   2609841  
  6760.000000   2609971   2609966   2609804   2609488   2609046  
  6750.000000   2608520   2607964   2607433   2606985   2606666  
  6740.000000   2606514   2606545   2606755   2607118   2607592  
  6730.000000   2608125   2608669   2609183   2609637   2610015  
  6720.000000   2610316   2610553   2610754   2610955   2611193  
  6710.000000   2611492   2611847   2612224   2612558   2612779  
  6700.000000   2612824   2612674   2612345   2611898   2611402  
  6690.000000   2610926   2610498   2610120   2609759   2609385  
  6680.000000   2608970   2608522   2608055   2607601   2607173  
  6670.000000   2606776   2606382   2605967   2605494   2604946  
  6660.000000   2604309   2603580   2602754   2601826   2600792  
  6650.000000   2599657   2598435   2597155   2595840   2594513  
  6640.000000   2593173   2591812   2590411   2588968   2587492  
  6630.000000   2586024   2584609   2583291   2582087   2580987  
  6620.000000   2579948   2578912   2577822   2576635   2575328  
  6610.000000   2573902   2572370   2570753   2569081   2567386  
  6600.000000   2565706   2564084   2562549   2561124   2559803  
  6590.000000   2558565   2557366   2556162   2554909   2553580  
  6580.000000   2552159   2550647   2549054   2547398   2545707  
  6570.000000   2544008   2542332   2540699   2539116   2537571  
  6560.000000   2536036   2534483   2532890   2531259   2529613  
  6550.000000   2527990   2526425   2524937   2523516   2522128  
  6540.000000   2520733   2519294   2517799   2516261   2514712  
  6530.000000   2513188   2511722   2510329   2509007   2507743  
  6520.000000   2506519   2505314   2504106   2502872   2501593  
  6510.000000   2500259   2498869   2497441   2496005   2494593  
  6500.000000   2493231   2491929   2490679   2489463   2488262  
  6490.000000   2487068   2485874   2484679   2483467   2482209  
  6480.000000   2480866   2479407   2477826   2476156   2474463  
  6470.000000   2472823   2471296   2469901   2468609   2467359  
  6460.000000   2466086   2464760   2463391   2462034   2460752  
  6450.000000   2459592   2458556   2457596   2456645   2455633  
  6440.000000   2454531   2453350   2452140   2450956   2449845  
  6430.000000   2448809   2447830   2446863   2445883   2444879  
  6420.000000   2443879   2442918   2442041   2441269   2440608  
  6410.000000   2440041   2439546   2439102   2438698   2438324  
  6400.000000   2437980   2437659   2437357   2437069   2436793  
  6390.000000   2436525   2436261   2435986   2435684   2435335  
  6380.000000   2434930   2434477   2434001   2433539   2433121  
  6370.000000   2432763   2432451   2432155   2431836   2431469  
  6360.000000   2431050   2430596   2430132   2429677   2429230  
  6350.000000   2428775   2428286   2427751   2427173   2426580  
  6340.000000   2426001   2425460   2424951   2424451   2423917  
  6330.000000   2423315   2422628   2421871   2421069   2420257  
  6320.000000   2419448   2418642   2417811   2416932   2415982  
  6310.000000   2414961   2413879   2412758   2411612   2410455  
  6300.000000   2409291   2408132   2406987   2405875   2404799  
  6290.000000   2403748   2402686   2401569   2400350   2399013  
  6280.000000   2397568   2396065   2394562   2393111   2391732  
  6270.000000   2390409   2389097   2387750   2386332   2384840  
  6260.000000   2383297   2381739   2380197   2378688   2377211  
  6250.000000   2375758   2374323   2372906   2371509   2370132  
  6240.000000   2368760   2367366   2365916   2364392   2362794  
  6230.000000   2361151   2359503   2357887   2356324   2354801  
  6220.000000   2353291   2351759   2350188   2348586   2346987  
  6210.000000   2345438   2343979   2342629   2341387   2340229  
  6200.000000   2339131   2338070   2337036   2336023   2335029  
  6190.000000   2334045   2333062   2332073   2331080   2330096  
  6180.000000   2329138   2328221   2327349   2326511   2325685  
  6170.000000   2324851   2324000   2323133   2322263   2321402  
  6160.000000   2320551   2319699   2318824   2317910   2316955  
  6150.000000   2315973   2314997   2314057   2313169   2312327  
  6140.000000   2311507   2310675   2309806   2308894   2307955  
  6130.000000   2307016   2306108   2305246   2304434   2303658  
  6120.000000   2302907   2302168   2301446   2300745   2300079  
  6110.000000   2299452   2298870   2298329   2297837   2297398  
  6100.000000   2297028   2296737   2296536   2296418   2296376  
  6090.000000   2296388   2296442   2296522   2296624   2296735  
  6080.000000   2296856   2296970   2297081   2297183   2297301  
  6070.000000   2297455   2297685   2298008   2298444   2298978  
  6060.000000   2299602   2300289   2301037   2301847   2302748  
  6050.000000   2303759   2304905   2306181   2307580   2309066  
  6040.000000   2310623   2312225   2313882   2315598   2317398  
  6030.000000   2319289   2321286   2323377   2325561   2327819  
  6020.000000   2330146   2332520   2334930   2337347   2339754  
  6010.000000   2342122   2344453   2346749   2349046   2351375  
  6000.000000   2353785   2356301   2358949   2361724   2364619  
  5990.000000   2367605   2370667   2373777   2376928   2380108  
  5980.000000   2383326   2386589   2389919   2393328   2396836  
  5970.000000   2400438   2404132   2407888   2411686   2415496  
  5960.000000   2419309   2423115   2426927   2430748   2434592  
  5950.000000   2438455   2442343   2446254   2450203   2454210  
  5940.000000   2458304   2462516   2466861   2471344   2475944  
  5930.000000   2480630   2485351   2490061   2494704   2499231  
  5920.000000   2503592   2507745   2511653   2515297   2518672  
  5910.000000   2521799   2524705   2527432   2530014   2532497  
  5900.000000   2534909   2537297   2539694   2542155   2544707  
  5890.000000   2547388   2550186   2553088   2556039   2558987  
  5880.000000   2561869   2564640   2567258   2569698   2571945  
  5870.000000   2573993   2575850   2577540   2579106   2580605  
  5860.000000   2582098   2583637   2585255   2586963   2588759  
  5850.000000   2590638   2592601   2594662   2596844   2599164  
  5840.000000   2601627   2604213   2606886   2609598   2612310  
  5830.000000   2614993   2617643   2620262   2622866   2625460  
  5820.000000   2628054   2630649   2633254   2635876   2638527  
  5810.000000   2641210   2643912   2646612   2649270   2651869  
  5800.000000   2654387   2656857   2659299   2661777   2664296  
  5790.000000   2666868   2669421   2671883   2674114   2676002  
  5780.000000   2677406   2678245   2678437   2677965   2676833  
  5770.000000   2675113   2672893   2670319   2667521   2664655  
  5760.000000   2661822   2659120   2656586   2654261   2652139  
  5750.000000   2650235   2648529   2647006   2645625   2644340  
  5740.000000   2643095   2641846   2640570   2639258   2637930  
  5730.000000   2636597   2635282   2633981   2632694   2631409  
  5720.000000   2630128   2628856   2627610   2626401   2625239  
  5710.000000   2624114   2623020   2621947   2620900   2619893  
  5700.000000   2618949   2618084   2617295   2616566   2615863  
  5690.000000   2615159   2614434   2613701   2612974   2612285  
  5680.000000   2611641   2611038   2610434   2609784   2609022  
  5670.000000   2608100   2606965   2605586   2603931   2601987  
  5660.000000   2599752   2597256   2594551   2591722   2588855  
  5650.000000   2586037   2583319   2580726   2578250   2575871  
  5640.000000   2573568   2571338   2569186   2567127   2565171  
  5630.000000   2563315   2561550   2559860   2558243   2556699  
  5620.000000   2555247   2553892   2552640   2551465   2550341  
  5610.000000   2549229   2548110   2546972   2545834   2544716  
  5600.000000   2543645   2542631   2541680   2540781   2539931  
  5590.000000   2539128   2538378   2537681   2537033   2536416  
  5580.000000   2535802   2535162   2534477   2533743   2532972  
  5570.000000   2532184   2531396   2530616   2529840   2529057  
  5560.000000   2528252   2527418   2526551   2525652   2524718  
  5550.000000   2523747   2522731   2521671   2520574   2519463  
  5540.000000   2518361   2517292   2516268   2515287   2514332  
  5530.000000   2513388   2512442   2511495   2510553   2509630  
  5520.000000   2508729   2507850   2506979   2506100   2505194  
  5510.000000   2504252   2503264   2502224   2501124   2499962  
  5500.000000   2498738   2497469   2496181   2494911   2493683  
  5490.000000   2492508   2491363   2490206   2488985   2487665  
  5480.000000   2486231   2484704   2483120   2481526   2479947  
  5470.000000   2478394   2476854   2475311   2473753   2472182  
  5460.000000   2470606   2469034   2467457   2465858   2464207  
  5450.000000   2462485   2460691   2458848   2456996   2455175  
  5440.000000   2453414   2451718   2450080   2448486   2446939  
  5430.000000   2445447   2444033   2442702   2441451   2440245  
  5420.000000   2439060   2437868   2436685   2435547   2434523  
  5410.000000   2433660   2432995   2432502   2432150   2431874  
  5400.000000   2431651   2431458   2431326   2431270   2431328  
  5390.000000   2431492   2431764   2432118   2432570   2433130  
  5380.000000   2433857   2434784   2435961   2437375   2439021  
  5370.000000   2440840   2442817   2444906   2447130   2449469  
  5360.000000   2451962   2454585   2457382   2460339   2463537  
  5350.000000   2467003   2470857   2475126   2479896   2485125  
  5340.000000   2490831   2496927   2503441   2510320   2517642  
  5330.000000   2525380   2533616   2542294   2551463   2561052  
  5320.000000   2571136   2581692   2592864   2604666   2617256  
  5310.000000   2630612   2644828   2659814   2675618   2692143  
  5300.000000   2709463   2727530   2746469   2766272   2787067  
  5290.000000   2808814   2831566   2855191   2879630   2904687  
  5280.000000   2930295   2956328   2982838   3009845   3037492  
  5270.000000   3065824   3094877   3124529   3154598   3184838  
  5260.000000   3215039   3245087   3274959   3304735   3334466  
  5250.000000   3364185   3393763   3423039   3451717   3479627  
  5240.000000   3506579   3532624   3557784   3582270   3606148  
  5230.000000   3629571   3652465   3674825   3696445   3717273  
  5220.000000   3737143   3756120   3774174   3791491   3808103  
  5210.000000   3824180   3839667   3854601   3868803   3882245  
  5200.000000   3894762   3906422   3917192   3927247   3936605  
  5190.000000   3945414   3953615   3961256   3968214   3974520  
  5180.000000   3980089   3985011   3989254   3992923   3995975  
  5170.000000   3998475   4000361   4001701   4002464   4002755  
  5160.000000   4002572   4002006   4001021   3999657   3997848  
  5150.000000   3995630   3992968   3989936   3986538   3982852  
  5140.000000   3978866   3974624   3970098   3965327   3960305  
  5130.000000   3955095   3949713   3944214   3938596   3932885  
  5120.000000   3927059   3921139   3915122   3909044   3902917  
  5110.000000   3896770   3890596   3884403   3878179   3871939  
  5100.000000   3865698   3859495   3853358   3847311   3841348  
  5090.000000   3835454   3829594   3823744   3817883   3812013  
  5080.000000   3806137   3800267   3794402   3788540   3782666  
  5070.000000   3776775   3770859   3764923   3758963   3752980  
  5060.000000   3746954   3740874   3734713   3728468   3722133  
  5050.000000   3715724   3709250   3702722   3696132   3689469  
  5040.000000   3682711   3675854   3668901   3661884   3654840  
  5030.000000   3647819   3640857   3633979   3627192   3620489  
  5020.000000   3613857   3607279   3600748   3594253   3587801  
  5010.000000   3581393   3575049   3568781   3562623   3556590  
  5000.000000   3550716   3545003   3539472   3534101   3528903  
  4990.000000   3523853   3518976   3514262   3509753   3505447  
  4980.000000   3501384   3497550   3493978   3490642   3487579  
  4970.000000   3484773   3482273   3480069   3478213   3476683  
  4960.000000   3475517   3474679   3474198   3474038   3474235  
  4950.000000   3474757   3475650   3476882   3478498   3480463  
  4940.000000   3482824   3485545   3488672   3492164   3496061  
  4930.000000   3500315   3504956   3509936   3515293   3520994  
  4920.000000   3527086   3533544   3540407   3547640   3555262  
  4910.000000   3563225   3571532   3580137   3589035   3598184  
  4900.000000   3607566   3617134   3626852   3636671   3646547  
  4890.000000   3656443   3666309   3676114   3685792   3695306  
  4880.000000   3704566   3713534   3722113   3730276   3737926  
  4870.000000   3745044   3751530   3757370   3762476   3766864  
  4860.000000   3770491   3773426   3775671   3777329   3778414  
  4850.000000   3779021   3779151   3778883   3778220   3777241  
  4840.000000   3775966   3774481   3772819   3771055   3769220  
  4830.000000   3767375   3765546   3763782   3762108   3760554  
  4820.000000   3759133   3757850   3756702   3755681   3754787  
  4810.000000   3754016   3753385   3752894   3752564   3752385  
  4800.000000   3752365   3752483   3752742   3753127   3753648  
  4790.000000   3754299   3755091   3756013   3757064   3758220  
  4780.000000   3759473   3760799   3762197   3763651   3765165  
  4770.000000   3766726   3768330   3769958   3771601   3773242  
  4760.000000   3774876   3776492   3778091   3779668   3781223  
  4750.000000   3782752   3784257   3785742   3787214   3788682  
  4740.000000   3790156   3791643   3793145   3794658   3796179  
  4730.000000   3797698   3799211   3800706   3802185   3803640  
  4720.000000   3805079   3806505   3807943   3809407   3810934  
  4710.000000   3812540   3814258   3816093   3818063   3820164  
  4700.000000   3822413   3824813   3827389   3830154   3833138  
  4690.000000   3836348   3839798   3843475   3847372   3851449  
  4680.000000   3855672   3859975   3864306   3868585   3872767  
  4670.000000   3876794   3880666   3884387   3888012   3891594  
  4660.000000   3895214   3898931   3902809   3906884   3911189  
  4650.000000   3915737   3920532   3925565   3930806   3936215  
  4640.000000   3941731   3947298   3952854   3958364   3963793  
  4630.000000   3969136   3974374   3979499   3984468   3989244  
  4620.000000   3993752   3997945   4001752   4005154   4008116  
  4610.000000   4010665   4012806   4014602   4016081   4017321  
  4600.000000   4018350   4019242   4020002   4020678   4021244  
  4590.000000   4021714   4022034   4022196   4022137   4021845  
  4580.000000   4021267   4020402   4019221   4017749   4015990  
  4570.000000   4013999   4011812   4009496   4007084   4004626  
  4560.000000   4002126   3999598   3997022   3994397   3991706  
  4550.000000   3988961   3986163   3983335   3980485   3977632  
  4540.000000   3974777   3971928   3969088   3966263   3963459  
  4530.000000   3960681   3957933   3955203   3952493   3949780  
  4520.000000   3947070   3944344   3941630   3938918   3936257  
  4510.000000   3933651   3931177   3928857   3926802   3925056  
  4500.000000   3923746   3922909   3922653   3922971   3923939  
  4490.000000   3925514   3927761   3930641   3934237   3938523  
  4480.000000   3943591   3949401   3956027   3963403   3971580  
  4470.000000   3980482   3990148   4000495   4011544   4023193  
  4460.000000   4035436   4048154   4061327   4074846   4088700  
  4450.000000   4102812   4117182   4131755   4146530   4161463  
  4440.000000   4176540   4191729   4207008   4222353   4237728  
  4430.000000   4253110   4268435   4283671   4298732   4313584  
  4420.000000   4328132   4342350   4356143   4369491   4382293  
  4410.000000   4394519   4406063   4416897   4426933   4436183  
  4400.000000   4444619   4452323   4459341   4465817   4471845  
  4390.000000   4477593   4483156   4488683   4494234   4499903  
  4380.000000   4505694   4511638   4517693   4523853   4530073  
  4370.000000   4536348   4542656   4549008   4555395   4561821  
  4360.000000   4568268   4574733   4581178   4587611   4593970  
  4350.000000   4600271   4606415   4612418   4618172   4623722  
  4340.000000   4629002   4634088   4638900   4643392   4647275  
  4330.000000   4650197   4651601   4650962   4647800   4641922  
  4320.000000   4633436   4622847   4610908   4598544   4586609  
  4310.000000   4575805   4566524   4558916   4552876   4548196  
  4300.000000   4544623   4541937   4539993   4538680   4537961  
  4290.000000   4537768   4538097   4538883   4540140   4541820  
  4280.000000   4543932   4546425   4549257   4552349   4555615  
  4270.000000   4558981   4562362   4565689   4568833   4571626  
  4260.000000   4573798   4575042   4575017   4573473   4570271  
  4250.000000   4565495   4559389   4552386   4544949   4537571  
  4240.000000   4530603   4524306   4518741   4513891   4509615  
  4230.000000   4505771   4502191   4498744   4495329   4491873  
  4220.000000   4488359   4484778   4481198   4477672   4474335  
  4210.000000   4471270   4468610   4466408   4464730   4463556  
  4200.000000   4462878   4462619   4462731   4463126   4463761  
  4190.000000   4464561   4465511   4466555   4467705   4468923  
  4180.000000   4470235   4471608   4473072   4474596   4476220  
  4170.000000   4477929   4479783   4481798   4484058   4486593  
  4160.000000   4489488   4492758   4496466   4500597   4505193  
  4150.000000   4510220   4515710   4521623   4527991   4534768  
  4140.000000   4541989   4549605   4557656   4566094   4574962  
  4130.000000   4584211   4593882   4603926   4614384   4625218  
  4120.000000   4636483   4648168   4660348   4673034   4686307  
  4110.000000   4700172   4714673   4729767   4745427   4761541  
  4100.000000   4778019   4794721   4811553   4828418   4845280  
  4090.000000   4862120   4878952   4895799   4912669   4929575  
  4080.000000   4946491   4963416   4980295   4997121   5013812  
  4070.000000   5030335   5046566   5062445   5077828   5092674  
  4060.000000   5106872   5120435   5133292   5145489   5156969  
  4050.000000   5167800   5177946   5187512   5196492   5205012  
  4040.000000   5213047   5220676   5227812   5234481   5240571  
  4030.000000   5246117   5251038   5255395   5259138   5262319  
  4020.000000   5264864   5266833   5268224   5269119   5269492  
  4010.000000   5269462   5269087   5268348   5267006   5265076  
  4000.000000   5262845  
##END= 
