##TITLE= Sample 021 By ssteindl date Donnerstag, November 22 2018
##JCAMP-DX= 4.24
##DATA TYPE= INFRARED SPECTRUM
##ORIGIN= Exported PE Spectrum Data File
##OWNER= Sandra Steindl
##DATE= 18/11/22
##TIME= 10:47:22.00
##SPECTROMETER/DATA SYSTEM= PERKIN-ELMER Frontier FT-IR/NIR IR
##INSTRUMENT PARAMETERS=
  APODIZATION=stark
  DETECTOR=INGAAS
##RESOLUTION= 16.000000
##DELTAX= -2.000000
##XUNITS= 1/CM
##YUNITS= A
##XFACTOR= 1.00
##YFACTOR= 0.00000011920928955078
##FIRSTX= 10000.00
##LASTX= 4000.00
##NPOINTS= 3001
##FIRSTY= 0.242557
##MAXY= 0.688016
##MINY= 0.197874
##XYDATA= (X++(Y..Y))
 10000.000000   2034718   2034529   2034710   2035572   2036712  
  9990.000000   2037495   2037669   2037603   2037853   2038941  
  9980.000000   2041145   2044272   2047616   2050108   2050826  
  9970.000000   2049202   2045225   2039340   2032263   2024769  
  9960.000000   2017529   2011189   2006370   2003801   2004094  
  9950.000000   2007570   2013881   2021947   2030069   2036397  
  9940.000000   2039489   2038731   2034558   2028182   2021230  
  9930.000000   2015105   2010672   2008076   2006923   2006609  
  9920.000000   2006599   2006648   2006716   2006883   2007130  
  9910.000000   2007336   2007274   2006740   2005635   2003944  
  9900.000000   2001792   1999286   1996632   1994046   1991842  
  9890.000000   1990376   1989899   1990488   1991867   1993530  
  9880.000000   1994882   1995542   1995559   1995411   1995795  
  9870.000000   1997212   1999618   2002269   2003965   2003509  
  9860.000000   2000314   1994731   1988042   1981997   1978122  
  9850.000000   1977166   1978793   1981853   1984825   1986518  
  9840.000000   1986399   1984771   1982410   1980208   1978717  
  9830.000000   1978036   1977882   1977815   1977476   1976632  
  9820.000000   1975152   1972865   1969531   1964937   1959090  
  9810.000000   1952412   1945743   1940138   1936485   1935109  
  9800.000000   1935611   1936952   1937886   1937429   1935287  
  9790.000000   1931920   1928331   1925608   1924478   1925073  
  9780.000000   1926964   1929454   1931919   1934049   1935887  
  9770.000000   1937650   1939498   1941325   1942749   1943215  
  9760.000000   1942281   1939735   1935782   1930869   1925611  
  9750.000000   1920569   1916141   1912597   1910037   1908581  
  9740.000000   1908276   1909206   1911344   1914572   1918614  
  9730.000000   1923036   1927308   1930787   1932900   1933120  
  9720.000000   1931246   1927346   1921946   1915859   1910100  
  9710.000000   1905657   1903216   1903106   1905117   1908787  
  9700.000000   1913404   1918405   1923314   1927925   1932052  
  9690.000000   1935524   1938008   1939078   1938309   1935408  
  9680.000000   1930378   1923499   1915332   1906528   1897716  
  9670.000000   1889362   1881717   1874859   1868708   1863155  
  9660.000000   1858066   1853397   1849189   1845609   1842941  
  9650.000000   1841483   1841507   1843029   1845837   1849351  
  9640.000000   1852889   1855724   1857431   1857923   1857559  
  9630.000000   1856953   1856816   1857689   1859805   1863024  
  9620.000000   1866920   1870912   1874431   1877024   1878419  
  9610.000000   1878521   1877392   1875246   1872383   1869212  
  9600.000000   1866099   1863388   1861261   1859826   1859077  
  9590.000000   1859024   1859634   1860858   1862476   1864098  
  9580.000000   1865105   1864810   1862653   1858418   1852448  
  9570.000000   1845557   1838926   1833638   1830406   1829260  
  9560.000000   1829600   1830415   1830670   1829727   1827554  
  9550.000000   1824775   1822399   1821484   1822738   1826301  
  9540.000000   1831701   1837986   1844010   1848687   1851277  
  9530.000000   1851495   1849565   1846130   1842055   1838220  
  9520.000000   1835266   1833458   1832633   1832293   1831810  
  9510.000000   1830645   1828530   1825530   1821957   1818237  
  9500.000000   1814702   1811515   1808670   1806104   1803863  
  9490.000000   1802167   1801381   1801858   1803716   1806752  
  9480.000000   1810396   1813926   1816651   1818144   1818356  
  9470.000000   1817549   1816195   1814683   1813226   1811723  
  9460.000000   1809899   1807426   1804124   1800063   1795565  
  9450.000000   1791154   1787378   1784750   1783559   1783891  
  9440.000000   1785526   1788033   1790820   1793278   1794931  
  9430.000000   1795516   1795072   1793844   1792235   1790587  
  9420.000000   1789118   1787800   1786470   1784912   1783035  
  9410.000000   1780962   1778987   1777506   1776812   1777025  
  9400.000000   1778017   1779490   1781076   1782446   1783382  
  9390.000000   1783766   1783563   1782777   1781464   1779756  
  9380.000000   1777888   1776193   1775027   1774656   1775126  
  9370.000000   1776199   1777385   1778109   1777896   1776548  
  9360.000000   1774192   1771224   1768169   1765492   1763498  
  9350.000000   1762243   1761612   1761371   1761292   1761189  
  9340.000000   1760942   1760500   1759861   1759119   1758448  
  9330.000000   1758125   1758433   1759579   1761572   1764184  
  9320.000000   1766967   1769364   1770857   1771133   1770165  
  9310.000000   1768194   1765619   1762842   1760178   1757780  
  9300.000000   1755673   1753767   1751917   1749993   1747894  
  9290.000000   1745613   1743195   1740804   1738688   1737200  
  9280.000000   1736680   1737322   1739029   1741372   1743688  
  9270.000000   1745254   1745532   1744336   1741932   1738944  
  9260.000000   1736156   1734208   1733379   1733523   1734157  
  9250.000000   1734671   1734542   1733535   1731763   1729604  
  9240.000000   1727513   1725846   1724731   1724047   1723495  
  9230.000000   1722723   1721488   1719728   1717600   1715407  
  9220.000000   1713506   1712217   1711719   1712011   1712893  
  9210.000000   1714031   1715054   1715637   1715601   1714929  
  9200.000000   1713803   1712488   1711295   1710421   1709950  
  9190.000000   1709761   1709623   1709260   1708505   1707395  
  9180.000000   1706173   1705267   1705103   1706044   1708185  
  9170.000000   1711370   1715129   1718872   1722007   1724114  
  9160.000000   1725024   1724789   1723627   1721759   1719348  
  9150.000000   1716395   1712820   1708534   1703583   1698215  
  9140.000000   1692884   1688173   1684646   1682717   1682514  
  9130.000000   1683863   1686307   1689246   1692065   1694262  
  9120.000000   1695546   1695898   1695591   1695070   1694858  
  9110.000000   1695378   1696865   1699221   1702023   1704617  
  9100.000000   1706331   1706678   1705476   1702953   1699637  
  9090.000000   1696220   1693287   1691189   1689963   1689376  
  9080.000000   1689043   1688585   1687754   1686467   1684762  
  9070.000000   1682740   1680535   1678292   1676202   1674473  
  9060.000000   1673346   1672997   1673495   1674715   1676375  
  9050.000000   1678110   1679626   1680808   1681751   1682694  
  9040.000000   1683872   1685389   1687131   1688808   1690063  
  9030.000000   1690642   1690510   1689870   1689068   1688417  
  9020.000000   1688041   1687820   1687424   1686470   1684674  
  9010.000000   1682003   1678700   1675219   1672069   1669687  
  9000.000000   1668317   1668001   1668554   1669675   1671002  
  8990.000000   1672207   1673061   1673460   1673467   1673240  
  8980.000000   1673001   1672902   1672974   1673067   1672917  
  8970.000000   1672267   1671018   1669333   1667622   1666444  
  8960.000000   1666295   1667394   1669543   1672148   1674413  
  8950.000000   1675581   1675200   1673253   1670157   1666616  
  8940.000000   1663391   1661099   1660080   1660398   1661885  
  8930.000000   1664220   1666978   1669711   1671977   1673409  
  8920.000000   1673757   1672976   1671268   1669038   1666790  
  8910.000000   1664948   1663758   1663194   1663033   1662952  
  8900.000000   1662693   1662162   1661441   1660727   1660197  
  8890.000000   1659934   1659889   1659930   1659952   1659936  
  8880.000000   1660009   1660351   1661143   1662431   1664115  
  8870.000000   1665963   1667703   1669125   1670143   1670820  
  8860.000000   1671316   1671831   1672530   1673511   1674770  
  8850.000000   1676238   1677769   1679176   1680238   1680747  
  8840.000000   1680578   1679725   1678336   1676675   1675051  
  8830.000000   1673712   1672758   1672126   1671639   1671132  
  8820.000000   1670566   1670087   1669962   1670473   1671750  
  8810.000000   1673686   1675921   1677967   1679405   1680035  
  8800.000000   1679984   1679607   1679365   1679575   1680321  
  8790.000000   1681379   1682365   1682872   1682684   1681840  
  8780.000000   1680652   1679574   1679044   1679360   1680589  
  8770.000000   1682615   1685187   1688028   1690887   1693583  
  8760.000000   1696000   1698086   1699829   1701249   1702392  
  8750.000000   1703307   1704035   1704572   1704864   1704827  
  8740.000000   1704402   1703601   1702545   1701447   1700562  
  8730.000000   1700097   1700130   1700581   1701242   1701862  
  8720.000000   1702262   1702408   1702439   1702617   1703235  
  8710.000000   1704503   1706478   1709042   1711962   1714954  
  8700.000000   1717783   1720299   1722464   1724301   1725868  
  8690.000000   1727196   1728307   1729201   1729908   1730484  
  8680.000000   1731035   1731673   1732492   1733529   1734760  
  8670.000000   1736110   1737485   1738810   1740056   1741250  
  8660.000000   1742466   1743795   1745323   1747108   1749175  
  8650.000000   1751515   1754085   1756817   1759610   1762351  
  8640.000000   1764916   1767203   1769164   1770811   1772216  
  8630.000000   1773474   1774664   1775809   1776856   1777707  
  8620.000000   1778269   1778516   1778526   1778482   1778619  
  8610.000000   1779128   1780084   1781401   1782862   1784207  
  8600.000000   1785230   1785888   1786318   1786814   1787706  
  8590.000000   1789261   1791582   1794573   1797964   1801391  
  8580.000000   1804507   1807028   1808801   1809780   1810050  
  8570.000000   1809762   1809123   1808356   1807704   1807381  
  8560.000000   1807537   1808246   1809482   1811161   1813139  
  8550.000000   1815299   1817556   1819874   1822218   1824520  
  8540.000000   1826679   1828530   1829915   1830704   1830901  
  8530.000000   1830617   1830084   1829576   1829357   1829613  
  8520.000000   1830414   1831738   1833489   1835552   1837797  
  8510.000000   1840106   1842360   1844455   1846291   1847810  
  8500.000000   1849010   1849963   1850794   1851657   1852689  
  8490.000000   1853956   1855430   1856987   1858449   1859627  
  8480.000000   1860369   1860599   1860345   1859717   1858890  
  8470.000000   1858067   1857451   1857213   1857455   1858224  
  8460.000000   1859501   1861221   1863268   1865506   1867787  
  8450.000000   1869967   1871914   1873509   1874689   1875430  
  8440.000000   1875789   1875862   1875796   1875733   1875799  
  8430.000000   1876073   1876579   1877323   1878296   1879511  
  8420.000000   1880973   1882678   1884571   1886537   1888400  
  8410.000000   1889955   1891038   1891576   1891624   1891348  
  8400.000000   1890973   1890724   1890763   1891167   1891905  
  8390.000000   1892905   1894069   1895331   1896625   1897903  
  8380.000000   1899075   1900035   1900649   1900802   1900445  
  8370.000000   1899615   1898451   1897136   1895865   1894770  
  8360.000000   1893905   1893233   1892656   1892084   1891467  
  8350.000000   1890849   1890337   1890099   1890290   1891026  
  8340.000000   1892312   1894046   1896013   1897944   1899568  
  8330.000000   1900671   1901160   1901048   1900464   1899572  
  8320.000000   1898540   1897461   1896355   1895173   1893848  
  8310.000000   1892366   1890791   1889295   1888092   1887411  
  8300.000000   1887396   1888079   1889336   1890923   1892524  
  8290.000000   1893825   1894592   1894699   1894163   1893117  
  8280.000000   1891792   1890451   1889337   1888617   1888354  
  8270.000000   1888511   1888963   1889545   1890085   1890459  
  8260.000000   1890591   1890476   1890134   1889615   1888965  
  8250.000000   1888241   1887491   1886769   1886107   1885524  
  8240.000000   1884990   1884451   1883820   1883027   1882028  
  8230.000000   1880838   1879489   1878020   1876419   1874629  
  8220.000000   1872564   1870166   1867462   1864605   1861857  
  8210.000000   1859512   1857781   1856703   1856103   1855663  
  8200.000000   1855033   1853980   1852479   1850737   1849098  
  8190.000000   1847899   1847315   1847266   1847455   1847467  
  8180.000000   1846958   1845757   1843940   1841758   1839540  
  8170.000000   1837550   1835904   1834558   1833368   1832182  
  8160.000000   1830917   1829593   1828292   1827114   1826097  
  8150.000000   1825221   1824406   1823581   1822718   1821838  
  8140.000000   1820991   1820186   1819370   1818407   1817144  
  8130.000000   1815470   1813397   1811077   1808774   1806778  
  8120.000000   1805301   1804408   1803981   1803787   1803559  
  8110.000000   1803101   1802354   1801385   1800356   1799421  
  8100.000000   1798673   1798086   1797546   1796891   1795992  
  8090.000000   1794806   1793410   1791982   1790740   1789885  
  8080.000000   1789518   1789625   1790060   1790592   1790955  
  8070.000000   1790918   1790344   1789210   1787619   1785753  
  8060.000000   1783831   1782041   1780494   1779202   1778090  
  8050.000000   1777041   1775949   1774781   1773581   1772475  
  8040.000000   1771602   1771068   1770881   1770939   1771055  
  8030.000000   1771002   1770607   1769788   1768601   1767193  
  8020.000000   1765766   1764488   1763442   1762612   1761900  
  8010.000000   1761188   1760392   1759513   1758629   1757867  
  8000.000000   1757333   1757065   1756995   1756969   1756793  
  7990.000000   1756291   1755373   1754043   1752406   1750604  
  7980.000000   1748784   1747046   1745437   1743964   1742624  
  7970.000000   1741441   1740467   1739772   1739411   1739391  
  7960.000000   1739645   1740046   1740438   1740672   1740664  
  7950.000000   1740394   1739925   1739347   1738766   1738242  
  7940.000000   1737797   1737402   1737011   1736588   1736128  
  7930.000000   1735670   1735273   1735006   1734906   1734975  
  7920.000000   1735167   1735402   1735598   1735683   1735626  
  7910.000000   1735429   1735125   1734756   1734357   1733950  
  7900.000000   1733545   1733155   1732806   1732540   1732408  
  7890.000000   1732444   1732643   1732947   1733248   1733413  
  7880.000000   1733330   1732938   1732262   1731406   1730524  
  7870.000000   1729777   1729281   1729088   1729173   1729465  
  7860.000000   1729870   1730317   1730756   1731171   1731546  
  7850.000000   1731858   1732063   1732111   1731967   1731634  
  7840.000000   1731163   1730640   1730154   1729767   1729478  
  7830.000000   1729239   1728962   1728581   1728068   1727469  
  7820.000000   1726872   1726380   1726057   1725894   1725802  
  7810.000000   1725640   1725264   1724576   1723563   1722299  
  7800.000000   1720923   1719592   1718436   1717533   1716896  
  7790.000000   1716497   1716284   1716203   1716202   1716232  
  7780.000000   1716234   1716149   1715915   1715497   1714893  
  7770.000000   1714145   1713326   1712516   1711773   1711116  
  7760.000000   1710517   1709923   1709278   1708546   1707729  
  7750.000000   1706854   1705954   1705056   1704161   1703261  
  7740.000000   1702350   1701456   1700641   1699996   1699608  
  7730.000000   1699511   1699665   1699941   1700157   1700120  
  7720.000000   1699708   1698891   1697769   1696521   1695361  
  7710.000000   1694462   1693910   1693685   1693686   1693774  
  7700.000000   1693833   1693804   1693701   1693591   1693556  
  7690.000000   1693648   1693862   1694125   1694331   1694363  
  7680.000000   1694156   1693705   1693084   1692410   1691814  
  7670.000000   1691400   1691211   1691233   1691388   1691579  
  7660.000000   1691708   1691709   1691563   1691294   1690956  
  7650.000000   1690606   1690288   1690009   1689746   1689448  
  7640.000000   1689065   1688563   1687948   1687273   1686626  
  7630.000000   1686119   1685847   1685870   1686186   1686734  
  7620.000000   1687413   1688098   1688682   1689083   1689270  
  7610.000000   1689244   1689047   1688735   1688383   1688063  
  7600.000000   1687856   1687829   1688035   1688493   1689182  
  7590.000000   1690043   1690984   1691915   1692768   1693517  
  7580.000000   1694181   1694800   1695420   1696046   1696657  
  7570.000000   1697188   1697586   1697815   1697909   1697948  
  7560.000000   1698052   1698333   1698862   1699648   1700642  
  7550.000000   1701760   1702922   1704074   1705214   1706368  
  7540.000000   1707584   1708896   1710316   1711821   1713373  
  7530.000000   1714916   1716409   1717807   1719091   1720246  
  7520.000000   1721279   1722206   1723072   1723926   1724830  
  7510.000000   1725823   1726929   1728136   1729415   1730730  
  7500.000000   1732066   1733433   1734880   1736467   1738253  
  7490.000000   1740268   1742513   1744949   1747519   1750149  
  7480.000000   1752772   1755317   1757727   1759945   1761940  
  7470.000000   1763699   1765266   1766714   1768155   1769694  
  7460.000000   1771412   1773325   1775397   1777544   1779681  
  7450.000000   1781749   1783745   1785715   1787737   1789884  
  7440.000000   1792202   1794688   1797315   1800033   1802813  
  7430.000000   1805644   1808542   1811519   1814580   1817694  
  7420.000000   1820814   1823879   1826848   1829702   1832463  
  7410.000000   1835165   1837849   1840529   1843195   1845811  
  7400.000000   1848332   1850729   1853000   1855176   1857315  
  7390.000000   1859488   1861754   1864155   1866696   1869363  
  7380.000000   1872111   1874893   1877659   1880375   1883025  
  7370.000000   1885614   1888157   1890677   1893190   1895697  
  7360.000000   1898188   1900641   1903034   1905349   1907588  
  7350.000000   1909765   1911904   1914030   1916158   1918290  
  7340.000000   1920419   1922544   1924673   1926842   1929102  
  7330.000000   1931509   1934101   1936881   1939797   1942754  
  7320.000000   1945626   1948298   1950684   1952769   1954599  
  7310.000000   1956286   1957959   1959735   1961668   1963741  
  7300.000000   1965859   1967894   1969715   1971245   1972474  
  7290.000000   1973476   1974363   1975261   1976259   1977396  
  7280.000000   1978648   1979954   1981235   1982432   1983516  
  7270.000000   1984498   1985414   1986320   1987271   1988314  
  7260.000000   1989487   1990798   1992249   1993801   1995411  
  7250.000000   1997008   1998540   1999966   2001306   2002619  
  7240.000000   2004021   2005624   2007533   2009778   2012334  
  7230.000000   2015090   2017926   2020701   2023345   2025829  
  7220.000000   2028213   2030579   2033051   2035717   2038662  
  7210.000000   2041905   2045453   2049253   2053255   2057377  
  7200.000000   2061560   2065736   2069881   2073976   2078056  
  7190.000000   2082155   2086352   2090701   2095268   2100063  
  7180.000000   2105087   2110284   2115602   2120961   2126316  
  7170.000000   2131620   2136884   2142114   2147361   2152644  
  7160.000000   2158003   2163429   2168930   2174487   2180118  
  7150.000000   2185848   2191739   2197851   2204249   2210947  
  7140.000000   2217932   2225122   2232431   2239751   2247029  
  7130.000000   2254227   2261372   2268484   2275618   2282787  
  7120.000000   2290017   2297301   2304661   2312110   2319690  
  7110.000000   2327427   2335343   2343420   2351628   2359907  
  7100.000000   2368225   2376549   2384896   2393278   2401726  
  7090.000000   2410241   2418815   2427420   2436045   2444693  
  7080.000000   2453401   2462206   2471146   2480213   2489366  
  7070.000000   2498520   2507590   2516510   2525267   2533889  
  7060.000000   2542440   2550981   2559554   2568168   2576809  
  7050.000000   2585452   2594075   2602669   2611227   2619737  
  7040.000000   2628173   2636509   2644718   2652813   2660833  
  7030.000000   2668863   2676981   2685250   2693668   2702186  
  7020.000000   2710691   2719066   2727193   2735013   2742500  
  7010.000000   2749686   2756613   2763349   2769941   2776447  
  7000.000000   2782891   2789300   2795657   2801942   2808097  
  6990.000000   2814085   2819863   2825455   2830895   2836273  
  6980.000000   2841653   2847092   2852580   2858078   2863505  
  6970.000000   2868798   2873903   2878810   2883518   2888051  
  6960.000000   2892406   2896592   2900603   2904471   2908231  
  6950.000000   2911961   2915713   2919539   2923422   2927334  
  6940.000000   2931201   2934978   2938621   2942134   2945514  
  6930.000000   2948760   2951835   2954687   2957258   2959527  
  6920.000000   2961514   2963304   2965003   2966725   2968537  
  6910.000000   2970468   2972492   2974576   2976676   2978784  
  6900.000000   2980893   2983017   2985147   2987269   2989349  
  6890.000000   2991364   2993295   2995139   2996890   2998537  
  6880.000000   3000054   3001416   3002620   3003705   3004755  
  6870.000000   3005884   3007185   3008701   3010390   3012145  
  6860.000000   3013826   3015323   3016593   3017683   3018695  
  6850.000000   3019750   3020921   3022217   3023578   3024919  
  6840.000000   3026166   3027297   3028333   3029330   3030329  
  6830.000000   3031347   3032354   3033314   3034192   3035000  
  6820.000000   3035773   3036570   3037426   3038342   3039263  
  6810.000000   3040116   3040824   3041346   3041681   3041867  
  6800.000000   3041948   3041965   3041929   3041842   3041697  
  6790.000000   3041510   3041306   3041134   3041025   3041000  
  6780.000000   3041041   3041120   3041191   3041226   3041202  
  6770.000000   3041120   3040978   3040784   3040534   3040233  
  6760.000000   3039884   3039507   3039115   3038718   3038309  
  6750.000000   3037863   3037347   3036736   3036023   3035230  
  6740.000000   3034390   3033549   3032734   3031969   3031260  
  6730.000000   3030627   3030095   3029706   3029490   3029444  
  6720.000000   3029511   3029582   3029515   3029181   3028503  
  6710.000000   3027488   3026219   3024830   3023461   3022222  
  6700.000000   3021159   3020273   3019513   3018827   3018158  
  6690.000000   3017471   3016730   3015910   3014982   3013929  
  6680.000000   3012744   3011449   3010081   3008693   3007327  
  6670.000000   3006009   3004739   3003500   3002263   3001008  
  6660.000000   2999714   2998373   2996965   2995473   2993873  
  6650.000000   2992154   2990324   2988427   2986524   2984691  
  6640.000000   2982980   2981419   2979985   2978630   2977279  
  6630.000000   2975870   2974356   2972720   2970969   2969127  
  6620.000000   2967224   2965290   2963350   2961423   2959519  
  6610.000000   2957644   2955788   2953941   2952085   2950213  
  6600.000000   2948319   2946415   2944509   2942609   2940712  
  6590.000000   2938801   2936854   2934847   2932769   2930622  
  6580.000000   2928427   2926211   2924010   2921857   2919785  
  6570.000000   2917828   2916013   2914363   2912882   2911554  
  6560.000000   2910339   2909174   2907992   2906728   2905343  
  6550.000000   2903816   2902156   2900378   2898515   2896595  
  6540.000000   2894656   2892735   2890879   2889130   2887521  
  6530.000000   2886060   2884734   2883505   2882328   2881162  
  6520.000000   2879983   2878783   2877570   2876354   2875139  
  6510.000000   2873920   2872693   2871457   2870226   2869025  
  6500.000000   2867883   2866819   2865835   2864911   2864011  
  6490.000000   2863101   2862152   2861155   2860112   2859037  
  6480.000000   2857943   2856840   2855733   2854629   2853539  
  6470.000000   2852472   2851435   2850421   2849411   2848372  
  6460.000000   2847275   2846100   2844854   2843567   2842285  
  6450.000000   2841058   2839925   2838909   2838009   2837211  
  6440.000000   2836489   2835813   2835149   2834463   2833725  
  6430.000000   2832911   2832019   2831065   2830089   2829139  
  6420.000000   2828262   2827484   2826811   2826222   2825688  
  6410.000000   2825182   2824688   2824200   2823717   2823236  
  6400.000000   2822748   2822240   2821709   2821165   2820639  
  6390.000000   2820170   2819793   2819516   2819323   2819169  
  6380.000000   2819004   2818792   2818521   2818213   2817904  
  6370.000000   2817627   2817389   2817172   2816933   2816625  
  6360.000000   2816218   2815710   2815122   2814497   2813869  
  6350.000000   2813266   2812692   2812145   2811616   2811103  
  6340.000000   2810603   2810117   2809639   2809157   2808652  
  6330.000000   2808107   2807508   2806855   2806148   2805397  
  6320.000000   2804602   2803766   2802887   2801972   2801025  
  6310.000000   2800062   2799088   2798109   2797108   2796071  
  6300.000000   2794974   2793813   2792587   2791315   2790008  
  6290.000000   2788677   2787308   2785886   2784381   2782786  
  6280.000000   2781099   2779347   2777560   2775777   2774016  
  6270.000000   2772292   2770598   2768929   2767272   2765614  
  6260.000000   2763931   2762193   2760358   2758393   2756273  
  6250.000000   2754013   2751653   2749265   2746917   2744665  
  6240.000000   2742521   2740469   2738457   2736436   2734367  
  6230.000000   2732238   2730057   2727846   2725625   2723406  
  6220.000000   2721188   2718968   2716746   2714527   2712323  
  6210.000000   2710146   2708000   2705883   2703785   2701698  
  6200.000000   2699618   2697548   2695493   2693458   2691442  
  6190.000000   2689438   2687436   2685431   2683425   2681423  
  6180.000000   2679433   2677457   2675492   2673532   2671572  
  6170.000000   2669617   2667681   2665782   2663936   2662148  
  6160.000000   2660411   2658710   2657031   2655369   2653735  
  6150.000000   2652143   2650612   2649143   2647728   2646341  
  6140.000000   2644957   2643555   2642131   2640685   2639224  
  6130.000000   2637746   2636245   2634708   2633134   2631531  
  6120.000000   2629931   2628369   2626885   2625495   2624198  
  6110.000000   2622976   2621809   2620684   2619609   2618603  
  6100.000000   2617691   2616879   2616158   2615491   2614839  
  6090.000000   2614161   2613447   2612700   2611949   2611215  
  6080.000000   2610525   2609880   2609286   2608735   2608237  
  6070.000000   2607800   2607443   2607172   2606992   2606889  
  6060.000000   2606859   2606887   2606982   2607145   2607388  
  6050.000000   2607699   2608070   2608464   2608866   2609257  
  6040.000000   2609658   2610088   2610592   2611195   2611915  
  6030.000000   2612745   2613677   2614697   2615807   2617011  
  6020.000000   2618322   2619731   2621218   2622734   2624230  
  6010.000000   2625653   2626983   2628215   2629381   2630514  
  6000.000000   2631660   2632843   2634095   2635427   2636859  
  5990.000000   2638398   2640053   2641810   2643651   2645535  
  5980.000000   2647432   2649317   2651198   2653098   2655070  
  5970.000000   2657151   2659378   2661752   2664265   2666880  
  5960.000000   2669577   2672326   2675123   2677953   2680820  
  5950.000000   2683708   2686618   2689538   2692478   2695450  
  5940.000000   2698482   2701595   2704809   2708131   2711554  
  5930.000000   2715060   2718624   2722219   2725810   2729359  
  5920.000000   2732829   2736179   2739382   2742422   2745305  
  5910.000000   2748047   2750679   2753227   2755714   2758161  
  5900.000000   2760589   2763030   2765516   2768093   2770788  
  5890.000000   2773622   2776575   2779619   2782700   2785775  
  5880.000000   2788803   2791761   2794632   2797396   2800031  
  5870.000000   2802513   2804830   2806986   2809025   2811008  
  5860.000000   2813012   2815100   2817304   2819623   2822023  
  5850.000000   2824463   2826910   2829354   2831809   2834304  
  5840.000000   2836869   2839522   2842265   2845084   2847960  
  5830.000000   2850871   2853799   2856723   2859627   2862491  
  5820.000000   2865304   2868062   2870772   2873452   2876114  
  5810.000000   2878766   2881394   2883980   2886490   2888920  
  5800.000000   2891260   2893545   2895785   2898010   2900195  
  5790.000000   2902317   2904305   2906113   2907675   2908969  
  5780.000000   2909956   2910627   2910941   2910872   2910388  
  5770.000000   2909500   2908245   2906724   2905052   2903366  
  5760.000000   2901765   2900324   2899059   2897970   2897031  
  5750.000000   2896226   2895540   2894961   2894473   2894048  
  5740.000000   2893660   2893284   2892922   2892588   2892324  
  5730.000000   2892154   2892101   2892148   2892265   2892401  
  5720.000000   2892524   2892615   2892686   2892757   2892856  
  5710.000000   2892997   2893187   2893421   2893703   2894041  
  5700.000000   2894452   2894951   2895534   2896180   2896846  
  5690.000000   2897490   2898075   2898596   2899062   2899508  
  5680.000000   2899950   2900399   2900825   2901189   2901431  
  5670.000000   2901504   2901368   2901013   2900435   2899655  
  5660.000000   2898697   2897607   2896433   2895243   2894089  
  5650.000000   2893023   2892061   2891199   2890402   2889631  
  5640.000000   2888842   2888011   2887124   2886180   2885183  
  5630.000000   2884138   2883051   2881937   2880824   2879750  
  5620.000000   2878755   2877869   2877101   2876433   2875827  
  5610.000000   2875240   2874635   2873993   2873314   2872605  
  5600.000000   2871876   2871129   2870359   2869559   2868732  
  5590.000000   2867889   2867046   2866221   2865414   2864618  
  5580.000000   2863806   2862962   2862071   2861145   2860197  
  5570.000000   2859249   2858304   2857346   2856345   2855264  
  5560.000000   2854080   2852790   2851413   2849985   2848544  
  5550.000000   2847125   2845751   2844440   2843204   2842058  
  5540.000000   2841009   2840051   2839160   2838296   2837407  
  5530.000000   2836450   2835402   2834266   2833069   2831846  
  5520.000000   2830627   2829426   2828241   2827064   2825887  
  5510.000000   2824712   2823548   2822407   2821290   2820191  
  5500.000000   2819088   2817965   2816810   2815628   2814427  
  5490.000000   2813218   2811994   2810740   2809424   2808027  
  5480.000000   2806538   2804978   2803372   2801759   2800155  
  5470.000000   2798559   2796947   2795291   2793565   2791767  
  5460.000000   2789902   2787987   2786028   2784024   2781966  
  5450.000000   2779851   2777689   2775511   2773359   2771270  
  5440.000000   2769261   2767320   2765423   2763538   2761658  
  5430.000000   2759790   2757969   2756221   2754567   2752996  
  5420.000000   2751494   2750033   2748623   2747278   2746051  
  5410.000000   2744976   2744084   2743354   2742764   2742261  
  5400.000000   2741834   2741470   2741205   2741058   2741069  
  5390.000000   2741227   2741540   2741979   2742566   2743308  
  5380.000000   2744270   2745475   2746965   2748706   2750680  
  5370.000000   2752806   2755063   2757405   2759870   2762458  
  5360.000000   2765245   2768228   2771476   2774974   2778796  
  5350.000000   2782943   2787508   2792494   2797977   2803916  
  5340.000000   2810351   2817212   2824549   2832313   2840582  
  5330.000000   2849311   2858569   2868280   2878491   2889128  
  5320.000000   2900280   2911930   2924234   2937210   2951024  
  5310.000000   2965652   2981202   2997586   3014871   3032963  
  5300.000000   3051945   3071766   3092553   3114290   3137111  
  5290.000000   3160979   3185955   3211908   3238780   3266359  
  5280.000000   3294565   3323254   3352469   3382229   3412687  
  5270.000000   3443897   3475900   3508565   3541688   3574993  
  5260.000000   3608238   3641291   3674121   3706815   3739433  
  5250.000000   3772023   3804446   3836543   3867991   3898613  
  5240.000000   3928193   3956782   3984381   4011202   4037283  
  5230.000000   4062773   4087570   4111670   4134856   4157098  
  5220.000000   4178238   4198374   4217485   4235785   4253305  
  5210.000000   4270230   4286491   4302129   4316943   4330903  
  5200.000000   4343823   4355775   4366714   4376829   4386138  
  5190.000000   4394808   4402787   4410148   4416779   4422732  
  5180.000000   4427924   4432456   4436282   4439499   4442037  
  5170.000000   4443948   4445150   4445712   4445605   4444953  
  5160.000000   4443763   4442151   4440084   4437617   4434683  
  5150.000000   4431327   4427514   4423327   4418763   4413901  
  5140.000000   4408714   4403243   4397447   4391368   4385001  
  5130.000000   4378420   4371645   4364739   4357695   4350535  
  5120.000000   4343226   4335790   4328222   4320574   4312870  
  5110.000000   4305156   4297433   4289709   4281959   4274178  
  5100.000000   4266353   4258501   4250624   4242743   4234848  
  5090.000000   4226944   4219016   4211073   4203118   4195176  
  5080.000000   4187254   4179363   4171483   4163599   4155678  
  5070.000000   4147711   4139692   4131635   4123549   4115443  
  5060.000000   4107300   4099104   4090825   4082455   4073995  
  5050.000000   4065475   4056926   4048383   4039862   4031366  
  5040.000000   4022882   4014400   4005914   3997434   3988982  
  5030.000000   3980578   3972240   3963968   3955761   3947604  
  5020.000000   3939501   3931451   3923485   3915619   3907891  
  5010.000000   3900310   3892899   3885651   3878583   3871686  
  5000.000000   3864985   3858474   3852182   3846099   3840252  
  4990.000000   3834625   3829251   3824116   3819260   3814664  
  4980.000000   3810364   3806329   3802585   3799100   3795914  
  4970.000000   3793013   3790459   3788247   3786438   3785009  
  4960.000000   3783995   3783348   3783097   3783194   3783680  
  4950.000000   3784523   3785766   3787370   3789364   3791692  
  4940.000000   3794375   3797366   3800707   3804373   3808421  
  4930.000000   3812830   3817647   3822829   3828398   3834299  
  4920.000000   3840548   3847094   3853956   3861093   3868526  
  4910.000000   3876219   3884193   3892419   3900917   3909663  
  4900.000000   3918664   3927883   3937305   3946882   3956586  
  4890.000000   3966377   3976232   3986125   3996028   4005915  
  4880.000000   4015742   4025469   4035041   4044420   4053552  
  4870.000000   4062415   4070962   4079190   4087064   4094600  
  4860.000000   4101781   4108647   4115197   4121478   4127484  
  4850.000000   4133251   4138756   4144022   4149027   4153800  
  4840.000000   4158335   4162679   4166839   4170863   4174754  
  4830.000000   4178548   4182236   4185838   4189338   4192745  
  4820.000000   4196042   4199238   4202322   4205310   4208201  
  4810.000000   4211016   4213757   4216440   4219058   4221618  
  4800.000000   4224111   4226547   4228926   4231270   4233585  
  4790.000000   4235891   4238184   4240468   4242730   4244965  
  4780.000000   4247163   4249328   4251456   4253557   4255622  
  4770.000000   4257653   4259630   4261550   4263391   4265153  
  4760.000000   4266822   4268401   4269873   4271241   4272479  
  4750.000000   4273588   4274541   4275342   4275973   4276446  
  4740.000000   4276749   4276900   4276898   4276765   4276503  
  4730.000000   4276131   4275643   4275042   4274306   4273429  
  4720.000000   4272393   4271208   4269884   4268461   4266974  
  4710.000000   4265469   4263975   4262513   4261086   4259688  
  4700.000000   4258304   4256924   4255537   4254148   4252762  
  4690.000000   4251402   4250089   4248851   4247709   4246670  
  4680.000000   4245727   4244847   4243988   4243090   4242109  
  4670.000000   4241002   4239769   4238419   4237003   4235567  
  4660.000000   4234176   4232877   4231723   4230741   4229966  
  4650.000000   4229415   4229103   4229027   4229177   4229523  
  4640.000000   4230030   4230650   4231345   4232076   4232817  
  4630.000000   4233542   4234233   4234869   4235438   4235925  
  4620.000000   4236328   4236646   4236883   4237038   4237103  
  4610.000000   4237066   4236909   4236631   4236238   4235769  
  4600.000000   4235264   4234782   4234355   4234006   4233716  
  4590.000000   4233458   4233178   4232836   4232394   4231841  
  4580.000000   4231169   4230389   4229500   4228512   4227423  
  4570.000000   4226242   4224972   4223630   4222224   4220768  
  4560.000000   4219260   4217701   4216080   4214396   4212646  
  4550.000000   4210843   4208992   4207106   4205184   4203228  
  4540.000000   4201233   4199200   4197137   4195059   4192992  
  4530.000000   4190947   4188944   4186976   4185053   4183161  
  4520.000000   4181325   4179547   4177883   4176349   4175011  
  4510.000000   4173875   4173009   4172406   4172143   4172223  
  4500.000000   4172743   4173709   4175220   4177265   4179925  
  4490.000000   4183168   4187070   4191599   4196844   4202782  
  4480.000000   4209505   4216981   4225277   4234333   4244179  
  4470.000000   4254722   4265955   4277763   4290117   4302894  
  4460.000000   4316062   4329513   4343224   4357113   4371163  
  4450.000000   4385308   4399533   4413789   4428066   4442344  
  4440.000000   4456620   4470897   4485163   4499419   4513629  
  4430.000000   4527788   4541840   4555786   4569559   4583163  
  4420.000000   4596502   4609558   4622197   4634375   4645945  
  4410.000000   4656873   4667032   4676418   4684930   4692584  
  4400.000000   4699300   4705112   4709973   4713961   4717092  
  4390.000000   4719496   4721244   4722491   4723321   4723872  
  4380.000000   4724216   4724465   4724686   4724981   4725428  
  4370.000000   4726123   4727144   4728561   4730433   4732791  
  4360.000000   4735662   4739043   4742926   4747279   4752059  
  4350.000000   4757213   4762674   4768392   4774305   4780380  
  4340.000000   4786563   4792800   4798980   4804952   4810491  
  4330.000000   4815337   4819209   4821879   4823198   4823171  
  4320.000000   4821939   4819802   4817122   4814318   4811725  
  4310.000000   4809624   4808133   4807299   4807035   4807246  
  4300.000000   4807786   4808550   4809435   4810376   4811324  
  4290.000000   4812243   4813119   4813942   4814726   4815492  
  4280.000000   4816271   4817101   4818002   4819004   4820096  
  4270.000000   4821278   4822497   4823698   4824762   4825561  
  4260.000000   4825917   4825671   4824675   4822861   4820233  
  4250.000000   4816912   4813076   4808978   4804847   4800905  
  4240.000000   4797276   4794042   4791173   4788623   4786282  
  4230.000000   4784057   4781839   4779546   4777106   4774466  
  4220.000000   4771611   4768537   4765299   4761955   4758610  
  4210.000000   4755349   4752271   4749428   4746873   4744604  
  4200.000000   4742635   4740937   4739515   4738337   4737412  
  4190.000000   4736705   4736232   4735957   4735910   4736063  
  4180.000000   4736468   4737104   4738032   4739233   4740772  
  4170.000000   4742641   4744925   4747635   4750869   4754632  
  4160.000000   4758998   4763927   4769444   4775466   4782002  
  4150.000000   4788973   4796410   4804262   4812585   4821343  
  4140.000000   4830600   4840320   4850572   4861320   4872628  
  4130.000000   4884451   4896829   4909694   4923058   4936850  
  4120.000000   4951088   4965730   4980827   4996367   5012412  
  4110.000000   5028941   5045983   5063482   5081419   5099709  
  4100.000000   5118310   5137144   5156175   5175354   5194670  
  4090.000000   5214107   5233662   5253330   5273095   5292946  
  4080.000000   5312850   5332796   5352743   5372691   5392587  
  4070.000000   5412420   5432106   5451620   5470857   5489802  
  4060.000000   5508365   5526563   5544315   5561652   5578481  
  4050.000000   5594830   5610602   5625843   5640467   5654538  
  4040.000000   5667953   5680759   5692819   5704165   5714663  
  4030.000000   5724380   5733214   5741250   5748393   5754690  
  4020.000000   5759986   5764315   5767604   5769918   5771164  
  4010.000000   5771498   5771004   5769720   5767400   5764170  
  4000.000000   5760494  
##END= 
