##TITLE= Sample 013 By ssteindl date Dienstag, November 20 2018
##JCAMP-DX= 4.24
##DATA TYPE= INFRARED SPECTRUM
##ORIGIN= Exported PE Spectrum Data File
##OWNER= Sandra Steindl
##DATE= 18/11/20
##TIME= 17:06:26.00
##SPECTROMETER/DATA SYSTEM= PERKIN-ELMER Frontier FT-IR/NIR IR
##INSTRUMENT PARAMETERS=
  APODIZATION=stark
  DETECTOR=INGAAS
##RESOLUTION= 16.000000
##DELTAX= -2.000000
##XUNITS= 1/CM
##YUNITS= A
##XFACTOR= 1.00
##YFACTOR= 0.00000011920928955078
##FIRSTX= 10000.00
##LASTX= 4000.00
##NPOINTS= 3001
##FIRSTY= 0.219611
##MAXY= 0.613426
##MINY= 0.192009
##XYDATA= (X++(Y..Y))
 10000.000000   1842231   1841401   1841124   1842088   1844280  
  9990.000000   1847346   1851152   1855857   1861413   1867502  
  9980.000000   1873641   1879254   1883728   1886558   1887567  
  9970.000000   1886859   1884747   1881561   1877618   1873126  
  9960.000000   1868302   1863458   1859029   1855591   1853565  
  9950.000000   1853173   1854172   1856076   1858274   1860384  
  9940.000000   1862376   1864530   1867181   1870360   1873597  
  9930.000000   1875936   1876294   1873931   1868907   1862195  
  9920.000000   1855438   1850353   1848089   1848799   1851606  
  9910.000000   1854979   1857305   1857460   1855095   1850655  
  9900.000000   1845051   1839325   1834313   1830561   1828374  
  9890.000000   1827875   1829096   1831802   1835503   1839310  
  9880.000000   1842202   1843225   1841909   1838464   1833778  
  9870.000000   1829174   1825923   1824908   1826335   1829891  
  9860.000000   1834927   1840840   1847160   1853575   1859689  
  9850.000000   1864864   1868180   1868628   1865495   1858693  
  9840.000000   1848983   1837803   1826908   1817832   1811487  
  9830.000000   1808002   1806837   1807117   1807948   1808696  
  9820.000000   1808992   1808723   1807818   1806265   1804120  
  9810.000000   1801655   1799494   1798456   1799434   1802875  
  9800.000000   1808615   1815644   1822390   1827091   1828401  
  9790.000000   1825835   1820008   1812481   1805288   1800347  
  9780.000000   1798822   1800912   1805748   1811853   1817570  
  9770.000000   1821631   1823460   1823206   1821522   1819151  
  9760.000000   1816591   1813853   1810583   1806263   1800657  
  9750.000000   1794021   1787216   1781509   1778107   1777841  
  9740.000000   1780689   1785934   1792246   1798248   1802853  
  9730.000000   1805548   1806416   1805879   1804484   1802548  
  9720.000000   1800163   1797134   1793270   1788444   1782841  
  9710.000000   1776846   1771040   1766019   1762236   1759993  
  9700.000000   1759281   1759964   1761673   1764043   1766722  
  9690.000000   1769520   1772457   1775678   1779381   1783521  
  9680.000000   1787747   1791254   1793066   1792254   1788415  
  9670.000000   1781884   1773785   1765793   1759587   1756424  
  9660.000000   1756642   1759725   1764443   1769425   1773504  
  9650.000000   1776048   1776894   1776189   1774162   1770968  
  9640.000000   1766799   1761910   1756828   1752213   1748716  
  9630.000000   1746685   1745955   1745960   1745930   1745384  
  9620.000000   1744346   1743426   1743503   1745226   1748614  
  9610.000000   1752802   1756379   1757798   1756136   1751392  
  9600.000000   1744634   1737576   1732005   1729197   1729521  
  9590.000000   1732552   1737303   1742776   1748168   1753065  
  9580.000000   1757247   1760560   1762777   1763625   1762953  
  9570.000000   1760810   1757553   1753644   1749522   1745381  
  9560.000000   1741161   1736714   1732018   1727432   1723653  
  9550.000000   1721530   1721646   1723980   1727771   1731705  
  9540.000000   1734363   1734731   1732593   1728587   1723994  
  9530.000000   1720264   1718569   1719452   1722753   1727748  
  9520.000000   1733412   1738713   1742792   1745094   1745367  
  9510.000000   1743705   1740492   1736384   1732164   1728569  
  9500.000000   1726087   1724787   1724319   1724027   1723219  
  9490.000000   1721445   1718666   1715272   1711886   1709109  
  9480.000000   1707266   1706322   1705953   1705738   1705385  
  9470.000000   1704866   1704440   1704506   1705415   1707274  
  9460.000000   1709873   1712722   1715235   1716866   1717318  
  9450.000000   1716538   1714755   1712355   1709804   1707544  
  9440.000000   1705897   1705048   1704996   1705621   1706695  
  9430.000000   1707991   1709284   1710439   1711334   1711907  
  9420.000000   1712058   1711704   1710780   1709309   1707460  
  9410.000000   1705511   1703799   1702555   1701813   1701324  
  9400.000000   1700652   1699304   1696979   1693691   1689830  
  9390.000000   1686032   1682947   1681055   1680473   1681043  
  9380.000000   1682378   1684126   1686076   1688254   1690819  
  9370.000000   1693870   1697251   1700456   1702743   1703317  
  9360.000000   1701652   1697639   1691763   1684927   1678285  
  9350.000000   1672853   1669237   1667514   1667252   1667777  
  9340.000000   1668364   1668546   1668186   1667555   1667149  
  9330.000000   1667475   1668829   1671112   1673946   1676694  
  9320.000000   1678785   1679742   1679391   1677819   1675369  
  9310.000000   1672575   1669997   1668198   1667601   1668512  
  9300.000000   1671012   1674935   1679791   1684790   1688970  
  9290.000000   1691425   1691542   1689169   1684638   1678701  
  9280.000000   1672345   1666571   1662175   1659605   1658927  
  9270.000000   1659902   1662035   1664674   1667028   1668334  
  9260.000000   1667997   1665801   1662003   1657290   1652659  
  9250.000000   1649108   1647381   1647642   1649458   1651933  
  9240.000000   1654110   1655295   1655274   1654320   1652990  
  9230.000000   1651865   1651277   1651205   1651389   1651510  
  9220.000000   1651472   1651398   1651577   1652200   1653194  
  9210.000000   1654207   1654723   1654349   1653018   1651146  
  9200.000000   1649494   1648858   1649679   1651863   1654788  
  9190.000000   1657560   1659314   1659570   1658357   1656156  
  9180.000000   1653605   1651225   1649241   1647578   1646022  
  9170.000000   1644369   1642588   1640767   1639049   1637455  
  9160.000000   1635829   1633934   1631597   1628909   1626253  
  9150.000000   1624247   1623526   1624471   1627051   1630748  
  9140.000000   1634778   1638292   1640707   1641754   1641538  
  9130.000000   1640374   1638674   1636798   1635026   1633624  
  9120.000000   1632909   1633237   1634878   1637903   1642045  
  9110.000000   1646715   1651053   1654191   1655494   1654785  
  9100.000000   1652413   1649107   1645761   1643148   1641718  
  9090.000000   1641517   1642189   1643225   1644099   1644537  
  9080.000000   1644488   1644173   1643883   1643877   1644200  
  9070.000000   1644647   1644812   1644206   1642485   1639504  
  9060.000000   1635465   1630806   1626148   1622061   1618934  
  9050.000000   1616897   1615852   1615567   1615787   1616335  
  9040.000000   1617168   1618349   1619977   1622102   1624661  
  9030.000000   1627483   1630319   1632900   1635023   1636571  
  9020.000000   1637567   1638114   1638385   1638526   1638615  
  9010.000000   1638619   1638381   1637688   1636326   1634225  
  9000.000000   1631504   1628519   1625771   1623790   1622935  
  8990.000000   1623265   1624461   1625938   1627022   1627194  
  8980.000000   1626265   1624448   1622291   1620470   1619566  
  8970.000000   1619852   1621241   1623325   1625551   1627381  
  8960.000000   1628451   1628650   1628094   1627074   1625923  
  8950.000000   1624964   1624421   1624403   1624867   1625630  
  8940.000000   1626408   1626870   1626735   1625839   1624200  
  8930.000000   1622012   1619602   1617302   1615368   1613900  
  8920.000000   1612865   1612131   1611558   1611081   1610742  
  8910.000000   1610685   1611084   1612072   1613691   1615837  
  8900.000000   1618296   1620748   1622869   1624349   1625001  
  8890.000000   1624783   1623871   1622611   1621456   1620847  
  8880.000000   1621085   1622241   1624114   1626304   1628338  
  8870.000000   1629835   1630603   1630693   1630315   1629759  
  8860.000000   1629247   1628906   1628760   1628793   1629028  
  8850.000000   1629531   1630387   1631599   1633009   1634297  
  8840.000000   1635047   1634915   1633763   1631768   1629413  
  8830.000000   1627331   1626109   1626061   1627142   1628961  
  8820.000000   1630931   1632474   1633196   1633016   1632144  
  8810.000000   1631013   1630098   1629792   1630295   1631575  
  8800.000000   1633405   1635406   1637178   1638353   1638711  
  8790.000000   1638188   1636913   1635146   1633228   1631484  
  8780.000000   1630171   1629441   1629362   1629936   1631117  
  8770.000000   1632848   1635014   1637474   1640009   1642386  
  8760.000000   1644397   1645928   1647018   1647799   1648484  
  8750.000000   1649204   1649993   1650700   1651089   1650915  
  8740.000000   1650078   1648702   1647124   1645824   1645248  
  8730.000000   1645718   1647301   1649849   1653011   1656374  
  8720.000000   1659544   1662229   1664272   1665625   1666356  
  8710.000000   1666576   1666459   1666155   1665802   1665456  
  8700.000000   1665129   1664778   1664380   1663974   1663694  
  8690.000000   1663757   1664375   1665693   1667681   1670141  
  8680.000000   1672723   1675069   1676924   1678248   1679219  
  8670.000000   1680165   1681424   1683221   1685563   1688244  
  8660.000000   1690902   1693137   1694632   1695222   1694939  
  8650.000000   1693967   1692599   1691142   1689852   1688885  
  8640.000000   1688280   1687974   1687840   1687751   1687652  
  8630.000000   1687597   1687742   1688290   1689405   1691111  
  8620.000000   1693261   1695547   1697631   1699236   1700301  
  8610.000000   1700977   1701617   1702604   1704237   1706581  
  8600.000000   1709483   1712604   1715564   1718060   1719952  
  8590.000000   1721284   1722221   1723001   1723847   1724948  
  8580.000000   1726430   1728367   1730751   1733476   1736295  
  8570.000000   1738874   1740836   1741920   1742048   1741422  
  8560.000000   1740458   1739667   1739464   1740011   1741155  
  8550.000000   1742487   1743496   1743773   1743161   1741814  
  8540.000000   1740128   1738597   1737634   1737457   1738045  
  8530.000000   1739196   1740630   1742091   1743409   1744516  
  8520.000000   1745431   1746217   1746956   1747709   1748526  
  8510.000000   1749410   1750341   1751225   1751962   1752426  
  8500.000000   1752565   1752404   1752077   1751791   1751766  
  8490.000000   1752166   1753048   1754356   1755962   1757732  
  8480.000000   1759572   1761457   1763412   1765465   1767602  
  8470.000000   1769752   1771808   1773666   1775279   1776669  
  8460.000000   1777916   1779109   1780304   1781493   1782603  
  8450.000000   1783552   1784270   1784765   1785093   1785357  
  8440.000000   1785644   1786009   1786450   1786934   1787408  
  8430.000000   1787835   1788197   1788490   1788708   1788836  
  8420.000000   1788860   1788778   1788634   1788506   1788512  
  8410.000000   1788748   1789276   1790079   1791077   1792157  
  8400.000000   1793204   1794168   1795063   1795985   1797048  
  8390.000000   1798369   1800000   1801925   1804037   1806159  
  8380.000000   1808062   1809517   1810336   1810407   1809725  
  8370.000000   1808403   1806654   1804759   1802982   1801541  
  8360.000000   1800531   1799961   1799739   1799761   1799924  
  8350.000000   1800188   1800540   1800981   1801474   1801917  
  8340.000000   1802159   1802033   1801435   1800350   1798898  
  8330.000000   1797303   1795853   1794811   1794346   1794488  
  8320.000000   1795131   1796065   1797029   1797775   1798124  
  8310.000000   1798009   1797478   1796679   1795808   1795070  
  8300.000000   1794629   1794569   1794873   1795425   1796050  
  8290.000000   1796555   1796785   1796652   1796153   1795351  
  8280.000000   1794349   1793256   1792163   1791133   1790202  
  8270.000000   1789403   1788779   1788389   1788296   1788546  
  8260.000000   1789124   1789952   1790879   1791716   1792270  
  8250.000000   1792396   1792039   1791253   1790190   1789057  
  8240.000000   1788052   1787318   1786899   1786746   1786731  
  8230.000000   1786701   1786511   1786080   1785386   1784483  
  8220.000000   1783445   1782373   1781337   1780403   1779598  
  8210.000000   1778937   1778400   1777951   1777513   1776998  
  8200.000000   1776296   1775315   1773995   1772324   1770345  
  8190.000000   1768128   1765760   1763303   1760808   1758306  
  8180.000000   1755844   1753489   1751341   1749518   1748118  
  8170.000000   1747205   1746760   1746710   1746919   1747254  
  8160.000000   1747599   1747887   1748095   1748203   1748197  
  8150.000000   1748008   1747557   1746726   1745432   1743629  
  8140.000000   1741356   1738727   1735925   1733178   1730711  
  8130.000000   1728734   1727382   1726723   1726721   1727264  
  8120.000000   1728151   1729148   1730009   1730527   1730572  
  8110.000000   1730101   1729170   1727890   1726409   1724855  
  8100.000000   1723334   1721896   1720559   1719311   1718127  
  8090.000000   1716988   1715866   1714747   1713603   1712425  
  8080.000000   1711214   1709998   1708834   1707788   1706926  
  8070.000000   1706268   1705789   1705397   1704970   1704378  
  8060.000000   1703543   1702468   1701250   1700071   1699138  
  8050.000000   1698631   1698634   1699112   1699909   1700797  
  8040.000000   1701531   1701913   1701834   1701276   1700296  
  8030.000000   1698990   1697454   1695774   1694026   1692293  
  8020.000000   1690674   1689278   1688197   1687465   1687027  
  8010.000000   1686741   1686402   1685810   1684836   1683469  
  8000.000000   1681834   1680141   1678638   1677518   1676880  
  7990.000000   1676703   1676869   1677204   1677541   1677746  
  7980.000000   1677748   1677523   1677094   1676489   1675756  
  7970.000000   1674931   1674058   1673162   1672277   1671420  
  7960.000000   1670621   1669919   1669370   1669049   1669020  
  7950.000000   1669319   1669912   1670698   1671517   1672193  
  7940.000000   1672599   1672688   1672522   1672227   1671955  
  7930.000000   1671800   1671773   1671782   1671694   1671381  
  7920.000000   1670797   1669991   1669096   1668280   1667675  
  7910.000000   1667350   1667294   1667451   1667759   1668184  
  7900.000000   1668720   1669374   1670125   1670908   1671611  
  7890.000000   1672121   1672360   1672328   1672104   1671813  
  7880.000000   1671569   1671425   1671348   1671233   1670957  
  7870.000000   1670434   1669654   1668688   1667655   1666674  
  7860.000000   1665815   1665097   1664487   1663956   1663497  
  7850.000000   1663152   1662985   1663059   1663381   1663905  
  7840.000000   1664520   1665103   1665547   1665800   1665866  
  7830.000000   1665782   1665592   1665312   1664928   1664404  
  7820.000000   1663709   1662839   1661833   1660764   1659714  
  7810.000000   1658758   1657928   1657232   1656636   1656109  
  7800.000000   1655616   1655150   1654717   1654341   1654041  
  7790.000000   1653825   1653676   1653550   1653378   1653079  
  7780.000000   1652589   1651871   1650942   1649867   1648747  
  7770.000000   1647695   1646792   1646078   1645534   1645111  
  7760.000000   1644750   1644418   1644119   1643885   1643752  
  7750.000000   1643716   1643723   1643662   1643411   1642876  
  7740.000000   1642043   1640993   1639882   1638901   1638207  
  7730.000000   1637881   1637901   1638168   1638531   1638844  
  7720.000000   1638994   1638917   1638593   1638028   1637242  
  7710.000000   1636265   1635143   1633941   1632750   1631666  
  7700.000000   1630776   1630130   1629726   1629523   1629442  
  7690.000000   1629416   1629392   1629360   1629335   1629344  
  7680.000000   1629400   1629483   1629546   1629512   1629312  
  7670.000000   1628897   1628265   1627456   1626556   1625674  
  7660.000000   1624916   1624365   1624059   1623984   1624075  
  7650.000000   1624237   1624366   1624380   1624236   1623939  
  7640.000000   1623543   1623123   1622764   1622530   1622456  
  7630.000000   1622535   1622731   1622985   1623234   1623421  
  7620.000000   1623510   1623478   1623328   1623073   1622738  
  7610.000000   1622355   1621960   1621592   1621297   1621119  
  7600.000000   1621103   1621273   1621631   1622136   1622709  
  7590.000000   1623236   1623606   1623733   1623600   1623262  
  7580.000000   1622850   1622522   1622426   1622651   1623207  
  7570.000000   1624025   1624993   1625994   1626946   1627822  
  7560.000000   1628636   1629424   1630211   1630990   1631732  
  7550.000000   1632381   1632903   1633269   1633495   1633600  
  7540.000000   1633623   1633592   1633548   1633539   1633641  
  7530.000000   1633949   1634561   1635547   1636920   1638616  
  7520.000000   1640511   1642447   1644281   1645917   1647345  
  7510.000000   1648615   1649820   1651043   1652341   1653708  
  7500.000000   1655104   1656451   1657689   1658776   1659715  
  7490.000000   1660541   1661313   1662101   1662967   1663963  
  7480.000000   1665124   1666461   1667972   1669633   1671413  
  7470.000000   1673265   1675140   1676984   1678755   1680416  
  7460.000000   1681956   1683384   1684745   1686103   1687533  
  7450.000000   1689093   1690807   1692645   1694536   1696378  
  7440.000000   1698083   1699606   1700968   1702250   1703567  
  7430.000000   1705026   1706696   1708575   1710607   1712698  
  7420.000000   1714755   1716716   1718562   1720309   1721996  
  7410.000000   1723662   1725338   1727043   1728796   1730610  
  7400.000000   1732506   1734489   1736551   1738659   1740771  
  7390.000000   1742845   1744868   1746859   1748867   1750954  
  7380.000000   1753166   1755510   1757949   1760415   1762830  
  7370.000000   1765136   1767302   1769327   1771229   1773026  
  7360.000000   1774732   1776355   1777907   1779416   1780925  
  7350.000000   1782489   1784153   1785942   1787836   1789789  
  7340.000000   1791733   1793611   1795389   1797065   1798670  
  7330.000000   1800239   1801811   1803401   1805007   1806611  
  7320.000000   1808189   1809725   1811218   1812700   1814216  
  7310.000000   1815836   1817609   1819572   1821696   1823911  
  7300.000000   1826092   1828097   1829798   1831117   1832047  
  7290.000000   1832646   1833013   1833251   1833434   1833610  
  7280.000000   1833791   1834002   1834287   1834728   1835414  
  7270.000000   1836417   1837743   1839324   1841013   1842633  
  7260.000000   1844028   1845102   1845856   1846359   1846748  
  7250.000000   1847150   1847689   1848427   1849403   1850604  
  7240.000000   1852012   1853581   1855265   1857004   1858759  
  7230.000000   1860503   1862264   1864102   1866113   1868368  
  7220.000000   1870909   1873694   1876634   1879582   1882422  
  7210.000000   1885068   1887533   1889878   1892221   1894644  
  7200.000000   1897204   1899881   1902636   1905414   1908209  
  7190.000000   1911055   1914038   1917244   1920745   1924542  
  7180.000000   1928590   1932783   1937014   1941175   1945208  
  7170.000000   1949073   1952790   1956378   1959897   1963391  
  7160.000000   1966927   1970544   1974295   1978197   1982277  
  7150.000000   1986542   1991011   1995693   2000606   2005742  
  7140.000000   2011086   2016575   2022146   2027707   2033216  
  7130.000000   2038639   2044016   2049394   2054865   2060484  
  7120.000000   2066306   2072329   2078547   2084915   2091408  
  7110.000000   2097980   2104609   2111250   2117880   2124470  
  7100.000000   2131033   2137595   2144226   2150989   2157936  
  7090.000000   2165068   2172345   2179682   2187002   2194242  
  7080.000000   2201397   2208490   2215577   2222691   2229844  
  7070.000000   2237003   2244128   2251178   2258150   2265064  
  7060.000000   2271968   2278898   2285873   2292885   2299916  
  7050.000000   2306962   2314044   2321206   2328495   2335930  
  7040.000000   2343481   2351069   2358586   2365937   2373068  
  7030.000000   2379985   2386737   2393402   2400039   2406687  
  7020.000000   2413344   2419998   2426629   2433230   2439786  
  7010.000000   2446276   2452645   2458835   2464778   2470458  
  7000.000000   2475903   2481222   2486536   2491971   2497581  
  6990.000000   2503359   2509204   2514999   2520616   2525987  
  6980.000000   2531079   2535918   2540528   2544946   2549172  
  6970.000000   2553219   2557093   2560838   2564496   2568130  
  6960.000000   2571762   2575402   2579007   2582549   2585985  
  6950.000000   2589328   2592594   2595826   2599035   2602216  
  6940.000000   2605312   2608268   2611024   2613570   2615920  
  6930.000000   2618132   2620263   2622368   2624461   2626547  
  6920.000000   2628602   2630614   2632561   2634445   2636258  
  6910.000000   2638007   2639695   2641344   2642974   2644627  
  6900.000000   2646323   2648075   2649855   2651616   2653289  
  6890.000000   2654825   2656197   2657419   2658527   2659569  
  6880.000000   2660572   2661542   2662466   2663329   2664129  
  6870.000000   2664891   2665650   2666446   2667300   2668209  
  6860.000000   2669148   2670098   2671051   2672028   2673062  
  6850.000000   2674186   2675404   2676690   2677985   2679226  
  6840.000000   2680363   2681380   2682289   2683127   2683921  
  6830.000000   2684688   2685417   2686094   2686702   2687244  
  6820.000000   2687732   2688185   2688601   2688970   2689259  
  6810.000000   2689444   2689513   2689496   2689439   2689409  
  6800.000000   2689452   2689589   2689795   2690029   2690227  
  6790.000000   2690349   2690366   2690281   2690108   2689870  
  6780.000000   2689587   2689277   2688947   2688605   2688248  
  6770.000000   2687871   2687460   2687006   2686505   2685972  
  6760.000000   2685438   2684949   2684541   2684235   2684018  
  6750.000000   2683852   2683682   2683459   2683156   2682770  
  6740.000000   2682320   2681830   2681318   2680785   2680224  
  6730.000000   2679627   2678994   2678338   2677678   2677030  
  6720.000000   2676398   2675777   2675156   2674533   2673917  
  6710.000000   2673331   2672789   2672295   2671824   2671339  
  6700.000000   2670790   2670152   2669417   2668614   2667777  
  6690.000000   2666937   2666099   2665249   2664353   2663386  
  6680.000000   2662336   2661216   2660044   2658843   2657613  
  6670.000000   2656348   2655036   2653684   2652320   2650994  
  6660.000000   2649747   2648603   2647535   2646486   2645380  
  6650.000000   2644164   2642826   2641405   2639965   2638569  
  6640.000000   2637239   2635953   2634646   2633249   2631717  
  6630.000000   2630053   2628300   2626526   2624780   2623089  
  6620.000000   2621434   2619783   2618100   2616381   2614645  
  6610.000000   2612933   2611279   2609692   2608150   2606605  
  6600.000000   2605003   2603306   2601496   2599582   2597590  
  6590.000000   2595550   2593497   2591466   2589496   2587626  
  6580.000000   2585892   2584314   2582883   2581566   2580311  
  6570.000000   2579058   2577766   2576411   2575001   2573548  
  6560.000000   2572074   2570583   2569076   2567542   2565982  
  6550.000000   2564406   2562839   2561307   2559836   2558439  
  6540.000000   2557116   2555859   2554656   2553494   2552363  
  6530.000000   2551247   2550130   2548992   2547827   2546636  
  6520.000000   2545444   2544282   2543185   2542175   2541251  
  6510.000000   2540393   2539572   2538756   2537930   2537089  
  6500.000000   2536234   2535361   2534459   2533507   2532493  
  6490.000000   2531421   2530321   2529240   2528229   2527315  
  6480.000000   2526495   2525731   2524972   2524177   2523333  
  6470.000000   2522460   2521602   2520801   2520077   2519421  
  6460.000000   2518798   2518171   2517516   2516832   2516140  
  6450.000000   2515459   2514793   2514121   2513406   2512609  
  6440.000000   2511715   2510739   2509724   2508725   2507788  
  6430.000000   2506933   2506156   2505440   2504770   2504147  
  6420.000000   2503586   2503112   2502736   2502448   2502219  
  6410.000000   2502002   2501760   2501469   2501130   2500757  
  6400.000000   2500369   2499980   2499594   2499213   2498841  
  6390.000000   2498493   2498190   2497947   2497768   2497634  
  6380.000000   2497508   2497345   2497105   2496770   2496345  
  6370.000000   2495858   2495344   2494841   2494374   2493964  
  6360.000000   2493619   2493344   2493129   2492958   2492798  
  6350.000000   2492610   2492350   2491990   2491517   2490944  
  6340.000000   2490297   2489609   2488904   2488197   2487489  
  6330.000000   2486785   2486090   2485428   2484816   2484278  
  6320.000000   2483810   2483391   2482971   2482495   2481901  
  6310.000000   2481154   2480233   2479147   2477919   2476592  
  6300.000000   2475211   2473832   2472498   2471249   2470092  
  6290.000000   2469014   2467965   2466890   2465722   2464429  
  6280.000000   2463000   2461465   2459869   2458270   2456703  
  6270.000000   2455184   2453702   2452232   2450742   2449202  
  6260.000000   2447586   2445878   2444059   2442128   2440088  
  6250.000000   2437969   2435813   2433675   2431601   2429621  
  6240.000000   2427732   2425911   2424117   2422322   2420512  
  6230.000000   2418695   2416890   2415114   2413369   2411638  
  6220.000000   2409897   2408120   2406298   2404438   2402559  
  6210.000000   2400680   2398810   2396947   2395083   2393214  
  6200.000000   2391347   2389504   2387707   2385969   2384280  
  6190.000000   2382615   2380936   2379218   2377458   2375678  
  6180.000000   2373914   2372198   2370542   2368932   2367333  
  6170.000000   2365708   2364037   2362326   2360606   2358920  
  6160.000000   2357303   2355768   2354304   2352881   2351463  
  6150.000000   2350019   2348531   2346990   2345402   2343773  
  6140.000000   2342123   2340475   2338868   2337338   2335917  
  6130.000000   2334615   2333414   2332273   2331140   2329966  
  6120.000000   2328734   2327454   2326165   2324913   2323738  
  6110.000000   2322651   2321647   2320690   2319753   2318805  
  6100.000000   2317843   2316867   2315898   2314952   2314051  
  6090.000000   2313209   2312447   2311772   2311193   2310697  
  6080.000000   2310265   2309864   2309469   2309061   2308648  
  6070.000000   2308253   2307914   2307654   2307489   2307403  
  6060.000000   2307373   2307364   2307361   2307355   2307365  
  6050.000000   2307404   2307493   2307634   2307832   2308081  
  6040.000000   2308398   2308800   2309323   2309984   2310797  
  6030.000000   2311741   2312788   2313892   2315031   2316190  
  6020.000000   2317381   2318616   2319911   2321251   2322614  
  6010.000000   2323956   2325245   2326458   2327602   2328695  
  6000.000000   2329773   2330864   2331995   2333176   2334417  
  5990.000000   2335720   2337091   2338528   2340031   2341584  
  5980.000000   2343174   2344784   2346412   2348066   2349774  
  5970.000000   2351563   2353462   2355473   2357596   2359800  
  5960.000000   2362064   2364357   2366672   2368998   2371344  
  5950.000000   2373709   2376101   2378515   2380959   2383438  
  5940.000000   2385969   2388565   2391243   2394004   2396845  
  5930.000000   2399753   2402710   2405699   2408707   2411717  
  5920.000000   2414711   2417663   2420545   2423324   2425980  
  5910.000000   2428501   2430893   2433177   2435382   2437544  
  5900.000000   2439696   2441870   2444090   2446373   2448724  
  5890.000000   2451138   2453590   2456057   2458506   2460921  
  5880.000000   2463295   2465635   2467955   2470262   2472548  
  5870.000000   2474791   2476959   2479020   2480964   2482803  
  5860.000000   2484574   2486325   2488104   2489939   2491844  
  5850.000000   2493811   2495829   2497891   2499997   2502159  
  5840.000000   2504390   2506702   2509094   2511557   2514075  
  5830.000000   2516628   2519201   2521773   2524327   2526842  
  5820.000000   2529297   2531672   2533955   2536145   2538249  
  5810.000000   2540289   2542280   2544247   2546196   2548152  
  5800.000000   2550113   2552100   2554099   2556116   2558111  
  5790.000000   2560058   2561886   2563549   2564970   2566105  
  5780.000000   2566891   2567298   2567290   2566866   2566036  
  5770.000000   2564859   2563409   2561800   2560132   2558507  
  5760.000000   2556980   2555587   2554316   2553161   2552101  
  5750.000000   2551140   2550284   2549544   2548924   2548411  
  5740.000000   2547986   2547617   2547292   2547001   2546756  
  5730.000000   2546563   2546436   2546363   2546333   2546318  
  5720.000000   2546308   2546297   2546301   2546335   2546421  
  5710.000000   2546561   2546755   2546984   2547235   2547495  
  5700.000000   2547761   2548035   2548317   2548608   2548903  
  5690.000000   2549203   2549507   2549828   2550175   2550559  
  5680.000000   2550968   2551384   2551764   2552067   2552245  
  5670.000000   2552270   2552114   2551774   2551241   2550524  
  5660.000000   2549628   2548583   2547420   2546195   2544958  
  5650.000000   2543762   2542631   2541579   2540589   2539647  
  5640.000000   2538729   2537828   2536943   2536080   2535242  
  5630.000000   2534426   2533627   2532837   2532054   2531280  
  5620.000000   2530526   2529797   2529093   2528401   2527708  
  5610.000000   2526999   2526266   2525515   2524755   2523997  
  5600.000000   2523244   2522493   2521733   2520961   2520179  
  5590.000000   2519400   2518641   2517911   2517201   2516491  
  5580.000000   2515748   2514946   2514074   2513145   2512186  
  5570.000000   2511232   2510305   2509415   2508546   2507678  
  5560.000000   2506784   2505853   2504878   2503865   2502819  
  5550.000000   2501746   2500646   2499523   2498386   2497251  
  5540.000000   2496134   2495052   2494008   2492995   2491999  
  5530.000000   2491006   2490007   2489006   2488013   2487037  
  5520.000000   2486079   2485137   2484200   2483263   2482327  
  5510.000000   2481401   2480490   2479597   2478703   2477785  
  5500.000000   2476812   2475770   2474661   2473513   2472360  
  5490.000000   2471233   2470136   2469052   2467940   2466765  
  5480.000000   2465501   2464155   2462749   2461319   2459888  
  5470.000000   2458464   2457031   2455568   2454046   2452457  
  5460.000000   2450797   2449075   2447293   2445454   2443553  
  5450.000000   2441598   2439608   2437617   2435664   2433781  
  5440.000000   2431977   2430239   2428541   2426854   2425171  
  5430.000000   2423498   2421862   2420275   2418746   2417252  
  5420.000000   2415773   2414287   2412811   2411379   2410061  
  5410.000000   2408909   2407962   2407201   2406597   2406088  
  5400.000000   2405644   2405242   2404904   2404647   2404508  
  5390.000000   2404487   2404595   2404809   2405142   2405595  
  5380.000000   2406209   2406990   2407963   2409093   2410362  
  5370.000000   2411708   2413125   2414584   2416130   2417769  
  5360.000000   2419563   2421511   2423662   2426008   2428613  
  5350.000000   2431493   2434739   2438367   2442446   2446941  
  5340.000000   2451868   2457152   2462816   2468807   2475181  
  5330.000000   2481900   2489023   2496491   2504350   2512542  
  5320.000000   2521153   2530178   2539761   2549921   2560795  
  5310.000000   2572353   2584666   2597642   2611322   2625621  
  5300.000000   2640616   2656272   2672711   2689926   2708041  
  5290.000000   2727026   2746952   2767724   2789331   2811620  
  5280.000000   2834550   2858001   2882001   2906525   2931675  
  5270.000000   2957461   2983919   3010943   3038404   3066100  
  5260.000000   3093868   3121597   3149265   3176915   3204577  
  5250.000000   3232260   3259841   3287162   3313953   3340050  
  5240.000000   3365268   3389638   3413170   3436049   3458336  
  5230.000000   3480178   3501518   3522361   3542519   3561940  
  5220.000000   3580453   3598096   3614817   3630768   3645968  
  5210.000000   3660577   3674563   3687991   3700725   3712768  
  5200.000000   3723979   3734415   3744024   3752937   3761142  
  5190.000000   3768756   3775719   3782092   3787786   3792862  
  5180.000000   3797270   3801111   3804364   3807123   3809333  
  5170.000000   3811045   3812187   3812813   3812885   3812497  
  5160.000000   3811638   3810395   3808730   3806686   3804207  
  5150.000000   3801336   3798052   3794437   3790499   3786318  
  5140.000000   3781884   3777235   3772338   3767224   3761878  
  5130.000000   3756351   3750652   3744829   3738876   3732818  
  5120.000000   3726636   3720354   3713976   3707552   3701102  
  5110.000000   3694669   3688253   3681857   3675456   3669038  
  5100.000000   3662587   3656113   3649618   3643124   3636631  
  5090.000000   3630149   3623667   3617192   3610720   3604262  
  5080.000000   3597820   3591394   3584968   3578522   3572028  
  5070.000000   3565471   3558843   3552160   3545439   3538706  
  5060.000000   3531972   3525243   3518506   3511753   3504969  
  5050.000000   3498152   3491302   3484431   3477542   3470640  
  5040.000000   3463721   3456787   3449839   3442889   3435959  
  5030.000000   3429071   3422251   3415511   3408859   3402286  
  5020.000000   3395789   3389350   3382972   3376650   3370406  
  5010.000000   3364247   3358204   3352287   3346526   3340918  
  5000.000000   3335487   3330219   3325131   3320204   3315458  
  4990.000000   3310876   3306488   3302285   3298306   3294543  
  4980.000000   3291039   3287781   3284808   3282105   3279717  
  4970.000000   3277628   3275886   3274472   3273425   3272713  
  4960.000000   3272360   3272325   3272635   3273253   3274221  
  4950.000000   3275512   3277168   3279151   3281486   3284117  
  4940.000000   3287057   3290254   3293739   3297484   3301543  
  4930.000000   3305900   3310605   3315631   3321007   3326689  
  4920.000000   3332691   3338970   3345546   3352387   3359515  
  4910.000000   3366904   3374567   3382469   3390609   3398941  
  4900.000000   3407450   3416091   3424849   3433691   3442610  
  4890.000000   3451592   3460630   3469710   3478811   3487905  
  4880.000000   3496951   3505915   3514748   3523420   3531886  
  4870.000000   3540131   3548118   3555846   3563292   3570477  
  4860.000000   3577394   3584076   3590520   3596750   3602742  
  4850.000000   3608507   3614008   3619260   3624247   3629007  
  4840.000000   3633551   3637932   3642162   3646283   3650289  
  4830.000000   3654205   3658015   3661739   3665363   3668902  
  4820.000000   3672341   3675687   3678919   3682040   3685038  
  4810.000000   3687924   3690697   3693376   3695966   3698483  
  4800.000000   3700931   3703329   3705683   3708017   3710342  
  4790.000000   3712680   3715031   3717404   3719783   3722165  
  4780.000000   3724530   3726873   3729174   3731426   3733605  
  4770.000000   3735700   3737680   3739537   3741252   3742829  
  4760.000000   3744263   3745568   3746737   3747782   3748684  
  4750.000000   3749446   3750047   3750493   3750769   3750888  
  4740.000000   3750843   3750653   3750314   3749851   3749265  
  4730.000000   3748581   3747800   3746940   3745991   3744953  
  4720.000000   3743809   3742554   3741177   3739689   3738102  
  4710.000000   3736448   3734760   3733079   3731440   3729877  
  4700.000000   3728411   3727057   3725814   3724675   3723623  
  4690.000000   3722641   3721707   3720808   3719933   3719073  
  4680.000000   3718226   3717377   3716518   3715623   3714680  
  4670.000000   3713667   3712585   3711437   3710252   3709057  
  4660.000000   3707899   3706808   3705827   3704980   3704296  
  4650.000000   3703786   3703467   3703340   3703406   3703651  
  4640.000000   3704064   3704619   3705299   3706081   3706947  
  4630.000000   3707876   3708848   3709835   3710811   3711744  
  4620.000000   3712606   3713374   3714034   3714581   3715014  
  4610.000000   3715339   3715562   3715697   3715755   3715757  
  4600.000000   3715718   3715663   3715599   3715540   3715474  
  4590.000000   3715398   3715287   3715131   3714912   3714627  
  4580.000000   3714270   3713847   3713353   3712797   3712172  
  4570.000000   3711488   3710742   3709946   3709099   3708211  
  4560.000000   3707274   3706288   3705239   3704128   3702946  
  4550.000000   3701703   3700406   3699072   3697711   3696332  
  4540.000000   3694939   3693530   3692103   3690652   3689184  
  4530.000000   3687696   3686202   3684703   3683227   3681778  
  4520.000000   3680400   3679104   3677948   3676946   3676160  
  4510.000000   3675596   3675318   3675325   3675688   3676403  
  4500.000000   3677551   3679126   3681210   3683786   3686930  
  4490.000000   3690617   3694922   3699817   3705376   3711569  
  4480.000000   3718462   3726011   3734263   3743161   3752734  
  4470.000000   3762909   3773694   3785000   3796806   3809008  
  4460.000000   3821566   3834373   3847388   3860521   3873738  
  4450.000000   3886970   3900190   3913351   3926436   3939427  
  4440.000000   3952324   3965137   3977872   3990556   4003181  
  4430.000000   4015770   4028285   4040737   4053055   4065235  
  4420.000000   4077182   4088882   4100228   4111204   4121697  
  4410.000000   4131686   4141050   4149761   4157693   4164824  
  4400.000000   4171057   4176415   4180871   4184518   4187403  
  4390.000000   4189668   4191390   4192712   4193699   4194463  
  4380.000000   4195051   4195552   4196014   4196525   4197152  
  4370.000000   4197987   4199107   4200585   4202480   4204825  
  4360.000000   4207640   4210911   4214615   4218709   4223141  
  4350.000000   4227862   4232808   4237948   4243236   4248668  
  4340.000000   4254215   4259867   4265547   4271143   4276444  
  4330.000000   4281182   4285030   4287684   4288908   4288627  
  4320.000000   4286934   4284128   4280615   4276893   4273383  
  4310.000000   4270442   4268226   4266789   4266021   4265791  
  4300.000000   4265917   4266268   4266731   4267238   4267743  
  4290.000000   4268211   4268627   4268978   4269287   4269577  
  4280.000000   4269897   4270293   4270798   4271442   4272223  
  4270.000000   4273147   4274178   4275287   4276381   4277348  
  4260.000000   4278007   4278170   4277635   4276268   4274011  
  4250.000000   4270935   4267204   4263078   4258818   4254685  
  4240.000000   4250841   4247390   4244319   4241586   4239087  
  4230.000000   4236738   4234447   4232150   4229796   4227342  
  4220.000000   4224770   4222065   4219256   4216372   4213496  
  4210.000000   4210690   4208052   4205636   4203505   4201674  
  4200.000000   4200163   4198947   4198018   4197326   4196851  
  4190.000000   4196528   4196347   4196255   4196274   4196383  
  4180.000000   4196645   4197064   4197714   4198601   4199796  
  4170.000000   4201304   4203206   4205516   4208324   4211639  
  4160.000000   4215525   4219943   4224909   4230336   4236216  
  4150.000000   4242462   4249093   4256054   4263402   4271108  
  4140.000000   4279247   4287800   4296841   4306350   4316394  
  4130.000000   4326938   4338027   4349607   4361698   4374237  
  4120.000000   4387243   4400672   4414557   4428873   4443660  
  4110.000000   4458885   4474569   4490656   4507135   4523929  
  4100.000000   4541005   4558286   4575737   4593299   4610956  
  4090.000000   4628688   4646499   4664398   4682399   4700520  
  4080.000000   4718763   4737136   4755607   4774162   4792727  
  4070.000000   4811257   4829648   4847852   4865773   4883400  
  4060.000000   4900664   4917586   4934095   4950203   4965814  
  4050.000000   4980947   4995518   5009597   5023140   5036246  
  4040.000000   5048848   5060992   5072528   5083444   5093562  
  4030.000000   5102894   5111312   5118880   5125517   5131280  
  4020.000000   5136053   5139888   5142737   5144677   5145642  
  4010.000000   5145791   5145209   5143947   5141792   5138857  
  4000.000000   5135535  
##END= 
