##TITLE= Sample 007 By ssteindl date Donnerstag, November 22 2018
##JCAMP-DX= 4.24
##DATA TYPE= INFRARED SPECTRUM
##ORIGIN= Exported PE Spectrum Data File
##OWNER= Sandra Steindl
##DATE= 18/11/22
##TIME= 12:43:39.00
##SPECTROMETER/DATA SYSTEM= PERKIN-ELMER Frontier FT-IR/NIR IR
##INSTRUMENT PARAMETERS=
  APODIZATION=stark
  DETECTOR=INGAAS
##RESOLUTION= 16.000000
##DELTAX= -2.000000
##XUNITS= 1/CM
##YUNITS= A
##XFACTOR= 1.00
##YFACTOR= 0.00000011920928955078
##FIRSTX= 10000.00
##LASTX= 4000.00
##NPOINTS= 3001
##FIRSTY= 0.208111
##MAXY= 0.640879
##MINY= 0.178143
##XYDATA= (X++(Y..Y))
 10000.000000   1745763   1740130   1735048   1731273   1729103  
  9990.000000   1728465   1729360   1731728   1735122   1738646  
  9980.000000   1741354   1742461   1741666   1739186   1735839  
  9970.000000   1732627   1730414   1729535   1729732   1730301  
  9960.000000   1730432   1729660   1728001   1726024   1724487  
  9950.000000   1724063   1725000   1727051   1729583   1731793  
  9940.000000   1732947   1732497   1730156   1725864   1719846  
  9930.000000   1712606   1705006   1698159   1693241   1691135  
  9920.000000   1692054   1695347   1699590   1703060   1704376  
  9910.000000   1703068   1699784   1696028   1693523   1693482  
  9900.000000   1696095   1700463   1705038   1708274   1709337  
  9890.000000   1708338   1706238   1704258   1703281   1703406  
  9880.000000   1703963   1703871   1702258   1698869   1694271  
  9870.000000   1689581   1686002   1684385   1684873   1687082  
  9860.000000   1690228   1693652   1696946   1700076   1703190  
  9850.000000   1706376   1709514   1712207   1713926   1714157  
  9840.000000   1712592   1709163   1704097   1697802   1690894  
  9830.000000   1684098   1678230   1674052   1672066   1672335  
  9820.000000   1674321   1677020   1679212   1679942   1678879  
  9810.000000   1676520   1674028   1672802   1673942   1677773  
  9800.000000   1683715   1690450   1696418   1700336   1701620  
  9790.000000   1700498   1697815   1694659   1691946   1690164  
  9780.000000   1689310   1689005   1688720   1687954   1686395  
  9770.000000   1683944   1680694   1676920   1672967   1669291  
  9760.000000   1666297   1664357   1663667   1664235   1665878  
  9750.000000   1668254   1670969   1673601   1675808   1677276  
  9740.000000   1677797   1677206   1675481   1672739   1669309  
  9730.000000   1665719   1662594   1660562   1660031   1661149  
  9720.000000   1663706   1667267   1671222   1674940   1677827  
  9710.000000   1679389   1679290   1677371   1673720   1668657  
  9700.000000   1662738   1656666   1651185   1646930   1644280  
  9690.000000   1643330   1643822   1645320   1647220   1648973  
  9680.000000   1650092   1650272   1649428   1647660   1645292  
  9670.000000   1642681   1640192   1637965   1635951   1633860  
  9660.000000   1631380   1628321   1624826   1621413   1618853  
  9650.000000   1617930   1619074   1622178   1626518   1631018  
  9640.000000   1634627   1636707   1637265   1636852   1636299  
  9630.000000   1636285   1637070   1638369   1639562   1639960  
  9620.000000   1639165   1637197   1634466   1631571   1629016  
  9610.000000   1627104   1625839   1625119   1624793   1624841  
  9600.000000   1625286   1626161   1627357   1628612   1629580  
  9590.000000   1629952   1629620   1628644   1627226   1625487  
  9580.000000   1623437   1620907   1617753   1614000   1609999  
  9570.000000   1606426   1604058   1603554   1605098   1608388  
  9560.000000   1612638   1616945   1620557   1623125   1624742  
  9550.000000   1625721   1626392   1626794   1626698   1625653  
  9540.000000   1623274   1619452   1614468   1608976   1603789  
  9530.000000   1599718   1597315   1596845   1598191   1600961  
  9520.000000   1604502   1608000   1610593   1611507   1610279  
  9510.000000   1606892   1601885   1596216   1591063   1587439  
  9500.000000   1585957   1586620   1588925   1592015   1594997  
  9490.000000   1597190   1598260   1598251   1597451   1596281  
  9480.000000   1595159   1594446   1594428   1595284   1597069  
  9470.000000   1599648   1602686   1605677   1608046   1609338  
  9460.000000   1609323   1608099   1606008   1603530   1601089  
  9450.000000   1598965   1597203   1595725   1594339   1592935  
  9440.000000   1591440   1589923   1588461   1587139   1585951  
  9430.000000   1584802   1583506   1581798   1579402   1576037  
  9420.000000   1571534   1565890   1559395   1552636   1546428  
  9410.000000   1541620   1538837   1538275   1539610   1542090  
  9400.000000   1544791   1546873   1547867   1547697   1546679  
  9390.000000   1545231   1543759   1542446   1541357   1540467  
  9380.000000   1539840   1539623   1540033   1541228   1543211  
  9370.000000   1545783   1548592   1551244   1553437   1555016  
  9360.000000   1555966   1556301   1556025   1555089   1553519  
  9350.000000   1551501   1549452   1547966   1547598   1548690  
  9340.000000   1551128   1554410   1557735   1560357   1561838  
  9330.000000   1562212   1561912   1561491   1561334   1561437  
  9320.000000   1561429   1560740   1558921   1555922   1552206  
  9310.000000   1548626   1546077   1545192   1546067   1548284  
  9300.000000   1551033   1553430   1554805   1554872   1553787  
  9290.000000   1551976   1549952   1548126   1546711   1545733  
  9280.000000   1545109   1544741   1544618   1544800   1545385  
  9270.000000   1546432   1547847   1549396   1550669   1551259  
  9260.000000   1550864   1549446   1547275   1544867   1542828  
  9250.000000   1541651   1541502   1542136   1542948   1543211  
  9240.000000   1542364   1540220   1537034   1533393   1529990  
  9230.000000   1527361   1525681   1524754   1524173   1523535  
  9220.000000   1522675   1521688   1520897   1520587   1520887  
  9210.000000   1521640   1522502   1523057   1523011   1522330  
  9200.000000   1521283   1520342   1520016   1520697   1522576  
  9190.000000   1525634   1529636   1534168   1538648   1542427  
  9180.000000   1544883   1545565   1544335   1541482   1537721  
  9170.000000   1533999   1531194   1529820   1529854   1530771  
  9160.000000   1531746   1532013   1531147   1529253   1526835  
  9150.000000   1524603   1523100   1522564   1522853   1523604  
  9140.000000   1524436   1525119   1525658   1526171   1526753  
  9130.000000   1527322   1527624   1527325   1526191   1524212  
  9120.000000   1521656   1518979   1516657   1515012   1514095  
  9110.000000   1513785   1513881   1514265   1514910   1515859  
  9100.000000   1517106   1518489   1519650   1520121   1519510  
  9090.000000   1517657   1514749   1511256   1507827   1505036  
  9080.000000   1503254   1502517   1502605   1503120   1503649  
  9070.000000   1503879   1503645   1502967   1501985   1500975  
  9060.000000   1500256   1500181   1501034   1502954   1505870  
  9050.000000   1509435   1513110   1516207   1518100   1518344  
  9040.000000   1516818   1513724   1509531   1504885   1500490  
  9030.000000   1496992   1494866   1494370   1495489   1497934  
  9020.000000   1501137   1504391   1506977   1508348   1508227  
  9010.000000   1506713   1504252   1501490   1499105   1497595  
  9000.000000   1497224   1497938   1499454   1501312   1503017  
  8990.000000   1504141   1504385   1503648   1502024   1499820  
  8980.000000   1497499   1495579   1494503   1494511   1495575  
  8970.000000   1497391   1499477   1501331   1502594   1503149  
  8960.000000   1503107   1502729   1502276   1501908   1501630  
  8950.000000   1501334   1500905   1500298   1499615   1499049  
  8940.000000   1498809   1498997   1499547   1500235   1500747  
  8930.000000   1500814   1500310   1499300   1498033   1496854  
  8920.000000   1496111   1496053   1496767   1498170   1500041  
  8910.000000   1502077   1503978   1505487   1506480   1506948  
  8900.000000   1507012   1506847   1506637   1506496   1506456  
  8890.000000   1506475   1506491   1506493   1506560   1506862  
  8880.000000   1507592   1508889   1510736   1512933   1515125  
  8870.000000   1516903   1517937   1518074   1517396   1516182  
  8860.000000   1514839   1513773   1513290   1513523   1514411  
  8850.000000   1515755   1517269   1518671   1519737   1520354  
  8840.000000   1520535   1520406   1520154   1519961   1519958  
  8830.000000   1520170   1520544   1520956   1521300   1521520  
  8820.000000   1521659   1521830   1522168   1522770   1523650  
  8810.000000   1524741   1525923   1527080   1528153   1529142  
  8800.000000   1530106   1531102   1532168   1533285   1534406  
  8790.000000   1535475   1536460   1537361   1538205   1539022  
  8780.000000   1539840   1540681   1541582   1542597   1543799  
  8770.000000   1545231   1546875   1548606   1550209   1551444  
  8760.000000   1552131   1552258   1551997   1551686   1551715  
  8750.000000   1552393   1553847   1555966   1558459   1560935  
  8740.000000   1563042   1564537   1565331   1565473   1565128  
  8730.000000   1564529   1563955   1563702   1564048   1565201  
  8720.000000   1567225   1569995   1573181   1576341   1579036  
  8710.000000   1580991   1582173   1582791   1583208   1583762  
  8700.000000   1584660   1585855   1587124   1588143   1588671  
  8690.000000   1588639   1588190   1587626   1587285   1587467  
  8680.000000   1588334   1589939   1592225   1595067   1598290  
  8670.000000   1601652   1604882   1607667   1609748   1610957  
  8660.000000   1611323   1611058   1610532   1610151   1610264  
  8650.000000   1611068   1612608   1614803   1617505   1620561  
  8640.000000   1623802   1627064   1630130   1632775   1634794  
  8630.000000   1636111   1636833   1637257   1637789   1638785  
  8620.000000   1640418   1642582   1644933   1647011   1648426  
  8610.000000   1649007   1648865   1648330   1647809   1647629  
  8600.000000   1647928   1648653   1649638   1650721   1651836  
  8590.000000   1653037   1654442   1656156   1658185   1660439  
  8580.000000   1662754   1664985   1667056   1668978   1670831  
  8570.000000   1672670   1674499   1676223   1677707   1678824  
  8560.000000   1679528   1679873   1679999   1680082   1680276  
  8550.000000   1680690   1681368   1682332   1683585   1685138  
  8540.000000   1686969   1689023   1691186   1693303   1695230  
  8530.000000   1696872   1698237   1699402   1700502   1701636  
  8520.000000   1702857   1704120   1705339   1706435   1707402  
  8510.000000   1708335   1709386   1710753   1712567   1714893  
  8500.000000   1717653   1720703   1723846   1726894   1729671  
  8490.000000   1732031   1733853   1735034   1735494   1735207  
  8480.000000   1734240   1732763   1731042   1729399   1728147  
  8470.000000   1727524   1727621   1728372   1729576   1730957  
  8460.000000   1732231   1733178   1733703   1733849   1733794  
  8450.000000   1733782   1734082   1734896   1736333   1738366  
  8440.000000   1740870   1743646   1746490   1749229   1751749  
  8430.000000   1753999   1755969   1757673   1759134   1760380  
  8420.000000   1761455   1762411   1763310   1764203   1765106  
  8410.000000   1766004   1766829   1767517   1768009   1768313  
  8400.000000   1768478   1768617   1768832   1769209   1769752  
  8390.000000   1770403   1771047   1771569   1771881   1771956  
  8380.000000   1771839   1771617   1771394   1771248   1771210  
  8370.000000   1771265   1771361   1771448   1771498   1771536  
  8360.000000   1771624   1771865   1772342   1773109   1774131  
  8350.000000   1775302   1776454   1777404   1778002   1778161  
  8340.000000   1777884   1777241   1776347   1775312   1774219  
  8330.000000   1773119   1772055   1771080   1770279   1769753  
  8320.000000   1769594   1769841   1770434   1771228   1772004  
  8310.000000   1772569   1772812   1772756   1772552   1772426  
  8300.000000   1772603   1773208   1774212   1775429   1776579  
  8290.000000   1777382   1777649   1777345   1776593   1775641  
  8280.000000   1774773   1774228   1774114   1774393   1774896  
  8270.000000   1775396   1775667   1775568   1775065   1774241  
  8260.000000   1773246   1772243   1771340   1770571   1769896  
  8250.000000   1769235   1768524   1767740   1766925   1766161  
  8240.000000   1765520   1765042   1764692   1764393   1764044  
  8230.000000   1763590   1763034   1762457   1761971   1761676  
  8220.000000   1761599   1761682   1761786   1761735   1761368  
  8210.000000   1760585   1759370   1757792   1755976   1754066  
  8200.000000   1752196   1750473   1748950   1747641   1746502  
  8190.000000   1745466   1744454   1743420   1742366   1741343  
  8180.000000   1740431   1739691   1739117   1738611   1737990  
  8170.000000   1737040   1735616   1733714   1731520   1729364  
  8160.000000   1727604   1726502   1726094   1726184   1726381  
  8150.000000   1726252   1725464   1723918   1721772   1719373  
  8140.000000   1717111   1715273   1713947   1713016   1712243  
  8130.000000   1711369   1710240   1708829   1707242   1705637  
  8120.000000   1704150   1702849   1701714   1700688   1699718  
  8110.000000   1698803   1697999   1697385   1697029   1696936  
  8100.000000   1697038   1697203   1697264   1697063   1696487  
  8090.000000   1695487   1694097   1692417   1690607   1688851  
  8080.000000   1687321   1686138   1685329   1684817   1684433  
  8070.000000   1683970   1683242   1682156   1680741   1679144  
  8060.000000   1677583   1676272   1675354   1674851   1674671  
  8050.000000   1674638   1674565   1674300   1673772   1672985  
  8040.000000   1672002   1670908   1669781   1668675   1667616  
  8030.000000   1666607   1665649   1664733   1663862   1663029  
  8020.000000   1662233   1661470   1660735   1660032   1659366  
  8010.000000   1658750   1658208   1657762   1657441   1657264  
  8000.000000   1657236   1657332   1657499   1657649   1657684  
  7990.000000   1657513   1657095   1656441   1655632   1654778  
  7980.000000   1653997   1653357   1652864   1652457   1652042  
  7970.000000   1651544   1650939   1650292   1649719   1649361  
  7960.000000   1649315   1649594   1650111   1650694   1651148  
  7950.000000   1651299   1651061   1650438   1649530   1648488  
  7940.000000   1647475   1646634   1646057   1645794   1645852  
  7930.000000   1646208   1646811   1647588   1648434   1649225  
  7920.000000   1649826   1650121   1650037   1649563   1648768  
  7910.000000   1647779   1646761   1645877   1645248   1644930  
  7900.000000   1644900   1645078   1645337   1645557   1645636  
  7890.000000   1645524   1645214   1644743   1644167   1643547  
  7880.000000   1642932   1642347   1641798   1641267   1640738  
  7870.000000   1640186   1639599   1638972   1638316   1637649  
  7860.000000   1636995   1636378   1635816   1635328   1634930  
  7850.000000   1634645   1634501   1634530   1634752   1635159  
  7840.000000   1635702   1636286   1636786   1637076   1637069  
  7830.000000   1636738   1636134   1635363   1634549   1633795  
  7820.000000   1633144   1632578   1632037   1631463   1630839  
  7810.000000   1630208   1629657   1629282   1629133   1629184  
  7800.000000   1629325   1629401   1629270   1628860   1628206  
  7790.000000   1627438   1626737   1626263   1626099   1626225  
  7780.000000   1626527   1626854   1627066   1627084   1626895  
  7770.000000   1626548   1626104   1625617   1625103   1624554  
  7760.000000   1623946   1623265   1622518   1621723   1620904  
  7750.000000   1620067   1619200   1618279   1617280   1616201  
  7740.000000   1615063   1613917   1612816   1611809   1610925  
  7730.000000   1610175   1609553   1609052   1608667   1608386  
  7720.000000   1608188   1608029   1607851   1607584   1607178  
  7710.000000   1606612   1605915   1605150   1604405   1603765  
  7700.000000   1603295   1603021   1602937   1603003   1603164  
  7690.000000   1603349   1603483   1603487   1603297   1602871  
  7680.000000   1602212   1601374   1600460   1599602   1598930  
  7670.000000   1598535   1598447   1598630   1598994   1599425  
  7660.000000   1599810   1600076   1600189   1600162   1600034  
  7650.000000   1599859   1599686   1599544   1599451   1599391  
  7640.000000   1599342   1599261   1599117   1598879   1598549  
  7630.000000   1598158   1597767   1597457   1597307   1597381  
  7620.000000   1597709   1598294   1599103   1600095   1601215  
  7610.000000   1602411   1603623   1604786   1605833   1606690  
  7600.000000   1607309   1607649   1607714   1607519   1607109  
  7590.000000   1606527   1605829   1605068   1604316   1603663  
  7580.000000   1603207   1603052   1603261   1603860   1604803  
  7570.000000   1606004   1607350   1608739   1610111   1611443  
  7560.000000   1612744   1614009   1615217   1616291   1617155  
  7550.000000   1617728   1618001   1618026   1617939   1617902  
  7540.000000   1618070   1618541   1619343   1620438   1621754  
  7530.000000   1623208   1624746   1626332   1627952   1629583  
  7520.000000   1631197   1632748   1634215   1635598   1636953  
  7510.000000   1638355   1639896   1641626   1643551   1645608  
  7500.000000   1647697   1649710   1651576   1653278   1654862  
  7490.000000   1656405   1657996   1659693   1661522   1663461  
  7480.000000   1665468   1667487   1669478   1671403   1673244  
  7470.000000   1674979   1676597   1678096   1679506   1680879  
  7460.000000   1682305   1683884   1685714   1687846   1690275  
  7450.000000   1692928   1695690   1698427   1701036   1703459  
  7440.000000   1705718   1707884   1710062   1712340   1714773  
  7430.000000   1717352   1720030   1722726   1725382   1727966  
  7420.000000   1730496   1733020   1735597   1738264   1741021  
  7410.000000   1743832   1746640   1749396   1752078   1754698  
  7400.000000   1757291   1759893   1762519   1765144   1767712  
  7390.000000   1770150   1772401   1774441   1776289   1778007  
  7380.000000   1779678   1781396   1783236   1785260   1787501  
  7370.000000   1789977   1792677   1795565   1798571   1801595  
  7360.000000   1804527   1807262   1809735   1811932   1813898  
  7350.000000   1815719   1817501   1819332   1821272   1823338  
  7340.000000   1825516   1827783   1830113   1832499   1834930  
  7330.000000   1837398   1839879   1842342   1844748   1847071  
  7320.000000   1849295   1851421   1853455   1855400   1857243  
  7310.000000   1858968   1860556   1862012   1863356   1864644  
  7300.000000   1865930   1867268   1868676   1870150   1871647  
  7290.000000   1873119   1874517   1875817   1877012   1878115  
  7280.000000   1879141   1880107   1881020   1881887   1882717  
  7270.000000   1883523   1884325   1885140   1885982   1886855  
  7260.000000   1887761   1888699   1889682   1890727   1891868  
  7250.000000   1893125   1894519   1896037   1897662   1899350  
  7240.000000   1901076   1902816   1904588   1906410   1908332  
  7230.000000   1910380   1912585   1914937   1917433   1920043  
  7220.000000   1922756   1925551   1928432   1931392   1934441  
  7210.000000   1937565   1940764   1944009   1947290   1950575  
  7200.000000   1953864   1957146   1960450   1963801   1967256  
  7190.000000   1970855   1974652   1978658   1982872   1987242  
  7180.000000   1991707   1996178   2000597   2004914   2009136  
  7170.000000   2013284   2017437   2021661   2026051   2030656  
  7160.000000   2035522   2040637   2045984   2051507   2057163  
  7150.000000   2062894   2068677   2074481   2080320   2086195  
  7140.000000   2092141   2098165   2104293   2110516   2116853  
  7130.000000   2123291   2129849   2136520   2143321   2150232  
  7120.000000   2157253   2164351   2171519   2178744   2186052  
  7110.000000   2193469   2201047   2208814   2216794   2224959  
  7100.000000   2233276   2241665   2250065   2258403   2266645  
  7090.000000   2274766   2282781   2290717   2298627   2306568  
  7080.000000   2314612   2322813   2331218   2339828   2348614  
  7070.000000   2357500   2366395   2375203   2383854   2392316  
  7060.000000   2400605   2408769   2416885   2425026   2433257  
  7050.000000   2441618   2450117   2458737   2467432   2476143  
  7040.000000   2484805   2493365   2501787   2510062   2518202  
  7030.000000   2526233   2534178   2542046   2549826   2557497  
  7020.000000   2565038   2572450   2579751   2586997   2594238  
  7010.000000   2601538   2608916   2616382   2623898   2631430  
  7000.000000   2638915   2646313   2653566   2660636   2667472  
  6990.000000   2674047   2680330   2686333   2692075   2697614  
  6980.000000   2702992   2708264   2713441   2718541   2723544  
  6970.000000   2728465   2733296   2738071   2742795   2747485  
  6960.000000   2752114   2756660   2761070   2765316   2769367  
  6950.000000   2773224   2776886   2780374   2783692   2786873  
  6940.000000   2789949   2792993   2796067   2799247   2802555  
  6930.000000   2805975   2809419   2812778   2815930   2818805  
  6920.000000   2821378   2823697   2825831   2827867   2829856  
  6910.000000   2831834   2833806   2835790   2837808   2839901  
  6900.000000   2842090   2844375   2846696   2848974   2851112  
  6890.000000   2853058   2854809   2856431   2858015   2859648  
  6880.000000   2861365   2863142   2864907   2866582   2868104  
  6870.000000   2869462   2870680   2871807   2872873   2873900  
  6860.000000   2874877   2875808   2876705   2877618   2878595  
  6850.000000   2879677   2880854   2882069   2883229   2884244  
  6840.000000   2885064   2885698   2886209   2886684   2887191  
  6830.000000   2887766   2888396   2889052   2889706   2890364  
  6820.000000   2891054   2891812   2892645   2893519   2894350  
  6810.000000   2895043   2895519   2895754   2895785   2895701  
  6800.000000   2895601   2895571   2895644   2895819   2896058  
  6790.000000   2896322   2896576   2896801   2896981   2897100  
  6780.000000   2897132   2897057   2896859   2896549   2896151  
  6770.000000   2895711   2895262   2894831   2894422   2894033  
  6760.000000   2893654   2893289   2892940   2892608   2892267  
  6750.000000   2891876   2891375   2890714   2889869   2888862  
  6740.000000   2887757   2886641   2885592   2884666   2883870  
  6730.000000   2883187   2882575   2882008   2881463   2880947  
  6720.000000   2880459   2879992   2879520   2878997   2878373  
  6710.000000   2877604   2876665   2875552   2874279   2872875  
  6700.000000   2871376   2869835   2868307   2866861   2865554  
  6690.000000   2864432   2863496   2862715   2862012   2861299  
  6680.000000   2860485   2859510   2858345   2857004   2855524  
  6670.000000   2853957   2852359   2850777   2849251   2847808  
  6660.000000   2846456   2845193   2843993   2842824   2841647  
  6650.000000   2840440   2839188   2837903   2836596   2835281  
  6640.000000   2833948   2832575   2831126   2829572   2827899  
  6630.000000   2826117   2824250   2822329   2820368   2818373  
  6620.000000   2816330   2814234   2812088   2809921   2807769  
  6610.000000   2805673   2803652   2801702   2799796   2797904  
  6600.000000   2796007   2794109   2792240   2790429   2788698  
  6590.000000   2787033   2785395   2783727   2781984   2780143  
  6580.000000   2778229   2776291   2774397   2772604   2770942  
  6570.000000   2769406   2767968   2766584   2765217   2763840  
  6560.000000   2762445   2761031   2759602   2758156   2756689  
  6550.000000   2755193   2753661   2752093   2750501   2748905  
  6540.000000   2747339   2745833   2744418   2743103   2741878  
  6530.000000   2740711   2739559   2738379   2737149   2735875  
  6520.000000   2734599   2733374   2732260   2731287   2730455  
  6510.000000   2729720   2729025   2728303   2727511   2726632  
  6500.000000   2725683   2724695   2723703   2722735   2721805  
  6490.000000   2720913   2720056   2719229   2718426   2717638  
  6480.000000   2716855   2716060   2715240   2714391   2713518  
  6470.000000   2712644   2711794   2710989   2710235   2709519  
  6460.000000   2708816   2708093   2707326   2706505   2705638  
  6450.000000   2704743   2703846   2702970   2702135   2701348  
  6440.000000   2700615   2699930   2699283   2698656   2698033  
  6430.000000   2697398   2696745   2696080   2695419   2694782  
  6420.000000   2694188   2693642   2693143   2692680   2692247  
  6410.000000   2691843   2691476   2691153   2690874   2690622  
  6400.000000   2690369   2690079   2689733   2689329   2688893  
  6390.000000   2688462   2688070   2687730   2687432   2687143  
  6380.000000   2686830   2686471   2686071   2685657   2685259  
  6370.000000   2684895   2684555   2684209   2683814   2683344  
  6360.000000   2682802   2682226   2681667   2681177   2680773  
  6350.000000   2680443   2680142   2679821   2679438   2678982  
  6340.000000   2678462   2677903   2677322   2676725   2676099  
  6330.000000   2675432   2674710   2673940   2673135   2672321  
  6320.000000   2671506   2670695   2669867   2669004   2668081  
  6310.000000   2667092   2666033   2664916   2663741   2662514  
  6300.000000   2661232   2659902   2658532   2657150   2655777  
  6290.000000   2654435   2653120   2651821   2650503   2649140  
  6280.000000   2647704   2646194   2644608   2642963   2641265  
  6270.000000   2639520   2637724   2635877   2633981   2632046  
  6260.000000   2630080   2628092   2626080   2624041   2621970  
  6250.000000   2619875   2617773   2615696   2613667   2611703  
  6240.000000   2609791   2607908   2606012   2604076   2602081  
  6230.000000   2600035   2597949   2595842   2593718   2591573  
  6220.000000   2589396   2587185   2584947   2582708   2580491  
  6210.000000   2578317   2576184   2574073   2571953   2569801  
  6200.000000   2567608   2565391   2563181   2561011   2558897  
  6190.000000   2556835   2554801   2552762   2550696   2548592  
  6180.000000   2546459   2544317   2542185   2540081   2538014  
  6170.000000   2535991   2534023   2532118   2530284   2528515  
  6160.000000   2526795   2525093   2523378   2521628   2519841  
  6150.000000   2518033   2516237   2514481   2512785   2511142  
  6140.000000   2509536   2507938   2506330   2504703   2503063  
  6130.000000   2501418   2499779   2498151   2496534   2494929  
  6120.000000   2493345   2491793   2490289   2488837   2487438  
  6110.000000   2486074   2484730   2483392   2482068   2480772  
  6100.000000   2479533   2478370   2477292   2476283   2475321  
  6090.000000   2474376   2473433   2472487   2471555   2470652  
  6080.000000   2469796   2468988   2468228   2467506   2466826  
  6070.000000   2466188   2465610   2465097   2464655   2464270  
  6060.000000   2463930   2463614   2463322   2463054   2462836  
  6050.000000   2462683   2462616   2462628   2462715   2462856  
  6040.000000   2463042   2463264   2463531   2463849   2464238  
  6030.000000   2464699   2465243   2465866   2466575   2467367  
  6020.000000   2468242   2469181   2470165   2471154   2472119  
  6010.000000   2473030   2473884   2474689   2475480   2476281  
  6000.000000   2477122   2478003   2478926   2479873   2480842  
  5990.000000   2481829   2482853   2483927   2485071   2486289  
  5980.000000   2487588   2488958   2490405   2491929   2493545  
  5970.000000   2495256   2497070   2498970   2500939   2502945  
  5960.000000   2504973   2507007   2509055   2511125   2513237  
  5950.000000   2515399   2517623   2519901   2522233   2524605  
  5940.000000   2527013   2529444   2531890   2534345   2536807  
  5930.000000   2539284   2541789   2544341   2546948   2549608  
  5920.000000   2552296   2554971   2557585   2560096   2562480  
  5910.000000   2564736   2566881   2568934   2570915   2572828  
  5900.000000   2574675   2576458   2578191   2579910   2581661  
  5890.000000   2583496   2585445   2587515   2589679   2591888  
  5880.000000   2594087   2596227   2598282   2600245   2602129  
  5870.000000   2603947   2605719   2607447   2609141   2610800  
  5860.000000   2612439   2614071   2615725   2617425   2619202  
  5850.000000   2621082   2623085   2625223   2627501   2629905  
  5840.000000   2632415   2634999   2637629   2640277   2642935  
  5830.000000   2645599   2648276   2650967   2653662   2656339  
  5820.000000   2658965   2661511   2663959   2666313   2668585  
  5810.000000   2670804   2672981   2675125   2677209   2679215  
  5800.000000   2681106   2682877   2684518   2686063   2687522  
  5790.000000   2688925   2690260   2691520   2692651   2693613  
  5780.000000   2694337   2694783   2694908   2694708   2694187  
  5770.000000   2693396   2692389   2691250   2690051   2688863  
  5760.000000   2687730   2686683   2685728   2684874   2684117  
  5750.000000   2683463   2682908   2682447   2682064   2681736  
  5740.000000   2681442   2681166   2680914   2680699   2680551  
  5730.000000   2680483   2680507   2680607   2680763   2680942  
  5720.000000   2681126   2681302   2681475   2681647   2681829  
  5710.000000   2682016   2682212   2682414   2682638   2682899  
  5700.000000   2683225   2683633   2684129   2684700   2685319  
  5690.000000   2685960   2686600   2687235   2687867   2688511  
  5680.000000   2689163   2689817   2690441   2691003   2691461  
  5670.000000   2691793   2691977   2692011   2691890   2691623  
  5660.000000   2691210   2690669   2690014   2689280   2688494  
  5650.000000   2687689   2686877   2686068   2685252   2684431  
  5640.000000   2683605   2682792   2682009   2681273   2680583  
  5630.000000   2679929   2679286   2678633   2677956   2677261  
  5620.000000   2676565   2675886   2675235   2674608   2673986  
  5610.000000   2673346   2672671   2671958   2671216   2670465  
  5600.000000   2669716   2668976   2668235   2667479   2666691  
  5590.000000   2665865   2665000   2664106   2663189   2662253  
  5580.000000   2661295   2660315   2659310   2658287   2657253  
  5570.000000   2656216   2655172   2654110   2653008   2651848  
  5560.000000   2650615   2649312   2647949   2646546   2645121  
  5550.000000   2643693   2642277   2640890   2639549   2638275  
  5540.000000   2637079   2635964   2634915   2633900   2632884  
  5530.000000   2631836   2630741   2629606   2628451   2627301  
  5520.000000   2626175   2625078   2624004   2622939   2621869  
  5510.000000   2620788   2619695   2618591   2617471   2616333  
  5500.000000   2615169   2613982   2612781   2611587   2610413  
  5490.000000   2609267   2608132   2606977   2605759   2604447  
  5480.000000   2603024   2601503   2599908   2598276   2596629  
  5470.000000   2594978   2593311   2591618   2589883   2588109  
  5460.000000   2586296   2584454   2582580   2580669   2578707  
  5450.000000   2576690   2574625   2572535   2570452   2568402  
  5440.000000   2566400   2564442   2562520   2560623   2558756  
  5430.000000   2556930   2555167   2553474   2551852   2550275  
  5420.000000   2548735   2547222   2545768   2544411   2543213  
  5410.000000   2542201   2541388   2540731   2540189   2539704  
  5400.000000   2539267   2538872   2538560   2538351   2538274  
  5390.000000   2538312   2538458   2538684   2539010   2539458  
  5380.000000   2540097   2540963   2542098   2543467   2545040  
  5370.000000   2546733   2548514   2550330   2552215   2554172  
  5360.000000   2556273   2558531   2561020   2563744   2566782  
  5350.000000   2570143   2573908   2578069   2582678   2587686  
  5340.000000   2593117   2598915   2605138   2611762   2618871  
  5330.000000   2626433   2634499   2642981   2651896   2661154  
  5320.000000   2670819   2680871   2691457   2702601   2714458  
  5310.000000   2727012   2740359   2754419   2769255   2784791  
  5300.000000   2801117   2818203   2836177   2855035   2874904  
  5290.000000   2895743   2917610   2940380   2964007   2988303  
  5280.000000   3013209   3038600   3064532   3091023   3118224  
  5270.000000   3146181   3174940   3204374   3234302   3264456  
  5260.000000   3294613   3324633   3354483   3384226   3413914  
  5250.000000   3443580   3473109   3502352   3531032   3558995  
  5240.000000   3586061   3612283   3637673   3662422   3686570  
  5230.000000   3710247   3733359   3755895   3777653   3798589  
  5220.000000   3818545   3837586   3855678   3872998   3889578  
  5210.000000   3905593   3921006   3935878   3950046   3963482  
  5200.000000   3976008   3987660   3998369   4008288   4017427  
  5190.000000   4025951   4033834   4041166   4047855   4053953  
  5180.000000   4059371   4064179   4068314   4071847   4074704  
  5170.000000   4076933   4078460   4079359   4079611   4079345  
  5160.000000   4078582   4077440   4075901   4074014   4071711  
  5150.000000   4069019   4065893   4062399   4058542   4054408  
  5140.000000   4050001   4045378   4040517   4035454   4030167  
  5130.000000   4024704   4019059   4013280   4007355   4001312  
  5120.000000   3995131   3988837   3982428   3975944   3969400  
  5110.000000   3962832   3956239   3949631   3942988   3936309  
  5100.000000   3929581   3922818   3916023   3909216   3902400  
  5090.000000   3895593   3888796   3882025   3875285   3868591  
  5080.000000   3861934   3855306   3848674   3842012   3835281  
  5070.000000   3828472   3821574   3814602   3807559   3800455  
  5060.000000   3793277   3786015   3778648   3771180   3763618  
  5050.000000   3756001   3748361   3740735   3733131   3725548  
  5040.000000   3717951   3710314   3702604   3694812   3686942  
  5030.000000   3679018   3671072   3663134   3655236   3647396  
  5020.000000   3639635   3631960   3624383   3616905   3609537  
  5010.000000   3602272   3595125   3588091   3581197   3574443  
  5000.000000   3567867   3561466   3555276   3549287   3543528  
  4990.000000   3537983   3532689   3527634   3522862   3518362  
  4980.000000   3514177   3510287   3506731   3503485   3500594  
  4970.000000   3498040   3495877   3494085   3492712   3491721  
  4960.000000   3491138   3490914   3491071   3491564   3492427  
  4950.000000   3493625   3495197   3497102   3499373   3501961  
  4940.000000   3504898   3508141   3511729   3515627   3519871  
  4930.000000   3524420   3529295   3534447   3539897   3545610  
  4920.000000   3551624   3557925   3564555   3571492   3578754  
  4910.000000   3586294   3594104   3602128   3610357   3618752  
  4900.000000   3627321   3636041   3644924   3653950   3663118  
  4890.000000   3672399   3681774   3691203   3700657   3710098  
  4880.000000   3719495   3728830   3738082   3747247   3756305  
  4870.000000   3765249   3774044   3782667   3791075   3799254  
  4860.000000   3807180   3814870   3822324   3829578   3836635  
  4850.000000   3843528   3850246   3856814   3863222   3869499  
  4840.000000   3875637   3881665   3887568   3893362   3899023  
  4830.000000   3904561   3909951   3915207   3920308   3925260  
  4820.000000   3930037   3934636   3939032   3943235   3947245  
  4810.000000   3951097   3954809   3958418   3961929   3965355  
  4800.000000   3968680   3971910   3975036   3978084   3981063  
  4790.000000   3984004   3986904   3989769   3992565   3995280  
  4780.000000   3997880   4000372   4002750   4005044   4007257  
  4770.000000   4009408   4011473   4013444   4015276   4016953  
  4760.000000   4018439   4019737   4020831   4021740   4022459  
  4750.000000   4023017   4023415   4023685   4023829   4023878  
  4740.000000   4023822   4023675   4023409   4023022   4022479  
  4730.000000   4021779   4020897   4019843   4018605   4017199  
  4720.000000   4015618   4013884   4012000   4009999   4007898  
  4710.000000   4005736   4003537   4001331   3999126   3996932  
  4700.000000   3994735   3992531   3990302   3988046   3985757  
  4690.000000   3983449   3981134   3978831   3976557   3974323  
  4680.000000   3972130   3969965   3967814   3965653   3963467  
  4670.000000   3961243   3958991   3956719   3954457   3952220  
  4660.000000   3950033   3947902   3945841   3943851   3941951  
  4650.000000   3940153   3938490   3936984   3935663   3934536  
  4640.000000   3933606   3932855   3932262   3931790   3931414  
  4630.000000   3931095   3930810   3930528   3930235   3929913  
  4620.000000   3929561   3929174   3928763   3928327   3927872  
  4610.000000   3927390   3926884   3926350   3925804   3925268  
  4600.000000   3924778   3924370   3924072   3923895   3923828  
  4590.000000   3923843   3923902   3923971   3924023   3924049  
  4580.000000   3924043   3924006   3923930   3923800   3923591  
  4570.000000   3923280   3922846   3922286   3921602   3920818  
  4560.000000   3919953   3919034   3918071   3917074   3916036  
  4550.000000   3914951   3913801   3912575   3911258   3909847  
  4540.000000   3908346   3906771   3905150   3903512   3901896  
  4530.000000   3900325   3898826   3897401   3896063   3894798  
  4520.000000   3893626   3892536   3891567   3890717   3890042  
  4510.000000   3889543   3889294   3889303   3889664   3890393  
  4500.000000   3891598   3893296   3895589   3898479   3902055  
  4490.000000   3906307   3911307   3917027   3923515   3930702  
  4480.000000   3938590   3947065   3956091   3965543   3975391  
  4470.000000   3985539   3995991   4006686   4017650   4028838  
  4460.000000   4040269   4051895   4063718   4075682   4087765  
  4450.000000   4099906   4112071   4124208   4136297   4148327  
  4440.000000   4160306   4172264   4184218   4196200   4208197  
  4430.000000   4220216   4232202   4244146   4255978   4267691  
  4420.000000   4279208   4290521   4301529   4312206   4322422  
  4410.000000   4332138   4341214   4349616   4357220   4364012  
  4400.000000   4369900   4374905   4378979   4382192   4384553  
  4390.000000   4386179   4387129   4387542   4387488   4387093  
  4380.000000   4386413   4385545   4384540   4383493   4382477  
  4370.000000   4381604   4380974   4380691   4380845   4381491  
  4360.000000   4382667   4384364   4386561   4389201   4392235  
  4350.000000   4395599   4399249   4403156   4407310   4411718  
  4340.000000   4416392   4421329   4426486   4431759   4436971  
  4330.000000   4441883   4446215   4449701   4452137   4453441  
  4320.000000   4453662   4453005   4451757   4450271   4448847  
  4310.000000   4447742   4447064   4446854   4447023   4447478  
  4300.000000   4448069   4448702   4449275   4449742   4450060  
  4290.000000   4450218   4450208   4450042   4449746   4449358  
  4280.000000   4448923   4448493   4448105   4447801   4447593  
  4270.000000   4447505   4447522   4447636   4447784   4447892  
  4260.000000   4447830   4447461   4446633   4445238   4443220  
  4250.000000   4440617   4437536   4434161   4430686   4427312  
  4240.000000   4424170   4421345   4418834   4416596   4414542  
  4230.000000   4412590   4410659   4408686   4406627   4404449  
  4220.000000   4402140   4399689   4397125   4394478   4391830  
  4210.000000   4389250   4386841   4384669   4382800   4381244  
  4200.000000   4380008   4379043   4378320   4377769   4377369  
  4190.000000   4377067   4376877   4376774   4376809   4376978  
  4180.000000   4377354   4377942   4378818   4379984   4381516  
  4170.000000   4383418   4385773   4388591   4391954   4395854  
  4160.000000   4400348   4405390   4411002   4417107   4423715  
  4150.000000   4430749   4438231   4446096   4454380   4463029  
  4140.000000   4472091   4481526   4491401   4501695   4512479  
  4130.000000   4523730   4535499   4547739   4560476   4573652  
  4120.000000   4587289   4601346   4615854   4630777   4646132  
  4110.000000   4661862   4677953   4694326   4710954   4727767  
  4100.000000   4744760   4761896   4779198   4796663   4814324  
  4090.000000   4832189   4850276   4868584   4887100   4905807  
  4080.000000   4924673   4943681   4962793   4982000   5001250  
  4070.000000   5020519   5039723   5058819   5077699   5096333  
  4060.000000   5114626   5132582   5150121   5167262   5183918  
  4050.000000   5200117   5215771   5230933   5245530   5259632  
  4040.000000   5273145   5286110   5298382   5309977   5320738  
  4030.000000   5330702   5339742   5347914   5355103   5361339  
  4020.000000   5366463   5370513   5373428   5375301   5376082  
  4010.000000   5375961   5375052   5373425   5370859   5367476  
  4000.000000   5363681  
##END= 
