##TITLE= Sample 001 By ssteindl date Donnerstag, November 22 2018
##JCAMP-DX= 4.24
##DATA TYPE= INFRARED SPECTRUM
##ORIGIN= Exported PE Spectrum Data File
##OWNER= Sandra Steindl
##DATE= 18/11/22
##TIME= 12:36:15.00
##SPECTROMETER/DATA SYSTEM= PERKIN-ELMER Frontier FT-IR/NIR IR
##INSTRUMENT PARAMETERS=
  APODIZATION=stark
  DETECTOR=INGAAS
##RESOLUTION= 16.000000
##DELTAX= -2.000000
##XUNITS= 1/CM
##YUNITS= A
##XFACTOR= 1.00
##YFACTOR= 0.00000011920928955078
##FIRSTX= 10000.00
##LASTX= 4000.00
##NPOINTS= 3001
##FIRSTY= 0.222514
##MAXY= 0.635859
##MINY= 0.190367
##XYDATA= (X++(Y..Y))
 10000.000000   1866579   1860498   1854587   1849410   1845705  
  9990.000000   1843951   1844069   1845631   1848115   1851025  
  9980.000000   1853829   1855944   1857002   1856777   1855351  
  9970.000000   1852881   1849609   1845604   1840755   1834837  
  9960.000000   1827788   1819952   1812227   1805981   1802600  
  9950.000000   1803042   1807223   1813981   1821230   1826713  
  9940.000000   1828756   1826840   1821809   1815374   1809526  
  9930.000000   1805617   1803986   1803842   1803742   1802257  
  9920.000000   1798612   1793033   1786641   1781031   1777659  
  9910.000000   1777367   1780130   1785097   1790884   1795911  
  9900.000000   1798841   1798826   1795774   1790340   1783870  
  9890.000000   1778079   1774647   1774708   1778489   1785129  
  9880.000000   1792933   1799827   1804065   1804774   1802216  
  9870.000000   1797642   1792771   1789168   1787749   1788557  
  9860.000000   1790966   1793998   1796809   1798919   1800269  
  9850.000000   1801091   1801636   1802070   1802399   1802622  
  9840.000000   1802844   1803317   1804375   1806205   1808712  
  9830.000000   1811458   1813786   1815111   1815134   1814055  
  9820.000000   1812453   1811124   1810707   1811496   1813285  
  9810.000000   1815521   1817467   1818512   1818322   1816900  
  9800.000000   1814516   1811530   1808276   1804954   1801644  
  9790.000000   1798341   1795024   1791722   1788513   1785587  
  9780.000000   1783153   1781507   1780867   1781411   1783108  
  9770.000000   1785741   1788867   1791882   1794159   1795130  
  9760.000000   1794458   1792036   1788044   1782834   1776920  
  9750.000000   1770845   1765172   1760375   1756805   1754604  
  9740.000000   1753668   1753670   1754113   1754494   1754428  
  9730.000000   1753779   1752691   1751508   1750684   1750553  
  9720.000000   1751288   1752775   1754755   1756848   1758722  
  9710.000000   1760151   1761035   1761425   1761459   1761373  
  9700.000000   1761432   1761891   1762939   1764585   1766635  
  9690.000000   1768644   1770011   1770128   1768555   1765232  
  9680.000000   1760516   1755191   1750248   1746672   1745155  
  9670.000000   1745917   1748644   1752551   1756594   1759716  
  9660.000000   1761115   1760413   1757744   1753699   1749184  
  9650.000000   1745216   1742679   1742125   1743638   1746838  
  9640.000000   1750989   1755213   1758688   1760853   1761465  
  9630.000000   1760619   1758613   1755855   1752713   1749466  
  9620.000000   1746288   1743284   1740563   1738254   1736500  
  9610.000000   1735390   1734853   1734652   1734358   1733499  
  9600.000000   1731663   1728696   1724784   1720478   1716555  
  9590.000000   1713797   1712733   1713434   1715499   1718108  
  9580.000000   1720376   1721511   1721176   1719419   1716677  
  9570.000000   1713474   1710243   1707210   1704457   1702121  
  9560.000000   1700548   1700374   1702328   1706955   1714210  
  9550.000000   1723298   1732724   1740684   1745648   1746791  
  9540.000000   1744304   1739187   1732924   1726916   1722115  
  9530.000000   1718855   1716968   1716126   1716055   1716764  
  9520.000000   1718289   1720654   1723474   1726142   1727871  
  9510.000000   1728118   1726799   1724308   1721415   1718765  
  9500.000000   1716699   1714932   1712784   1709416   1704301  
  9490.000000   1697549   1689950   1682836   1677564   1675206  
  9480.000000   1676144   1680129   1686337   1693670   1700977  
  9470.000000   1707206   1711555   1713446   1712671   1709336  
  9460.000000   1703998   1697496   1690887   1685124   1680873  
  9450.000000   1678353   1677349   1677424   1678070   1679000  
  9440.000000   1680096   1681431   1683024   1684735   1686235  
  9430.000000   1687058   1686865   1685493   1683132   1680154  
  9420.000000   1677064   1674272   1672038   1670484   1669625  
  9410.000000   1669531   1670243   1671837   1674226   1677190  
  9400.000000   1680335   1683213   1685459   1686820   1687225  
  9390.000000   1686615   1684960   1682143   1678111   1672944  
  9380.000000   1667025   1661060   1655994   1652798   1652148  
  9370.000000   1654201   1658469   1663998   1669632   1674379  
  9360.000000   1677622   1679215   1679427   1678775   1677885  
  9350.000000   1677297   1677434   1678506   1680529   1683289  
  9340.000000   1686337   1689063   1690789   1691030   1689637  
  9330.000000   1686955   1683691   1680700   1678659   1677832  
  9320.000000   1677993   1678510   1678594   1677629   1675405  
  9310.000000   1672245   1668803   1665877   1664043   1663578  
  9300.000000   1664369   1666073   1668232   1670392   1672195  
  9290.000000   1673339   1673591   1672728   1670600   1667157  
  9280.000000   1662577   1657268   1651877   1647092   1643511  
  9270.000000   1641470   1640979   1641756   1643275   1644973  
  9260.000000   1646364   1647208   1647514   1647502   1647504  
  9250.000000   1647822   1648645   1649915   1651379   1652620  
  9240.000000   1653263   1653058   1651997   1650300   1648355  
  9230.000000   1646600   1645384   1644858   1644973   1645519  
  9220.000000   1646232   1646856   1647181   1647096   1646571  
  9210.000000   1645706   1644666   1643731   1643206   1643413  
  9200.000000   1644537   1646541   1649103   1651670   1653638  
  9190.000000   1654473   1653889   1651876   1648709   1644822  
  9180.000000   1640664   1636608   1632909   1629801   1627519  
  9170.000000   1626344   1626485   1628024   1630780   1634284  
  9160.000000   1637816   1640566   1641886   1641459   1639398  
  9150.000000   1636139   1632316   1628583   1625498   1623421  
  9140.000000   1622489   1622689   1623882   1625843   1628187  
  9130.000000   1630429   1632030   1632544   1631736   1629639  
  9120.000000   1626605   1623155   1619896   1617258   1615437  
  9110.000000   1614348   1613734   1613344   1613003   1612749  
  9100.000000   1612748   1613289   1614597   1616756   1619604  
  9090.000000   1622759   1625705   1627847   1628710   1627968  
  9080.000000   1625639   1622003   1617606   1613087   1609045  
  9070.000000   1605913   1603866   1602868   1602730   1603279  
  9060.000000   1604413   1606129   1608394   1611090   1613916  
  9050.000000   1616410   1618077   1618556   1617847   1616289  
  9040.000000   1614514   1613175   1612742   1613309   1614555  
  9030.000000   1615923   1616838   1616984   1616367   1615311  
  9020.000000   1614249   1613558   1613363   1613521   1613701  
  9010.000000   1613540   1612835   1611558   1609875   1608009  
  9000.000000   1606179   1604517   1603057   1601816   1600836  
  8990.000000   1600235   1600148   1600700   1601935   1603793  
  8980.000000   1606092   1608580   1610988   1613043   1614528  
  8970.000000   1615242   1615091   1614045   1612226   1609849  
  8960.000000   1607254   1604803   1602817   1601515   1600968  
  8950.000000   1601155   1601961   1603301   1605065   1607184  
  8940.000000   1609527   1611921   1614131   1615905   1617066  
  8930.000000   1617511   1617281   1616447   1615123   1613343  
  8920.000000   1611123   1608471   1605496   1602454   1599730  
  8910.000000   1597773   1596910   1597283   1598730   1600897  
  8900.000000   1603310   1605588   1607528   1609133   1610541  
  8890.000000   1611873   1613164   1614262   1614935   1614912  
  8880.000000   1614083   1612484   1610350   1608003   1605775  
  8870.000000   1603926   1602586   1601836   1601695   1602218  
  8860.000000   1603411   1605267   1607678   1610442   1613254  
  8850.000000   1615775   1617726   1618916   1619310   1618943  
  8840.000000   1617959   1616489   1614697   1612703   1610653  
  8830.000000   1608694   1606994   1605720   1604989   1604885  
  8820.000000   1605403   1606513   1608125   1610150   1612489  
  8810.000000   1615028   1617647   1620178   1622472   1624356  
  8800.000000   1625720   1626470   1626604   1626186   1625370  
  8790.000000   1624389   1623511   1623038   1623213   1624202  
  8780.000000   1625999   1628438   1631189   1633849   1636019  
  8770.000000   1637391   1637816   1637311   1636060   1634335  
  8760.000000   1632467   1630770   1629525   1628938   1629127  
  8750.000000   1630101   1631740   1633829   1636073   1638196  
  8740.000000   1639983   1641357   1642372   1643177   1643960  
  8730.000000   1644839   1645862   1646952   1648000   1648870  
  8720.000000   1649489   1649830   1649919   1649809   1649548  
  8710.000000   1649215   1648910   1648804   1649102   1650007  
  8700.000000   1651636   1653944   1656699   1659506   1661921  
  8690.000000   1663569   1664280   1664110   1663336   1662333  
  8680.000000   1661495   1661102   1661309   1662108   1663401  
  8670.000000   1665043   1666884   1668796   1670656   1672376  
  8660.000000   1673907   1675281   1676615   1678083   1679867  
  8650.000000   1682055   1684599   1687272   1689747   1691676  
  8640.000000   1692833   1693188   1692956   1692513   1692295  
  8630.000000   1692637   1693682   1695365   1697458   1699693  
  8620.000000   1701837   1703805   1705626   1707444   1709386  
  8610.000000   1711541   1713881   1716286   1718575   1720550  
  8600.000000   1722069   1723032   1723418   1723247   1722603  
  8590.000000   1721601   1720398   1719182   1718170   1717578  
  8580.000000   1717564   1718216   1719509   1721337   1723502  
  8570.000000   1725802   1728069   1730219   1732255   1734234  
  8560.000000   1736235   1738275   1740297   1742142   1743631  
  8550.000000   1744602   1745009   1744933   1744597   1744278  
  8540.000000   1744218   1744549   1745235   1746119   1746979  
  8530.000000   1747653   1748099   1748448   1748937   1749824  
  8520.000000   1751259   1753226   1755524   1757835   1759836  
  8510.000000   1761296   1762163   1762550   1762682   1762807  
  8500.000000   1763106   1763656   1764431   1765343   1766303  
  8490.000000   1767242   1768129   1768938   1769636   1770157  
  8480.000000   1770436   1770432   1770189   1769835   1769571  
  8470.000000   1769617   1770146   1771241   1772863   1774900  
  8460.000000   1777209   1779676   1782223   1784813   1787416  
  8450.000000   1789952   1792287   1794218   1795568   1796216  
  8440.000000   1796191   1795647   1794864   1794165   1793834  
  8430.000000   1794067   1794909   1796311   1798134   1800235  
  8420.000000   1802460   1804695   1806829   1808775   1810444  
  8410.000000   1811759   1812683   1813214   1813418   1813376  
  8400.000000   1813196   1812952   1812697   1812463   1812274  
  8390.000000   1812186   1812271   1812639   1813377   1814542  
  8380.000000   1816099   1817946   1819911   1821806   1823464  
  8370.000000   1824767   1825669   1826185   1826365   1826285  
  8360.000000   1826024   1825685   1825380   1825228   1825311  
  8350.000000   1825664   1826225   1826847   1827286   1827290  
  8340.000000   1826660   1825339   1823447   1821261   1819154  
  8330.000000   1817492   1816521   1816303   1816682   1817371  
  8320.000000   1818031   1818411   1818412   1818128   1817797  
  8310.000000   1817690   1817999   1818730   1819719   1820642  
  8300.000000   1821165   1821022   1820148   1818686   1816952  
  8290.000000   1815340   1814182   1813690   1813891   1814680  
  8280.000000   1815848   1817180   1818482   1819629   1820533  
  8270.000000   1821138   1821385   1821226   1820638   1819640  
  8260.000000   1818311   1816771   1815162   1813609   1812190  
  8250.000000   1810940   1809844   1808888   1808050   1807331  
  8240.000000   1806717   1806183   1805666   1805087   1804371  
  8230.000000   1803470   1802402   1801234   1800070   1799012  
  8220.000000   1798121   1797415   1796864   1796432   1796097  
  8210.000000   1795872   1795782   1795838   1795989   1796117  
  8200.000000   1796048   1795607   1794680   1793260   1791468  
  8190.000000   1789518   1787650   1786057   1784819   1783895  
  8180.000000   1783143   1782387   1781475   1780332   1778966  
  8170.000000   1777459   1775916   1774439   1773087   1771878  
  8160.000000   1770804   1769844   1768994   1768251   1767617  
  8150.000000   1767076   1766580   1766050   1765392   1764521  
  8140.000000   1763401   1762061   1760602   1759169   1757914  
  8130.000000   1756946   1756293   1755895   1755611   1755273  
  8120.000000   1754730   1753904   1752809   1751548   1750274  
  8110.000000   1749135   1748218   1747527   1746983   1746451  
  8100.000000   1745797   1744919   1743786   1742436   1740959  
  8090.000000   1739464   1738041   1736753   1735620   1734640  
  8080.000000   1733794   1733065   1732430   1731866   1731335  
  8070.000000   1730786   1730162   1729404   1728470   1727335  
  8060.000000   1726010   1724521   1722926   1721287   1719682  
  8050.000000   1718182   1716855   1715750   1714890   1714274  
  8040.000000   1713863   1713600   1713415   1713246   1713050  
  8030.000000   1712810   1712538   1712248   1711955   1711647  
  8020.000000   1711293   1710842   1710248   1709488   1708580  
  8010.000000   1707588   1706607   1705737   1705049   1704563  
  8000.000000   1704230   1703951   1703603   1703076   1702310  
  7990.000000   1701313   1700156   1698950   1697813   1696836  
  7980.000000   1696066   1695505   1695134   1694924   1694862  
  7970.000000   1694942   1695152   1695456   1695774   1695995  
  7960.000000   1695996   1695689   1695057   1694168   1693166  
  7950.000000   1692221   1691476   1690993   1690733   1690568  
  7940.000000   1690336   1689895   1689187   1688245   1687195  
  7930.000000   1686196   1685392   1684868   1684633   1684641  
  7920.000000   1684820   1685114   1685508   1686021   1686680  
  7910.000000   1687482   1688368   1689214   1689859   1690140  
  7900.000000   1689958   1689305   1688283   1687081   1685925  
  7890.000000   1685020   1684494   1684374   1684579   1684962  
  7880.000000   1685348   1685590   1685602   1685374   1684961  
  7870.000000   1684452   1683943   1683495   1683131   1682832  
  7860.000000   1682560   1682285   1682005   1681763   1681628  
  7850.000000   1681690   1682011   1682611   1683437   1684373  
  7840.000000   1685254   1685906   1686186   1686021   1685420  
  7830.000000   1684483   1683362   1682236   1681257   1680517  
  7820.000000   1680026   1679715   1679455   1679110   1678555  
  7810.000000   1677736   1676658   1675404   1674094   1672863  
  7800.000000   1671823   1671035   1670503   1670166   1669924  
  7790.000000   1669650   1669228   1668574   1667654   1666505  
  7780.000000   1665222   1663952   1662851   1662054   1661631  
  7770.000000   1661565   1661748   1662007   1662146   1661994  
  7760.000000   1661450   1660496   1659198   1657668   1656040  
  7750.000000   1654423   1652903   1651528   1650332   1649344  
  7740.000000   1648595   1648112   1647896   1647924   1648128  
  7730.000000   1648422   1648713   1648939   1649077   1649147  
  7720.000000   1649196   1649263   1649366   1649474   1649523  
  7710.000000   1649423   1649097   1648496   1647619   1646514  
  7700.000000   1645268   1643989   1642780   1641726   1640871  
  7690.000000   1640221   1639739   1639368   1639039   1638697  
  7680.000000   1638314   1637890   1637452   1637030   1636651  
  7670.000000   1636314   1636005   1635693   1635361   1635000  
  7660.000000   1634635   1634300   1634036   1633866   1633796  
  7650.000000   1633804   1633861   1633936   1634007   1634064  
  7640.000000   1634104   1634129   1634136   1634128   1634110  
  7630.000000   1634098   1634110   1634157   1634233   1634303  
  7620.000000   1634315   1634211   1633956   1633546   1633024  
  7610.000000   1632453   1631906   1631433   1631058   1630782  
  7600.000000   1630607   1630556   1630678   1631037   1631680  
  7590.000000   1632611   1633763   1635014   1636220   1637256  
  7580.000000   1638068   1638667   1639134   1639553   1639989  
  7570.000000   1640436   1640842   1641114   1641186   1641041  
  7560.000000   1640735   1640379   1640105   1640029   1640225  
  7550.000000   1640712   1641464   1642424   1643526   1644698  
  7540.000000   1645879   1647008   1648041   1648949   1649737  
  7530.000000   1650431   1651091   1651770   1652523   1653369  
  7520.000000   1654315   1655343   1656446   1657615   1658856  
  7510.000000   1660163   1661522   1662893   1664228   1665478  
  7500.000000   1666634   1667721   1668818   1670009   1671378  
  7490.000000   1672959   1674746   1676673   1678662   1680623  
  7480.000000   1682497   1684253   1685896   1687451   1688964  
  7470.000000   1690489   1692094   1693833   1695755   1697864  
  7460.000000   1700129   1702463   1704757   1706897   1708820  
  7450.000000   1710519   1712064   1713563   1715150   1716922  
  7440.000000   1718938   1721194   1723657   1726269   1728986  
  7430.000000   1731770   1734601   1737456   1740313   1743149  
  7420.000000   1745946   1748698   1751414   1754102   1756768  
  7410.000000   1759390   1761933   1764347   1766597   1768680  
  7400.000000   1770629   1772508   1774386   1776322   1778343  
  7390.000000   1780455   1782647   1784915   1787263   1789709  
  7380.000000   1792254   1794879   1797524   1800116   1802587  
  7370.000000   1804907   1807106   1809259   1811466   1813804  
  7360.000000   1816301   1818914   1821550   1824103   1826497  
  7350.000000   1828721   1830829   1832923   1835104   1837433  
  7340.000000   1839899   1842427   1844899   1847203   1849266  
  7330.000000   1851083   1852702   1854226   1855761   1857401  
  7320.000000   1859186   1861111   1863117   1865129   1867058  
  7310.000000   1868841   1870445   1871883   1873190   1874428  
  7300.000000   1875640   1876860   1878087   1879300   1880463  
  7290.000000   1881540   1882507   1883359   1884108   1884779  
  7280.000000   1885397   1885989   1886570   1887157   1887759  
  7270.000000   1888389   1889063   1889800   1890624   1891549  
  7260.000000   1892586   1893721   1894931   1896169   1897397  
  7250.000000   1898567   1899672   1900710   1901728   1902771  
  7240.000000   1903910   1905185   1906639   1908273   1910095  
  7230.000000   1912087   1914247   1916554   1918998   1921546  
  7220.000000   1924169   1926825   1929495   1932167   1934867  
  7210.000000   1937619   1940466   1943411   1946447   1949519  
  7200.000000   1952577   1955562   1958460   1961273   1964052  
  7190.000000   1966840   1969694   1972637   1975695   1978870  
  7180.000000   1982190   1985671   1989356   1993261   1997404  
  7170.000000   2001751   2006272   2010898   2015597   2020325  
  7160.000000   2025088   2029877   2034720   2039610   2044577  
  7150.000000   2049633   2054837   2060234   2065890   2071816  
  7140.000000   2077997   2084340   2090752   2097126   2103435  
  7130.000000   2109692   2115997   2122437   2129102   2135989  
  7120.000000   2143053   2150175   2157272   2164287   2171266  
  7110.000000   2178298   2185512   2192990   2200763   2208771  
  7100.000000   2216922   2225094   2233223   2241271   2249269  
  7090.000000   2257249   2265258   2273306   2281402   2289545  
  7080.000000   2297762   2306088   2314576   2323248   2332096  
  7070.000000   2341053   2350031   2358933   2367696   2376300  
  7060.000000   2384779   2393182   2401570   2409979   2418426  
  7050.000000   2426907   2435411   2443929   2452453   2460979  
  7040.000000   2469494   2477992   2486466   2494932   2503407  
  7030.000000   2511925   2520492   2529086   2537637   2546052  
  7020.000000   2554228   2562104   2569661   2576953   2584055  
  7010.000000   2591066   2598043   2605022   2611987   2618921  
  7000.000000   2625789   2632587   2639301   2645933   2652455  
  6990.000000   2658853   2665096   2671195   2677170   2683082  
  6980.000000   2688974   2694882   2700779   2706619   2712317  
  6970.000000   2717831   2723130   2728259   2733256   2738184  
  6960.000000   2743043   2747815   2752420   2756797   2760882  
  6950.000000   2764672   2768175   2771442   2774500   2777393  
  6940.000000   2780137   2782785   2785382   2788012   2790726  
  6930.000000   2793565   2796498   2799467   2802372   2805142  
  6920.000000   2807729   2810157   2812466   2814721   2816952  
  6910.000000   2819158   2821302   2823344   2825252   2827033  
  6900.000000   2828705   2830305   2831846   2833336   2834761  
  6890.000000   2836123   2837435   2838736   2840062   2841428  
  6880.000000   2842809   2844147   2845368   2846428   2847328  
  6870.000000   2848140   2848970   2849942   2851136   2852584  
  6860.000000   2854252   2856073   2857956   2859816   2861574  
  6850.000000   2863161   2864512   2865578   2866342   2866834  
  6840.000000   2867143   2867399   2867735   2868251   2868971  
  6830.000000   2869860   2870826   2871788   2872686   2873525  
  6820.000000   2874333   2875151   2875976   2876767   2877445  
  6810.000000   2877942   2878230   2878346   2878375   2878418  
  6800.000000   2878541   2878759   2879025   2879276   2879455  
  6790.000000   2879558   2879619   2879699   2879837   2880032  
  6780.000000   2880225   2880332   2880272   2880004   2879537  
  6770.000000   2878925   2878236   2877539   2876867   2876248  
  6760.000000   2875690   2875220   2874855   2874615   2874486  
  6750.000000   2874421   2874333   2874132   2873735   2873109  
  6740.000000   2872260   2871241   2870116   2868950   2867791  
  6730.000000   2866682   2865655   2864747   2863977   2863350  
  6720.000000   2862823   2862315   2861715   2860919   2859860  
  6710.000000   2858540   2857020   2855410   2853825   2852360  
  6700.000000   2851064   2849947   2848982   2848131   2847340  
  6690.000000   2846556   2845708   2844734   2843568   2842190  
  6680.000000   2840618   2838930   2837235   2835641   2834210  
  6670.000000   2832935   2831735   2830489   2829072   2827410  
  6660.000000   2825499   2823409   2821247   2819130   2817141  
  6650.000000   2815319   2813656   2812116   2810649   2809209  
  6640.000000   2807748   2806228   2804610   2802869   2800995  
  6630.000000   2799010   2796962   2794921   2792955   2791114  
  6620.000000   2789409   2787813   2786265   2784698   2783050  
  6610.000000   2781288   2779408   2777437   2775413   2773377  
  6600.000000   2771355   2769352   2767354   2765336   2763276  
  6590.000000   2761165   2759017   2756873   2754783   2752795  
  6580.000000   2750934   2749198   2747552   2745943   2744325  
  6570.000000   2742668   2740976   2739274   2737601   2735986  
  6560.000000   2734442   2732958   2731517   2730097   2728691  
  6550.000000   2727300   2725935   2724594   2723268   2721930  
  6540.000000   2720556   2719130   2717659   2716166   2714689  
  6530.000000   2713256   2711886   2710580   2709334   2708145  
  6520.000000   2707021   2705978   2705033   2704193   2703446  
  6510.000000   2702764   2702116   2701472   2700820   2700152  
  6500.000000   2699466   2698740   2697943   2697033   2695982  
  6490.000000   2694795   2693517   2692229   2691019   2689957  
  6480.000000   2689065   2688312   2687630   2686942   2686186  
  6470.000000   2685341   2684416   2683447   2682470   2681514  
  6460.000000   2680594   2679719   2678896   2678131   2677427  
  6450.000000   2676764   2676109   2675406   2674608   2673689  
  6440.000000   2672664   2671589   2670542   2669595   2668787  
  6430.000000   2668112   2667523   2666956   2666359   2665705  
  6420.000000   2665003   2664276   2663551   2662841   2662141  
  6410.000000   2661443   2660748   2660071   2659447   2658912  
  6400.000000   2658488   2658172   2657931   2657719   2657490  
  6390.000000   2657211   2656871   2656473   2656027   2655541  
  6380.000000   2655018   2654461   2653882   2653299   2652743  
  6370.000000   2652237   2651791   2651394   2651014   2650616  
  6360.000000   2650169   2649665   2649115   2648549   2648000  
  6350.000000   2647495   2647048   2646662   2646323   2646015  
  6340.000000   2645705   2645361   2644938   2644406   2643741  
  6330.000000   2642952   2642070   2641152   2640253   2639415  
  6320.000000   2638643   2637912   2637162   2636338   2635390  
  6310.000000   2634306   2633088   2631768   2630366   2628904  
  6300.000000   2627384   2625812   2624188   2622532   2620862  
  6290.000000   2619207   2617575   2615970   2614371   2612764  
  6280.000000   2611124   2609446   2607718   2605946   2604120  
  6270.000000   2602241   2600300   2598303   2596253   2594167  
  6260.000000   2592052   2589910   2587726   2585481   2583152  
  6250.000000   2580741   2578265   2575770   2573296   2570885  
  6240.000000   2568544   2566263   2564012   2561764   2559502  
  6230.000000   2557228   2554954   2552689   2550429   2548161  
  6220.000000   2545863   2543523   2541148   2538764   2536407  
  6210.000000   2534103   2531858   2529653   2527450   2525214  
  6200.000000   2522923   2520583   2518216   2515854   2513519  
  6190.000000   2511217   2508938   2506671   2504408   2502153  
  6180.000000   2499921   2497718   2495542   2493373   2491183  
  6170.000000   2488949   2486666   2484350   2482038   2479769  
  6160.000000   2477572   2475454   2473406   2471406   2469439  
  6150.000000   2467496   2465581   2463698   2461845   2460004  
  6140.000000   2458152   2456262   2454325   2452348   2450360  
  6130.000000   2448394   2446483   2444642   2442879   2441183  
  6120.000000   2439550   2437974   2436458   2434999   2433597  
  6110.000000   2432230   2430882   2429528   2428158   2426769  
  6100.000000   2425380   2424008   2422681   2421416   2420233  
  6090.000000   2419145   2418173   2417325   2416610   2416009  
  6080.000000   2415491   2415000   2414481   2413884   2413193  
  6070.000000   2412415   2411596   2410783   2410034   2409378  
  6060.000000   2408840   2408410   2408085   2407847   2407691  
  6050.000000   2407605   2407589   2407633   2407743   2407917  
  6040.000000   2408172   2408514   2408957   2409492   2410107  
  6030.000000   2410766   2411446   2412120   2412791   2413471  
  6020.000000   2414194   2414980   2415846   2416779   2417761  
  6010.000000   2418757   2419751   2420729   2421702   2422680  
  6000.000000   2423675   2424686   2425705   2426712   2427698  
  5990.000000   2428652   2429582   2430491   2431400   2432316  
  5980.000000   2433261   2434252   2435323   2436501   2437824  
  5970.000000   2439307   2440957   2442751   2444664   2446659  
  5960.000000   2448718   2450823   2452983   2455196   2457468  
  5950.000000   2459782   2462124   2464466   2466799   2469113  
  5940.000000   2471421   2473736   2476077   2478455   2480875  
  5930.000000   2483341   2485857   2488428   2491054   2493727  
  5920.000000   2496423   2499101   2501711   2504210   2506571  
  5910.000000   2508793   2510901   2512931   2514924   2516912  
  5900.000000   2518912   2520929   2522964   2525023   2527112  
  5890.000000   2529244   2531427   2533662   2535940   2538245  
  5880.000000   2540562   2542877   2545182   2547471   2549741  
  5870.000000   2551983   2554191   2556353   2558468   2560536  
  5860.000000   2562568   2564570   2566556   2568537   2570528  
  5850.000000   2572551   2574635   2576809   2579101   2581522  
  5840.000000   2584065   2586701   2589394   2592108   2594816  
  5830.000000   2597511   2600197   2602882   2605569   2608249  
  5820.000000   2610901   2613506   2616041   2618499   2620870  
  5810.000000   2623155   2625338   2627412   2629350   2631155  
  5800.000000   2632819   2634376   2635844   2637266   2638639  
  5790.000000   2639970   2641215   2642347   2643305   2644060  
  5780.000000   2644560   2644777   2644667   2644210   2643390  
  5770.000000   2642234   2640799   2639184   2637501   2635866  
  5760.000000   2634360   2633035   2631897   2630938   2630134  
  5750.000000   2629473   2628945   2628544   2628254   2628041  
  5740.000000   2627870   2627695   2627498   2627270   2627040  
  5730.000000   2626832   2626687   2626618   2626634   2626723  
  5720.000000   2626881   2627098   2627380   2627723   2628124  
  5710.000000   2628563   2629021   2629473   2629914   2630347  
  5700.000000   2630797   2631287   2631832   2632431   2633069  
  5690.000000   2633723   2634375   2635025   2635677   2636349  
  5680.000000   2637036   2637725   2638374   2638937   2639364  
  5670.000000   2639625   2639705   2639613   2639359   2638963  
  5660.000000   2638432   2637790   2637057   2636274   2635481  
  5650.000000   2634727   2634033   2633408   2632830   2632267  
  5640.000000   2631682   2631054   2630372   2629648   2628894  
  5630.000000   2628126   2627352   2626579   2625812   2625060  
  5620.000000   2624332   2623636   2622969   2622319   2621664  
  5610.000000   2620986   2620269   2619515   2618736   2617948  
  5600.000000   2617163   2616388   2615615   2614838   2614050  
  5590.000000   2613255   2612455   2611655   2610844   2610010  
  5580.000000   2609128   2608182   2607168   2606099   2604995  
  5570.000000   2603880   2602759   2601627   2600462   2599245  
  5560.000000   2597966   2596636   2595279   2593927   2592596  
  5550.000000   2591288   2589984   2588659   2587295   2585892  
  5540.000000   2584468   2583054   2581678   2580359   2579098  
  5530.000000   2577887   2576716   2575577   2574468   2573390  
  5520.000000   2572334   2571284   2570213   2569098   2567925  
  5510.000000   2566699   2565437   2564165   2562900   2561650  
  5500.000000   2560407   2559160   2557897   2556619   2555333  
  5490.000000   2554049   2552765   2551468   2550129   2548725  
  5480.000000   2547234   2545658   2544011   2542322   2540607  
  5470.000000   2538879   2537128   2535341   2533499   2531597  
  5460.000000   2529632   2527613   2525540   2523412   2521223  
  5450.000000   2518978   2516687   2514381   2512095   2509861  
  5440.000000   2507693   2505587   2503527   2501491   2499475  
  5430.000000   2497485   2495541   2493654   2491830   2490050  
  5420.000000   2488301   2486567   2484870   2483242   2481744  
  5410.000000   2480413   2479275   2478301   2477459   2476691  
  5400.000000   2475983   2475325   2474759   2474312   2474026  
  5390.000000   2473893   2473907   2474027   2474244   2474546  
  5380.000000   2474971   2475538   2476295   2477232   2478356  
  5370.000000   2479621   2481023   2482525   2484154   2485896  
  5360.000000   2487797   2489844   2492086   2494516   2497212  
  5350.000000   2500198   2503577   2507368   2511644   2516359  
  5340.000000   2521526   2527060   2532983   2539238   2545897  
  5330.000000   2552931   2560422   2568326   2576701   2585487  
  5320.000000   2594764   2604504   2614833   2625749   2637382  
  5310.000000   2649697   2662779   2676541   2691039   2706192  
  5300.000000   2722084   2738679   2756112   2774386   2793645  
  5290.000000   2813870   2835135   2857329   2880413   2904201  
  5280.000000   2928630   2953573   2979081   3005166   3031975  
  5270.000000   3059544   3087909   3116933   3146425   3176117  
  5260.000000   3205786   3235297   3264624   3293840   3323003  
  5250.000000   3352150   3381165   3409897   3438061   3465490  
  5240.000000   3491992   3517607   3542338   3566375   3589756  
  5230.000000   3612621   3634884   3656543   3677398   3697411  
  5220.000000   3716422   3734499   3751608   3767934   3783509  
  5210.000000   3798512   3812904   3826741   3839854   3852219  
  5200.000000   3863659   3874226   3883864   3892739   3900862  
  5190.000000   3908391   3915278   3921590   3927211   3932178  
  5180.000000   3936401   3939963   3942828   3945096   3946727  
  5170.000000   3947795   3948241   3948143   3947474   3946342  
  5160.000000   3944746   3942782   3940414   3937687   3934538  
  5150.000000   3931004   3927050   3922748   3918100   3913178  
  5140.000000   3907970   3902519   3896800   3890855   3884686  
  5130.000000   3878362   3871902   3865363   3858737   3852040  
  5120.000000   3845241   3838353   3831375   3824349   3817298  
  5110.000000   3810262   3803237   3796219   3789173   3782079  
  5100.000000   3774919   3767707   3760460   3753213   3745979  
  5090.000000   3738775   3731589   3724417   3717246   3710076  
  5080.000000   3702902   3695724   3688532   3681316   3674059  
  5070.000000   3666757   3659412   3652043   3644670   3637315  
  5060.000000   3629984   3622674   3615364   3608036   3600667  
  5050.000000   3593256   3585799   3578312   3570803   3563282  
  5040.000000   3555753   3548220   3540688   3533164   3525658  
  5030.000000   3518173   3510716   3503279   3495863   3488464  
  5020.000000   3481098   3473781   3466554   3459443   3452490  
  5010.000000   3445703   3439105   3432681   3426448   3420390  
  5000.000000   3414536   3408881   3403464   3398276   3393352  
  4990.000000   3388671   3384265   3380110   3376249   3372665  
  4980.000000   3369409   3366464   3363876   3361619   3359741  
  4970.000000   3358215   3357092   3356348   3356031   3356105  
  4960.000000   3356604   3357477   3358750   3360371   3362371  
  4950.000000   3364709   3367420   3370463   3373870   3377595  
  4940.000000   3381672   3386065   3390816   3395900   3401357  
  4930.000000   3407150   3413300   3419750   3426506   3433515  
  4920.000000   3440793   3448306   3456084   3464102   3472385  
  4910.000000   3480900   3489660   3498629   3507815   3517189  
  4900.000000   3526757   3536496   3546404   3556454   3566638  
  4890.000000   3576929   3587308   3597746   3608211   3618663  
  4880.000000   3629058   3639356   3649515   3659512   3669319  
  4870.000000   3678935   3688341   3697544   3706529   3715312  
  4860.000000   3723886   3732279   3740487   3748539   3756420  
  4850.000000   3764142   3771674   3779023   3786165   3793121  
  4840.000000   3799884   3806492   3812943   3819274   3825473  
  4830.000000   3831564   3837526   3843373   3849074   3854628  
  4820.000000   3859993   3865160   3870089   3874786   3879243  
  4810.000000   3883493   3887554   3891471   3895250   3898918  
  4800.000000   3902463   3905899   3909216   3912441   3915580  
  4790.000000   3918670   3921714   3924731   3927701   3930623  
  4780.000000   3933463   3936221   3938871   3941417   3943837  
  4770.000000   3946129   3948261   3950229   3951999   3953579  
  4760.000000   3954950   3956136   3957127   3957949   3958589  
  4750.000000   3959067   3959363   3959497   3959453   3959253  
  4740.000000   3958880   3958354   3957654   3956796   3955761  
  4730.000000   3954566   3953199   3951681   3950003   3948181  
  4720.000000   3946207   3944094   3941837   3939457   3936958  
  4710.000000   3934371   3931709   3929005   3926272   3923537  
  4700.000000   3920808   3918100   3915408   3912735   3910064  
  4690.000000   3907386   3904685   3901954   3899189   3896394  
  4680.000000   3893577   3890746   3887907   3885057   3882194  
  4670.000000   3879310   3876405   3873484   3870566   3867670  
  4660.000000   3864831   3862070   3859416   3856880   3854480  
  4650.000000   3852215   3850099   3848129   3846314   3844650  
  4640.000000   3843144   3841785   3840575   3839502   3838562  
  4630.000000   3837737   3837014   3836362   3835758   3835163  
  4620.000000   3834554   3833903   3833199   3832434   3831615  
  4610.000000   3830743   3829831   3828886   3827922   3826953  
  4600.000000   3826000   3825083   3824218   3823417   3822676  
  4590.000000   3821985   3821319   3820657   3819974   3819256  
  4580.000000   3818491   3817678   3816815   3815907   3814950  
  4570.000000   3813951   3812907   3811823   3810697   3809533  
  4560.000000   3808326   3807078   3805784   3804448   3803068  
  4550.000000   3801651   3800195   3798702   3797169   3795593  
  4540.000000   3793979   3792335   3790684   3789043   3787441  
  4530.000000   3785889   3784406   3782985   3781646   3780383  
  4520.000000   3779242   3778234   3777426   3776828   3776500  
  4510.000000   3776423   3776646   3777141   3777977   3779159  
  4500.000000   3780799   3782929   3785674   3789050   3793149  
  4490.000000   3797943   3803488   3809726   3816702   3824348  
  4480.000000   3832698   3841678   3851306   3861496   3872255  
  4470.000000   3883500   3895236   3907391   3919967   3932892  
  4460.000000   3946158   3959684   3973441   3987343   4001346  
  4450.000000   4015368   4029365   4043279   4057084   4070767  
  4440.000000   4084326   4097781   4111138   4124424   4137623  
  4430.000000   4150754   4163772   4176691   4189438   4202023  
  4420.000000   4214345   4226393   4238037   4249242   4259861  
  4410.000000   4269858   4279090   4287539   4295087   4301742  
  4400.000000   4307414   4312144   4315883   4318710   4320633  
  4390.000000   4321774   4322193   4322040   4321404   4320434  
  4380.000000   4319213   4317868   4316469   4315119   4313891  
  4370.000000   4312880   4312173   4311851   4311998   4312663  
  4360.000000   4313897   4315698   4318067   4320956   4324325  
  4350.000000   4328103   4332237   4336678   4341401   4346402  
  4340.000000   4351690   4357264   4363091   4369068   4375015  
  4330.000000   4380669   4385722   4389867   4392868   4394625  
  4320.000000   4395195   4394810   4393802   4392573   4391459  
  4310.000000   4390735   4390501   4390778   4391443   4392376  
  4300.000000   4393413   4394463   4395436   4396308   4397050  
  4290.000000   4397656   4398105   4398388   4398495   4398435  
  4280.000000   4398226   4397914   4397538   4397171   4396856  
  4270.000000   4396660   4396601   4396692   4396871   4397045  
  4260.000000   4397050   4396715   4395856   4394354   4392154  
  4250.000000   4389310   4385953   4382286   4378515   4374844  
  4240.000000   4371401   4368268   4365443   4362894   4360545  
  4230.000000   4358328   4356163   4353993   4351763   4349427  
  4220.000000   4346966   4344360   4341637   4338825   4335997  
  4210.000000   4333213   4330561   4328090   4325858   4323880  
  4200.000000   4322174   4320720   4319519   4318531   4317752  
  4190.000000   4317135   4316687   4316365   4316199   4316162  
  4180.000000   4316308   4316623   4317178   4317967   4319073  
  4170.000000   4320510   4322383   4324719   4327627   4331118  
  4160.000000   4335261   4340011   4345384   4351292   4357737  
  4150.000000   4364638   4372025   4379842   4388145   4396890  
  4140.000000   4406135   4415835   4426048   4436733   4447947  
  4130.000000   4459646   4471869   4484554   4497715   4511284  
  4120.000000   4525274   4539634   4554402   4569556   4585143  
  4110.000000   4601139   4617570   4634384   4651567   4669043  
  4100.000000   4686776   4704697   4722783   4740999   4759354  
  4090.000000   4777850   4796510   4815343   4834349   4853519  
  4080.000000   4872819   4892225   4911688   4931187   4950662  
  4070.000000   4970092   4989404   5008581   5027549   5046315  
  4060.000000   5064819   5083088   5101048   5118709   5135960  
  4050.000000   5152796   5169097   5184896   5200103   5214787  
  4040.000000   5228854   5242350   5255127   5267192   5278372  
  4030.000000   5288693   5298009   5306372   5313664   5319923  
  4020.000000   5324997   5328941   5331706   5333400   5333971  
  4010.000000   5333618   5332450   5330530   5327615   5323829  
  4000.000000   5319607  
##END= 
