##TITLE= Sample 032 By ssteindl date Donnerstag, November 22 2018
##JCAMP-DX= 4.24
##DATA TYPE= INFRARED SPECTRUM
##ORIGIN= Exported PE Spectrum Data File
##OWNER= Sandra Steindl
##DATE= 18/11/22
##TIME= 11:21:58.00
##SPECTROMETER/DATA SYSTEM= PERKIN-ELMER Frontier FT-IR/NIR IR
##INSTRUMENT PARAMETERS=
  APODIZATION=stark
  DETECTOR=INGAAS
##RESOLUTION= 16.000000
##DELTAX= -2.000000
##XUNITS= 1/CM
##YUNITS= A
##XFACTOR= 1.00
##YFACTOR= 0.00000011920928955078
##FIRSTX= 10000.00
##LASTX= 4000.00
##NPOINTS= 3001
##FIRSTY= 0.220156
##MAXY= 0.613258
##MINY= 0.190833
##XYDATA= (X++(Y..Y))
 10000.000000   1846799   1846027   1846224   1848717   1853519  
  9990.000000   1859531   1865393   1870031   1872592   1872713  
  9980.000000   1870740   1867475   1863759   1860091   1856654  
  9970.000000   1853241   1849508   1845132   1840019   1834328  
  9960.000000   1828407   1822772   1817957   1814576   1813151  
  9950.000000   1814116   1817586   1823319   1830599   1838376  
  9940.000000   1845399   1850545   1853097   1852939   1850619  
  9930.000000   1847078   1843405   1840354   1838197   1836557  
  9920.000000   1834663   1831582   1826690   1819917   1811888  
  9910.000000   1803789   1796977   1792641   1791324   1792927  
  9900.000000   1796683   1801602   1806783   1811755   1816522  
  9890.000000   1821389   1826641   1832190   1837468   1841448  
  9880.000000   1843089   1841625   1837054   1830067   1821984  
  9870.000000   1814235   1807975   1803776   1801531   1800713  
  9860.000000   1800591   1800652   1800670   1800822   1801440  
  9850.000000   1802889   1805309   1808592   1812387   1816188  
  9840.000000   1819517   1821938   1823229   1823302   1822263  
  9830.000000   1820342   1817831   1815067   1812317   1809813  
  9820.000000   1807694   1806065   1804994   1804536   1804658  
  9810.000000   1805204   1805809   1805934   1805013   1802634  
  9800.000000   1798830   1794089   1789345   1785609   1783666  
  9790.000000   1783760   1785515   1788170   1790843   1793003  
  9780.000000   1794584   1796053   1798092   1801264   1805695  
  9770.000000   1810923   1816060   1819994   1821790   1820836  
  9760.000000   1817044   1810772   1802794   1794160   1786045  
  9750.000000   1779626   1775796   1775043   1777146   1781274  
  9740.000000   1786057   1790070   1792241   1792247   1790573  
  9730.000000   1788249   1786373   1785576   1785784   1786226  
  9720.000000   1785926   1784132   1780814   1776661   1772822  
  9710.000000   1770377   1769806   1770822   1772467   1773633  
  9700.000000   1773527   1772047   1769744   1767535   1766229  
  9690.000000   1766205   1767283   1768907   1770437   1771392  
  9680.000000   1771595   1771044   1769819   1767881   1765134  
  9670.000000   1761494   1757095   1752355   1747941   1744542  
  9660.000000   1742643   1742345   1743364   1745204   1747361  
  9650.000000   1749547   1751701   1753911   1756258   1758663  
  9640.000000   1760926   1762766   1764015   1764653   1764848  
  9630.000000   1764810   1764698   1764524   1764201   1763672  
  9620.000000   1762991   1762421   1762249   1762708   1763718  
  9610.000000   1764951   1765871   1766040   1765274   1763760  
  9600.000000   1761942   1760269   1758970   1757872   1756514  
  9590.000000   1754334   1751012   1746634   1741722   1737040  
  9580.000000   1733296   1730945   1730044   1730414   1731727  
  9570.000000   1733739   1736273   1739202   1742318   1745263  
  9560.000000   1747581   1748797   1748612   1746953   1744021  
  9550.000000   1740155   1735762   1731168   1726662   1722508  
  9540.000000   1719005   1716490   1715167   1715056   1715775  
  9530.000000   1716720   1717129   1716510   1714811   1712544  
  9520.000000   1710597   1709800   1710584   1712596   1714867  
  9510.000000   1716006   1714832   1710720   1703916   1695425  
  9500.000000   1686725   1679349   1674483   1672779   1674257  
  9490.000000   1678460   1684551   1691516   1698277   1703845  
  9480.000000   1707491   1708854   1708084   1705725   1702645  
  9470.000000   1699646   1697326   1695799   1694831   1693965  
  9460.000000   1692824   1691344   1689782   1688683   1688526  
  9450.000000   1689621   1691852   1694829   1697966   1700744  
  9440.000000   1702854   1704217   1704960   1705210   1705045  
  9430.000000   1704381   1703076   1700985   1698099   1694573  
  9420.000000   1690747   1687074   1684018   1682003   1681255  
  9410.000000   1681857   1683622   1686228   1689198   1692071  
  9400.000000   1694486   1696274   1697464   1698173   1698487  
  9390.000000   1698315   1697443   1695585   1692637   1688744  
  9380.000000   1684378   1680191   1676809   1674610   1673577  
  9370.000000   1673343   1673378   1673251   1672845   1672357  
  9360.000000   1672192   1672680   1673893   1675558   1677188  
  9350.000000   1678353   1678923   1679188   1679718   1681129  
  9340.000000   1683750   1687502   1691845   1696010   1699203  
  9330.000000   1700892   1700881   1699282   1696354   1692372  
  9320.000000   1687591   1682276   1676780   1671527   1666935  
  9310.000000   1663253   1660448   1658223   1656117   1653763  
  9300.000000   1651050   1648289   1646088   1645140   1645886  
  9290.000000   1648296   1651879   1655840   1659412   1662058  
  9280.000000   1663631   1664267   1664270   1663869   1663171  
  9270.000000   1662147   1660793   1659203   1657613   1656281  
  9260.000000   1655358   1654794   1654326   1653634   1652467  
  9250.000000   1650846   1649048   1647548   1646771   1646901  
  9240.000000   1647787   1649013   1650102   1650688   1650646  
  9230.000000   1650052   1649115   1648002   1646791   1645447  
  9220.000000   1643957   1642402   1641015   1640099   1639879  
  9210.000000   1640385   1641393   1642534   1643450   1643966  
  9200.000000   1644174   1644341   1644765   1645567   1646605  
  9190.000000   1647481   1647706   1646947   1645204   1642859  
  9180.000000   1640543   1638936   1638522   1639446   1641446  
  9170.000000   1643957   1646270   1647742   1647945   1646734  
  9160.000000   1644259   1640938   1637376   1634218   1631975  
  9150.000000   1630918   1631014   1631935   1633158   1634149  
  9140.000000   1634547   1634269   1633487   1632513   1631649  
  9130.000000   1631041   1630651   1630279   1629732   1628919  
  9120.000000   1627944   1627046   1626492   1626449   1626910  
  9110.000000   1627719   1628643   1629480   1630133   1630610  
  9100.000000   1630974   1631245   1631380   1631271   1630843  
  9090.000000   1630116   1629239   1628460   1628022   1628059  
  9080.000000   1628519   1629198   1629831   1630219   1630307  
  9070.000000   1630192   1630054   1630041   1630170   1630315  
  9060.000000   1630259   1629825   1628982   1627890   1626858  
  9050.000000   1626223   1626211   1626838   1627868   1628924  
  9040.000000   1629587   1629564   1628756   1627297   1625520  
  9030.000000   1623835   1622604   1622022   1622065   1622487  
  9020.000000   1622906   1622910   1622211   1620746   1618721  
  9010.000000   1616552   1614712   1613591   1613348   1613880  
  9000.000000   1614866   1615911   1616713   1617151   1617312  
  8990.000000   1617393   1617588   1617958   1618394   1618641  
  8980.000000   1618456   1617695   1616450   1614974   1613632  
  8970.000000   1612723   1612388   1612558   1613000   1613444  
  8960.000000   1613705   1613770   1613785   1614005   1614654  
  8950.000000   1615853   1617536   1619510   1621503   1623254  
  8940.000000   1624587   1625421   1625788   1625749   1625360  
  8930.000000   1624642   1623578   1622167   1620441   1618537  
  8920.000000   1616677   1615158   1614238   1614084   1614672  
  8910.000000   1615795   1617076   1618087   1618489   1618116  
  8900.000000   1617040   1615494   1613808   1612266   1611033  
  8890.000000   1610126   1609478   1609023   1608789   1608900  
  8880.000000   1609519   1610746   1612512   1614556   1616460  
  8870.000000   1617797   1618284   1617884   1616837   1615546  
  8860.000000   1614456   1613862   1613849   1614269   1614868  
  8850.000000   1615367   1615606   1615553   1615291   1614951  
  8840.000000   1614619   1614356   1614175   1614147   1614404  
  8830.000000   1615158   1616629   1618940   1622022   1625565  
  8820.000000   1629056   1631895   1633546   1633692   1632329  
  8810.000000   1629773   1626594   1623465   1621007   1619640  
  8800.000000   1619499   1620430   1622040   1623826   1625279  
  8790.000000   1626041   1625970   1625187   1624008   1622852  
  8780.000000   1622113   1622036   1622677   1623876   1625353  
  8770.000000   1626779   1627912   1628640   1629015   1629191  
  8760.000000   1629360   1629654   1630121   1630681   1631202  
  8750.000000   1631526   1631576   1631367   1631027   1630758  
  8740.000000   1630764   1631216   1632183   1633656   1635538  
  8730.000000   1637698   1640001   1642324   1644557   1646589  
  8720.000000   1648309   1649613   1650437   1650770   1650691  
  8710.000000   1650338   1649902   1649552   1649397   1649453  
  8700.000000   1649645   1649874   1650048   1650158   1650267  
  8690.000000   1650518   1651051   1651975   1653297   1654926  
  8680.000000   1656686   1658364   1659772   1660782   1661368  
  8670.000000   1661583   1661563   1661471   1661481   1661707  
  8660.000000   1662195   1662882   1663656   1664362   1664892  
  8650.000000   1665211   1665390   1665586   1665970   1666690  
  8640.000000   1667805   1669298   1671110   1673186   1675535  
  8630.000000   1678190   1681174   1684388   1687589   1690391  
  8620.000000   1692393   1693314   1693150   1692213   1691072  
  8610.000000   1690377   1690621   1692002   1694332   1697164  
  8600.000000   1699933   1702198   1703735   1704593   1704964  
  8590.000000   1705082   1705094   1705026   1704845   1704509  
  8580.000000   1704069   1703633   1703338   1703248   1703317  
  8570.000000   1703416   1703405   1703270   1703157   1703367  
  8560.000000   1704222   1705915   1708399   1711359   1714333  
  8550.000000   1716856   1718668   1719744   1720304   1720637  
  8540.000000   1720977   1721401   1721843   1722199   1722451  
  8530.000000   1722750   1723388   1724683   1726803   1729657  
  8520.000000   1732867   1735889   1738189   1739440   1739629  
  8510.000000   1739033   1738099   1737287   1736926   1737166  
  8500.000000   1737969   1739202   1740692   1742279   1743814  
  8490.000000   1745147   1746134   1746644   1746605   1746038  
  8480.000000   1745089   1743981   1742979   1742293   1742072  
  8470.000000   1742370   1743180   1744467   1746167   1748213  
  8460.000000   1750487   1752836   1755065   1756998   1758542  
  8450.000000   1759707   1760611   1761395   1762168   1762911  
  8440.000000   1763487   1763687   1763343   1762438   1761152  
  8430.000000   1759824   1758841   1758506   1758918   1759948  
  8420.000000   1761269   1762507   1763363   1763727   1763686  
  8410.000000   1763491   1763458   1763850   1764806   1766298  
  8400.000000   1768172   1770161   1771966   1773307   1774006  
  8390.000000   1774009   1773420   1772477   1771523   1770914  
  8380.000000   1770919   1771654   1773040   1774842   1776720  
  8370.000000   1778361   1779547   1780249   1780584   1780791  
  8360.000000   1781114   1781743   1782731   1783989   1785304  
  8350.000000   1786407   1787050   1787080   1786475   1785361  
  8340.000000   1783973   1782593   1781453   1780670   1780213  
  8330.000000   1779917   1779555   1778935   1777994   1776831  
  8320.000000   1775675   1774810   1774447   1774675   1775409  
  8310.000000   1776451   1777575   1778607   1779489   1780248  
  8300.000000   1780954   1781624   1782193   1782511   1782427  
  8290.000000   1781852   1780847   1779600   1778386   1777461  
  8280.000000   1776971   1776929   1777211   1777669   1778171  
  8270.000000   1778697   1779297   1780071   1781064   1782225  
  8260.000000   1783382   1784300   1784754   1784606   1783850  
  8250.000000   1782597   1781040   1779388   1777813   1776428  
  8240.000000   1775279   1774370   1773661   1773099   1772599  
  8230.000000   1772073   1771434   1770640   1769702   1768702  
  8220.000000   1767756   1766985   1766456   1766165   1766023  
  8210.000000   1765902   1765678   1765280   1764706   1764005  
  8200.000000   1763231   1762411   1761517   1760489   1759266  
  8190.000000   1757834   1756251   1754635   1753123   1751818  
  8180.000000   1750745   1749842   1748990   1748060   1746967  
  8170.000000   1745704   1744340   1742997   1741803   1740856  
  8160.000000   1740194   1739794   1739589   1739484   1739376  
  8150.000000   1739163   1738762   1738110   1737180   1735989  
  8140.000000   1734597   1733097   1731589   1730159   1728849  
  8130.000000   1727657   1726543   1725455   1724351   1723223  
  8120.000000   1722088   1720979   1719921   1718919   1717950  
  8110.000000   1716983   1715995   1714989   1714006   1713103  
  8100.000000   1712340   1711747   1711310   1710967   1710621  
  8090.000000   1710176   1709564   1708775   1707858   1706916  
  8080.000000   1706074   1705436   1705053   1704897   1704854  
  8070.000000   1704756   1704412   1703677   1702483   1700885  
  8060.000000   1699043   1697199   1695602   1694446   1693803  
  8050.000000   1693602   1693648   1693674   1693418   1692703  
  8040.000000   1691473   1689814   1687917   1686024   1684370  
  8030.000000   1683111   1682311   1681908   1681756   1681646  
  8020.000000   1681369   1680756   1679729   1678327   1676705  
  8010.000000   1675102   1673791   1672997   1672831   1673248  
  8000.000000   1674058   1674968   1675674   1675948   1675700  
  7990.000000   1674995   1674021   1673009   1672157   1671561  
  7980.000000   1671201   1670956   1670669   1670208   1669511  
  7970.000000   1668607   1667587   1666574   1665674   1664955  
  7960.000000   1664435   1664086   1663856   1663672   1663461  
  7950.000000   1663150   1662686   1662048   1661265   1660415  
  7940.000000   1659628   1659037   1658758   1658829   1659205  
  7930.000000   1659757   1660313   1660712   1660855   1660738  
  7920.000000   1660442   1660107   1659875   1659841   1660028  
  7910.000000   1660374   1660767   1661067   1661152   1660940  
  7900.000000   1660409   1659591   1658573   1657478   1656439  
  7890.000000   1655589   1655021   1654780   1654846   1655144  
  7880.000000   1655562   1655980   1656300   1656468   1656473  
  7870.000000   1656335   1656081   1655730   1655292   1654774  
  7860.000000   1654201   1653632   1653157   1652875   1652860  
  7850.000000   1653128   1653618   1654200   1654703   1654970  
  7840.000000   1654891   1654440   1653667   1652686   1651631  
  7830.000000   1650632   1649786   1649145   1648718   1648475  
  7820.000000   1648345   1648231   1648011   1647571   1646812  
  7810.000000   1645701   1644274   1642647   1640993   1639496  
  7800.000000   1638304   1637483   1636997   1636725   1636495  
  7790.000000   1636153   1635599   1634828   1633923   1633021  
  7780.000000   1632269   1631767   1631540   1631513   1631548  
  7770.000000   1631472   1631139   1630474   1629504   1628355  
  7760.000000   1627218   1626303   1625764   1625664   1625943  
  7750.000000   1626439   1626929   1627193   1627076   1626523  
  7740.000000   1625590   1624414   1623168   1622009   1621037  
  7730.000000   1620276   1619687   1619185   1618677   1618094  
  7720.000000   1617404   1616626   1615814   1615049   1614406  
  7710.000000   1613941   1613663   1613538   1613491   1613426  
  7700.000000   1613259   1612931   1612440   1611823   1611148  
  7690.000000   1610482   1609870   1609315   1608799   1608284  
  7680.000000   1607756   1607225   1606728   1606310   1605994  
  7670.000000   1605777   1605619   1605480   1605344   1605240  
  7660.000000   1605238   1605413   1605806   1606365   1606956  
  7650.000000   1607368   1607402   1606927   1605947   1604607  
  7640.000000   1603163   1601907   1601081   1600819   1601111  
  7630.000000   1601840   1602813   1603844   1604784   1605553  
  7620.000000   1606123   1606496   1606685   1606689   1606511  
  7610.000000   1606147   1605621   1604964   1604240   1603514  
  7600.000000   1602858   1602337   1601996   1601879   1601999  
  7590.000000   1602365   1602958   1603743   1604663   1605637  
  7580.000000   1606573   1607363   1607912   1608130   1607975  
  7570.000000   1607451   1606643   1605694   1604799   1604148  
  7560.000000   1603889   1604079   1604681   1605568   1606572  
  7550.000000   1607527   1608325   1608925   1609367   1609729  
  7540.000000   1610101   1610555   1611153   1611935   1612947  
  7530.000000   1614224   1615788   1617613   1619617   1621652  
  7520.000000   1623544   1625121   1626279   1627002   1627386  
  7510.000000   1627587   1627792   1628151   1628764   1629660  
  7500.000000   1630823   1632209   1633767   1635447   1637199  
  7490.000000   1638968   1640699   1642340   1643871   1645297  
  7480.000000   1646666   1648023   1649410   1650818   1652218  
  7470.000000   1653550   1654786   1655933   1657068   1658302  
  7460.000000   1659756   1661504   1663552   1665831   1668225  
  7450.000000   1670614   1672923   1675143   1677327   1679553  
  7440.000000   1681896   1684373   1686949   1689519   1691965  
  7430.000000   1694172   1696084   1697708   1699136   1700515  
  7420.000000   1702012   1703774   1705886   1708346   1711060  
  7410.000000   1713870   1716599   1719103   1721310   1723239  
  7400.000000   1724986   1726685   1728462   1730400   1732526  
  7390.000000   1734823   1737251   1739773   1742367   1745011  
  7380.000000   1747665   1750261   1752701   1754889   1756767  
  7370.000000   1758341   1759699   1760979   1762334   1763880  
  7360.000000   1765664   1767660   1769794   1771979   1774156  
  7350.000000   1776301   1778419   1780518   1782589   1784607  
  7340.000000   1786540   1788386   1790188   1792032   1794018  
  7330.000000   1796217   1798638   1801212   1803806   1806279  
  7320.000000   1808516   1810482   1812201   1813751   1815211  
  7310.000000   1816642   1818052   1819420   1820707   1821891  
  7300.000000   1822966   1823953   1824864   1825707   1826460  
  7290.000000   1827108   1827635   1828069   1828462   1828888  
  7280.000000   1829402   1830021   1830705   1831366   1831905  
  7270.000000   1832241   1832353   1832286   1832154   1832093  
  7260.000000   1832237   1832676   1833452   1834550   1835922  
  7250.000000   1837490   1839176   1840892   1842568   1844134  
  7240.000000   1845558   1846831   1848009   1849169   1850440  
  7230.000000   1851915   1853673   1855703   1857945   1860272  
  7220.000000   1862557   1864688   1866635   1868430   1870193  
  7210.000000   1872057   1874165   1876592   1879355   1882387  
  7200.000000   1885595   1888868   1892148   1895408   1898690  
  7190.000000   1902040   1905518   1909132   1912873   1916678  
  7180.000000   1920499   1924280   1928030   1931766   1935558  
  7170.000000   1939454   1943509   1947727   1952111   1956615  
  7160.000000   1961221   1965889   1970618   1975397   1980248  
  7150.000000   1985177   1990222   1995403   2000773   2006358  
  7140.000000   2012203   2018305   2024664   2031227   2037949  
  7130.000000   2044755   2051601   2058435   2065253   2072048  
  7120.000000   2078859   2085710   2092653   2099705   2106887  
  7110.000000   2114175   2121546   2128949   2136359   2143754  
  7100.000000   2151159   2158605   2166147   2173804   2181577  
  7090.000000   2189414   2197256   2205031   2212719   2220338  
  7080.000000   2227968   2235698   2243620   2251769   2260134  
  7070.000000   2268648   2277236   2285823   2294381   2302903  
  7060.000000   2311409   2319907   2328397   2336856   2345271  
  7050.000000   2353645   2362009   2370405   2378864   2387380  
  7040.000000   2395893   2404312   2412547   2420555   2428361  
  7030.000000   2436063   2443785   2451637   2459650   2467782  
  7020.000000   2475905   2483883   2491591   2498991   2506107  
  7010.000000   2513033   2519859   2526674   2533499   2540337  
  7000.000000   2547144   2553890   2560536   2567070   2573464  
  6990.000000   2579704   2585748   2591576   2597154   2602493  
  6980.000000   2607599   2612518   2617277   2621930   2626503  
  6970.000000   2631046   2635575   2640121   2644660   2649163  
  6960.000000   2653545   2657737   2661663   2665317   2668721  
  6950.000000   2671970   2675145   2678326   2681520   2684695  
  6940.000000   2687765   2690665   2693342   2695813   2698118  
  6930.000000   2700326   2702476   2704590   2706647   2708631  
  6920.000000   2710521   2712337   2714106   2715874   2717659  
  6910.000000   2719475   2721304   2723145   2724994   2726877  
  6900.000000   2728806   2730782   2732759   2734660   2736382  
  6890.000000   2737851   2739036   2739982   2740781   2741555  
  6880.000000   2742399   2743366   2744448   2745605   2746775  
  6870.000000   2747918   2749014   2750068   2751093   2752099  
  6860.000000   2753085   2754046   2754980   2755896   2756808  
  6850.000000   2757728   2758657   2759581   2760478   2761332  
  6840.000000   2762136   2762909   2763666   2764423   2765169  
  6830.000000   2765876   2766499   2767015   2767417   2767743  
  6820.000000   2768043   2768379   2768779   2769249   2769752  
  6810.000000   2770242   2770666   2770988   2771185   2771245  
  6800.000000   2771161   2770933   2770571   2770115   2769620  
  6790.000000   2769163   2768805   2768583   2768481   2768453  
  6780.000000   2768426   2768350   2768202   2768005   2767793  
  6770.000000   2767603   2767431   2767244   2766986   2766612  
  6760.000000   2766105   2765493   2764821   2764138   2763455  
  6750.000000   2762753   2761983   2761112   2760129   2759081  
  6740.000000   2758031   2757051   2756167   2755362   2754566  
  6730.000000   2753703   2752709   2751571   2750318   2749002  
  6720.000000   2747668   2746337   2744998   2743631   2742227  
  6710.000000   2740809   2739420   2738114   2736917   2735820  
  6700.000000   2734771   2733706   2732566   2731332   2730016  
  6690.000000   2728655   2727279   2725896   2724482   2723001  
  6680.000000   2721421   2719743   2717996   2716239   2714522  
  6670.000000   2712883   2711320   2709811   2708318   2706808  
  6660.000000   2705257   2703652   2701974   2700200   2698302  
  6650.000000   2696263   2694092   2691832   2689554   2687341  
  6640.000000   2685255   2683324   2681529   2679823   2678142  
  6630.000000   2676437   2674673   2672844   2670955   2669013  
  6620.000000   2667024   2664993   2662929   2660852   2658787  
  6610.000000   2656759   2654776   2652829   2650888   2648919  
  6600.000000   2646897   2644820   2642706   2640593   2638516  
  6590.000000   2636504   2634569   2632714   2630934   2629223  
  6580.000000   2627572   2625968   2624386   2622792   2621150  
  6570.000000   2619436   2617649   2615810   2613959   2612136  
  6560.000000   2610370   2608664   2607007   2605378   2603768  
  6550.000000   2602180   2600634   2599152   2597747   2596410  
  6540.000000   2595119   2593841   2592555   2591247   2589925  
  6530.000000   2588599   2587281   2585975   2584683   2583410  
  6520.000000   2582177   2581009   2579938   2578975   2578106  
  6510.000000   2577285   2576450   2575540   2574522   2573399  
  6500.000000   2572212   2571016   2569861   2568776   2567761  
  6490.000000   2566797   2565862   2564945   2564048   2563179  
  6480.000000   2562339   2561512   2560663   2559750   2558741  
  6470.000000   2557626   2556428   2555192   2553973   2552820  
  6460.000000   2551764   2550815   2549966   2549201   2548493  
  6450.000000   2547814   2547132   2546413   2545630   2544773  
  6440.000000   2543853   2542903   2541968   2541092   2540300  
  6430.000000   2539592   2538943   2538315   2537672   2536991  
  6420.000000   2536265   2535498   2534696   2533860   2532989  
  6410.000000   2532087   2531172   2530282   2529470   2528787  
  6400.000000   2528264   2527904   2527672   2527505   2527334  
  6390.000000   2527094   2526742   2526259   2525645   2524915  
  6380.000000   2524091   2523203   2522288   2521385   2520535  
  6370.000000   2519771   2519104   2518529   2518011   2517508  
  6360.000000   2516970   2516360   2515656   2514858   2513979  
  6350.000000   2513043   2512076   2511105   2510153   2509235  
  6340.000000   2508360   2507524   2506714   2505913   2505100  
  6330.000000   2504269   2503412   2502540   2501658   2500771  
  6320.000000   2499867   2498934   2497951   2496904   2495788  
  6310.000000   2494611   2493379   2492104   2490779   2489399  
  6300.000000   2487952   2486440   2484870   2483270   2481660  
  6290.000000   2480064   2478474   2476881   2475251   2473566  
  6280.000000   2471807   2469980   2468091   2466156   2464175  
  6270.000000   2462147   2460055   2457891   2455648   2453339  
  6260.000000   2450973   2448570   2446138   2443687   2441219  
  6250.000000   2438749   2436287   2433858   2431469   2429121  
  6240.000000   2426790   2424446   2422053   2419597   2417078  
  6230.000000   2414524   2411966   2409429   2406915   2404405  
  6220.000000   2401866   2399272   2396610   2393895   2391155  
  6210.000000   2388427   2385738   2383097   2380498   2377929  
  6200.000000   2375377   2372842   2370330   2367845   2365391  
  6190.000000   2362961   2360548   2358147   2355767   2353425  
  6180.000000   2351141   2348927   2346774   2344656   2342534  
  6170.000000   2340369   2338139   2335842   2333498   2331134  
  6160.000000   2328780   2326454   2324166   2321915   2319706  
  6150.000000   2317543   2315438   2313400   2311435   2309540  
  6140.000000   2307708   2305928   2304189   2302477   2300781  
  6130.000000   2299080   2297355   2295583   2293758   2291887  
  6120.000000   2290005   2288153   2286377   2284704   2283142  
  6110.000000   2281669   2280257   2278874   2277508   2276160  
  6100.000000   2274852   2273604   2272433   2271339   2270316  
  6090.000000   2269349   2268438   2267578   2266776   2266026  
  6080.000000   2265320   2264631   2263937   2263218   2262480  
  6070.000000   2261741   2261042   2260414   2259889   2259472  
  6060.000000   2259164   2258953   2258837   2258814   2258895  
  6050.000000   2259075   2259350   2259688   2260060   2260429  
  6040.000000   2260786   2261131   2261494   2261900   2262379  
  6030.000000   2262933   2263557   2264225   2264921   2265632  
  6020.000000   2266363   2267121   2267919   2268756   2269625  
  6010.000000   2270510   2271398   2272281   2273164   2274054  
  6000.000000   2274962   2275890   2276836   2277790   2278746  
  5990.000000   2279702   2280668   2281657   2282688   2283769  
  5980.000000   2284908   2286098   2287338   2288618   2289940  
  5970.000000   2291299   2292701   2294142   2295629   2297158  
  5960.000000   2298738   2300374   2302079   2303852   2305695  
  5950.000000   2307595   2309539   2311502   2313475   2315444  
  5940.000000   2317416   2319391   2321382   2323390   2325419  
  5930.000000   2327466   2329530   2331610   2333708   2335824  
  5920.000000   2337960   2340109   2342264   2344409   2346527  
  5910.000000   2348597   2350601   2352521   2354345   2356072  
  5900.000000   2357713   2359297   2360862   2362456   2364121  
  5890.000000   2365894   2367791   2369811   2371936   2374142  
  5880.000000   2376392   2378648   2380873   2383025   2385071  
  5870.000000   2386984   2388760   2390407   2391965   2393475  
  5860.000000   2394992   2396556   2398198   2399931   2401760  
  5850.000000   2403686   2405711   2407835   2410055   2412357  
  5840.000000   2414722   2417121   2419534   2421953   2424386  
  5830.000000   2426851   2429369   2431946   2434568   2437202  
  5820.000000   2439799   2442317   2444722   2447007   2449168  
  5810.000000   2451221   2453166   2455007   2456730   2458341  
  5800.000000   2459830   2461226   2462534   2463784   2464966  
  5790.000000   2466082   2467092   2467976   2468690   2469216  
  5780.000000   2469517   2469575   2469354   2468841   2468023  
  5770.000000   2466931   2465618   2464178   2462707   2461301  
  5760.000000   2460022   2458900   2457926   2457079   2456332  
  5750.000000   2455673   2455102   2454625   2454250   2453971  
  5740.000000   2453776   2453638   2453543   2453468   2453416  
  5730.000000   2453378   2453363   2453366   2453401   2453474  
  5720.000000   2453610   2453832   2454167   2454618   2455179  
  5710.000000   2455813   2456483   2457149   2457795   2458425  
  5700.000000   2459064   2459738   2460469   2461256   2462084  
  5690.000000   2462931   2463777   2464620   2465462   2466320  
  5680.000000   2467194   2468078   2468941   2469751   2470465  
  5670.000000   2471061   2471518   2471836   2472012   2472054  
  5660.000000   2471963   2471751   2471431   2471036   2470594  
  5650.000000   2470142   2469697   2469273   2468861   2468453  
  5640.000000   2468033   2467598   2467139   2466656   2466140  
  5630.000000   2465589   2465000   2464382   2463755   2463150  
  5620.000000   2462592   2462097   2461655   2461241   2460811  
  5610.000000   2460330   2459774   2459149   2458472   2457775  
  5600.000000   2457077   2456389   2455702   2455004   2454281  
  5590.000000   2453532   2452756   2451960   2451136   2450276  
  5580.000000   2449363   2448388   2447350   2446270   2445170  
  5570.000000   2444073   2442983   2441892   2440773   2439602  
  5560.000000   2438364   2437064   2435722   2434366   2433019  
  5550.000000   2431692   2430383   2429088   2427805   2426542  
  5540.000000   2425311   2424128   2422995   2421904   2420834  
  5530.000000   2419765   2418682   2417581   2416469   2415354  
  5520.000000   2414243   2413129   2412005   2410864   2409708  
  5510.000000   2408550   2407405   2406287   2405193   2404110  
  5500.000000   2403016   2401896   2400742   2399569   2398393  
  5490.000000   2397227   2396064   2394881   2393639   2392309  
  5480.000000   2390877   2389362   2387792   2386212   2384642  
  5470.000000   2383090   2381529   2379932   2378263   2376514  
  5460.000000   2374678   2372768   2370783   2368724   2366578  
  5450.000000   2364341   2362021   2359643   2357247   2354873  
  5440.000000   2352552   2350296   2348106   2345978   2343916  
  5430.000000   2341928   2340025   2338197   2336426   2334667  
  5420.000000   2332893   2331085   2329280   2327534   2325943  
  5410.000000   2324566   2323443   2322537   2321800   2321153  
  5400.000000   2320561   2320005   2319524   2319151   2318931  
  5390.000000   2318858   2318928   2319094   2319354   2319699  
  5380.000000   2320183   2320841   2321731   2322847   2324185  
  5370.000000   2325681   2327310   2329018   2330827   2332726  
  5360.000000   2334775   2336975   2339389   2342010   2344908  
  5350.000000   2348086   2351631   2355544   2359901   2364666  
  5340.000000   2369881   2375487   2381533   2387976   2394888  
  5330.000000   2402231   2410070   2418345   2427107   2436299  
  5320.000000   2446006   2456216   2467063   2478549   2490802  
  5310.000000   2503774   2517537   2531986   2547171   2563001  
  5300.000000   2579563   2596825   2614929   2633887   2653855  
  5290.000000   2674822   2696879   2719920   2743914   2768669  
  5280.000000   2794111   2820097   2846656   2873783   2901607  
  5270.000000   2930157   2959462   2989387   3019739   3050256  
  5260.000000   3080715   3110988   3141046   3170961   3200784  
  5250.000000   3230551   3260131   3289374   3317984   3345801  
  5240.000000   3372629   3398519   3423467   3447669   3471153  
  5230.000000   3494060   3516294   3537860   3558560   3578368  
  5220.000000   3597124   3614901   3631656   3647566   3662650  
  5210.000000   3677091   3690852   3704015   3716431   3728102  
  5200.000000   3738859   3748748   3757692   3765831   3773152  
  5190.000000   3779802   3785740   3791060   3795679   3799669  
  5180.000000   3802963   3805653   3807693   3809166   3810003  
  5170.000000   3810257   3809852   3808858   3807249   3805140  
  5160.000000   3802540   3799560   3796184   3792471   3788373  
  5150.000000   3783934   3779123   3774008   3768580   3762905  
  5140.000000   3756962   3750786   3744349   3737684   3730786  
  5130.000000   3723712   3716474   3709123   3701657   3694105  
  5120.000000   3686458   3678751   3670997   3663246   3655518  
  5110.000000   3647836   3640181   3632534   3624849   3617108  
  5100.000000   3609292   3601424   3593525   3585630   3577756  
  5090.000000   3569916   3562100   3554307   3546522   3538746  
  5080.000000   3530970   3523189   3515381   3507530   3499606  
  5070.000000   3491601   3483511   3475355   3467153   3458934  
  5060.000000   3450711   3442497   3434288   3426088   3417898  
  5050.000000   3409731   3401598   3393508   3385460   3377442  
  5040.000000   3369440   3361436   3353429   3345428   3337463  
  5030.000000   3329561   3321757   3314067   3306507   3299067  
  5020.000000   3291751   3284543   3277455   3270476   3263627  
  5010.000000   3256898   3250312   3243863   3237582   3231472  
  5000.000000   3225580   3219910   3214507   3209357   3204487  
  4990.000000   3199864   3195511   3191400   3187571   3184012  
  4980.000000   3180775   3177847   3175273   3173026   3171144  
  4970.000000   3169597   3168431   3167624   3167229   3167216  
  4960.000000   3167627   3168416   3169612   3171166   3173114  
  4950.000000   3175418   3178123   3181195   3184672   3188506  
  4940.000000   3192723   3197270   3202172   3207385   3212940  
  4930.000000   3218797   3224979   3231440   3238195   3245195  
  4920.000000   3252457   3259946   3267686   3275654   3283875  
  4910.000000   3292328   3301030   3309953   3319099   3328429  
  4900.000000   3337929   3347552   3357276   3367064   3376908  
  4890.000000   3386797   3396739   3406733   3416776   3426848  
  4880.000000   3436913   3446927   3456840   3466617   3476223  
  4870.000000   3485653   3494897   3503973   3512879   3521641  
  4860.000000   3530251   3538730   3547062   3555256   3563284  
  4850.000000   3571149   3578822   3586313   3593606   3600730  
  4840.000000   3607679   3614483   3621126   3627626   3633951  
  4830.000000   3640114   3646090   3651900   3657533   3663011  
  4820.000000   3668315   3673451   3678381   3683103   3687584  
  4810.000000   3691835   3695847   3699652   3703256   3706697  
  4800.000000   3709982   3713147   3716197   3719167   3722057  
  4790.000000   3724892   3727657   3730360   3732972   3735497  
  4780.000000   3737913   3740237   3742459   3744602   3746654  
  4770.000000   3748627   3750492   3752250   3753870   3755358  
  4760.000000   3756687   3757867   3758866   3759683   3760277  
  4750.000000   3760640   3760738   3760583   3760163   3759517  
  4740.000000   3758651   3757607   3756390   3755031   3753522  
  4730.000000   3751885   3750106   3748206   3746169   3744015  
  4720.000000   3741732   3739338   3736826   3734216   3731509  
  4710.000000   3728726   3725869   3722955   3719981   3716961  
  4700.000000   3713889   3710781   3707637   3704475   3701300  
  4690.000000   3698126   3694953   3691787   3688618   3685435  
  4680.000000   3682221   3678957   3675623   3672205   3668699  
  4670.000000   3665111   3661465   3657790   3654133   3650531  
  4660.000000   3647030   3643657   3640440   3637384   3634503  
  4650.000000   3631788   3629243   3626853   3624616   3622512  
  4640.000000   3620537   3618673   3616923   3615276   3613741  
  4630.000000   3612305   3610970   3609711   3608514   3607350  
  4620.000000   3606204   3605057   3603915   3602775   3601648  
  4610.000000   3600530   3599422   3598311   3597194   3596068  
  4600.000000   3594947   3593849   3592804   3591837   3590962  
  4590.000000   3590182   3589484   3588848   3588247   3587656  
  4580.000000   3587049   3586408   3585713   3584951   3584108  
  4570.000000   3583182   3582170   3581081   3579922   3578702  
  4560.000000   3577424   3576091   3574700   3573251   3571744  
  4550.000000   3570186   3568583   3566941   3565267   3563563  
  4540.000000   3561838   3560101   3558376   3556682   3555055  
  4530.000000   3553507   3552069   3550733   3549526   3548437  
  4520.000000   3547508   3546744   3546213   3545923   3545944  
  4510.000000   3546271   3546965   3548007   3549469   3551341  
  4500.000000   3553714   3556582   3560036   3564052   3568703  
  4490.000000   3573950   3579860   3586396   3593633   3601532  
  4480.000000   3610156   3619447   3629436   3640041   3651271  
  4470.000000   3663042   3675356   3688133   3701369   3714982  
  4460.000000   3728951   3743190   3757666   3772297   3787044  
  4450.000000   3801835   3816628   3831365   3846010   3860532  
  4440.000000   3874907   3889136   3903203   3917129   3930889  
  4430.000000   3944511   3957955   3971249   3984330   3997219  
  4420.000000   4009815   4022109   4033957   4045321   4056034  
  4410.000000   4066057   4075232   4083545   4090867   4097209  
  4400.000000   4102475   4106705   4109848   4111993   4113154  
  4390.000000   4113476   4113035   4112007   4110490   4108639  
  4380.000000   4106533   4104286   4101958   4099648   4097437  
  4370.000000   4095438   4093769   4092544   4091876   4091835  
  4360.000000   4092483   4093815   4095826   4098450   4101637  
  4350.000000   4105300   4109381   4113811   4118565   4123616  
  4340.000000   4128972   4134621   4140539   4146635   4152764  
  4330.000000   4158700   4164176   4168920   4172710   4175434  
  4320.000000   4177115   4177926   4178134   4178080   4178053  
  4310.000000   4178303   4178928   4179962   4181301   4182847  
  4300.000000   4184440   4185992   4187398   4188626   4189627  
  4290.000000   4190393   4190900   4191151   4191146   4190915  
  4280.000000   4190486   4189915   4189245   4188542   4187844  
  4270.000000   4187216   4186675   4186251   4185907   4185592  
  4260.000000   4185183   4184554   4183551   4182067   4180039  
  4250.000000   4177492   4174513   4171258   4167890   4164571  
  4240.000000   4161410   4158475   4155768   4153266   4150916  
  4230.000000   4148673   4146489   4144328   4142158   4139942  
  4220.000000   4137655   4135264   4132768   4130168   4127515  
  4210.000000   4124856   4122275   4119835   4117612   4115645  
  4200.000000   4113973   4112593   4111506   4110670   4110067  
  4190.000000   4109632   4109349   4109158   4109073   4109064  
  4180.000000   4109182   4109426   4109879   4110556   4111560  
  4170.000000   4112922   4114759   4117108   4120078   4123673  
  4160.000000   4127956   4132868   4138415   4144495   4151106  
  4150.000000   4158159   4165684   4173627   4182047   4190905  
  4140.000000   4200264   4210082   4220420   4231236   4242586  
  4130.000000   4254426   4266794   4279632   4292959   4306716  
  4120.000000   4320924   4335543   4350615   4366115   4382081  
  4110.000000   4398475   4415304   4432500   4450035   4467827  
  4100.000000   4485840   4504006   4522307   4540712   4559231  
  4090.000000   4577864   4596632   4615547   4634613   4653836  
  4080.000000   4673200   4692705   4712322   4732041   4751804  
  4070.000000   4771575   4791253   4810783   4830053   4849043  
  4060.000000   4867682   4886008   4903981   4921655   4938964  
  4050.000000   4955937   4972468   4988582   5004164   5019249  
  4040.000000   5033713   5047584   5060714   5073123   5084661  
  4030.000000   5095371   5105122   5113961   5121754   5128514  
  4020.000000   5134062   5138429   5141556   5143551   5144381  
  4010.000000   5144269   5143346   5141703   5139113   5135704  
  4000.000000   5131879  
##END= 
