##TITLE= Sample 029 By ssteindl date Donnerstag, November 22 2018
##JCAMP-DX= 4.24
##DATA TYPE= INFRARED SPECTRUM
##ORIGIN= Exported PE Spectrum Data File
##OWNER= Sandra Steindl
##DATE= 18/11/22
##TIME= 11:18:41.00
##SPECTROMETER/DATA SYSTEM= PERKIN-ELMER Frontier FT-IR/NIR IR
##INSTRUMENT PARAMETERS=
  APODIZATION=stark
  DETECTOR=INGAAS
##RESOLUTION= 16.000000
##DELTAX= -2.000000
##XUNITS= 1/CM
##YUNITS= A
##XFACTOR= 1.00
##YFACTOR= 0.00000011920928955078
##FIRSTX= 10000.00
##LASTX= 4000.00
##NPOINTS= 3001
##FIRSTY= 0.217326
##MAXY= 0.612240
##MINY= 0.187345
##XYDATA= (X++(Y..Y))
 10000.000000   1823061   1819589   1816896   1816246   1817986  
  9990.000000   1821451   1825518   1829283   1832362   1834935  
  9980.000000   1837555   1840590   1843814   1846269   1846602  
  9970.000000   1843589   1836767   1826770   1815289   1804564  
  9960.000000   1796651   1792797   1792961   1796016   1800054  
  9950.000000   1803180   1804035   1802216   1798250   1793295  
  9940.000000   1788647   1785269   1783488   1782917   1782752  
  9930.000000   1782035   1780212   1777169   1773403   1769624  
  9920.000000   1766518   1764377   1763027   1761927   1760502  
  9910.000000   1758474   1756099   1754160   1753684   1755593  
  9900.000000   1760264   1767397   1776025   1784833   1792535  
  9890.000000   1798181   1801344   1802044   1800636   1797601  
  9880.000000   1793454   1788712   1783867   1779422   1775754  
  9870.000000   1773107   1771410   1770404   1769620   1768644  
  9860.000000   1767170   1765125   1762621   1759798   1756764  
  9850.000000   1753449   1749748   1745594   1741148   1736837  
  9840.000000   1733277   1731120   1730839   1732602   1736262  
  9830.000000   1741381   1747356   1753437   1758835   1762712  
  9820.000000   1764377   1763381   1759791   1754239   1747936  
  9810.000000   1742382   1738973   1738563   1741153   1745930  
  9800.000000   1751513   1756494   1759823   1761112   1760576  
  9790.000000   1758803   1756466   1754036   1751801   1749854  
  9780.000000   1748299   1747257   1746836   1747054   1747702  
  9770.000000   1748485   1749091   1749504   1750017   1751229  
  9760.000000   1753682   1757531   1762245   1766645   1769263  
  9750.000000   1768902   1765183   1758754   1751131   1744120  
  9740.000000   1739162   1736819   1736632   1737422   1737810  
  9730.000000   1736819   1734164   1730304   1726113   1722521  
  9720.000000   1720166   1719269   1719705   1721107   1723062  
  9710.000000   1725088   1726737   1727521   1727117   1725413  
  9700.000000   1722735   1719754   1717382   1716402   1717174  
  9690.000000   1719466   1722518   1725435   1727506   1728650  
  9680.000000   1729324   1730428   1732760   1736688   1741878  
  9670.000000   1747380   1751949   1754393   1753954   1750386  
  9660.000000   1743997   1735446   1725656   1715638   1706439  
  9650.000000   1699026   1694136   1692121   1692761   1695325  
  9640.000000   1698705   1701844   1704055   1705305   1706149  
  9630.000000   1707430   1709876   1713677   1718431   1723217  
  9620.000000   1727054   1729229   1729615   1728620   1726990  
  9610.000000   1725443   1724412   1723942   1723771   1723524  
  9600.000000   1722884   1721695   1719930   1717670   1715009  
  9590.000000   1712160   1709405   1707238   1706162   1706624  
  9580.000000   1708716   1712098   1716016   1719491   1721677  
  9570.000000   1722050   1720600   1717646   1713693   1709125  
  9560.000000   1704168   1698908   1693535   1688497   1684537  
  9550.000000   1682518   1683029   1686154   1691238   1697166  
  9540.000000   1702618   1706612   1708723   1709184   1708663  
  9530.000000   1707874   1707299   1706926   1706414   1705222  
  9520.000000   1702966   1699516   1695044   1689899   1684463  
  9510.000000   1679110   1674169   1670042   1667155   1665929  
  9500.000000   1666570   1668949   1672475   1676239   1679230  
  9490.000000   1680721   1680530   1679100   1677342   1676202  
  9480.000000   1676315   1677689   1679752   1681540   1682089  
  9470.000000   1680757   1677476   1672753   1667504   1662748  
  9460.000000   1659271   1657443   1657127   1657821   1658828  
  9450.000000   1659501   1659418   1658510   1657037   1655534  
  9440.000000   1654560   1654544   1655560   1657328   1659296  
  9430.000000   1660826   1661456   1660969   1659525   1657459  
  9420.000000   1655198   1652965   1650727   1648175   1644946  
  9410.000000   1640867   1636140   1631414   1627584   1625608  
  9400.000000   1626124   1629335   1634831   1641745   1648901  
  9390.000000   1655103   1659411   1661260   1660602   1657752  
  9380.000000   1653394   1648302   1643269   1638854   1635333  
  9370.000000   1632672   1630631   1628986   1627610   1626643  
  9360.000000   1626336   1627025   1628861   1631718   1635134  
  9350.000000   1638378   1640722   1641602   1640857   1638689  
  9340.000000   1635605   1632214   1629088   1626672   1625262  
  9330.000000   1625036   1626044   1628193   1631164   1634412  
  9320.000000   1637191   1638729   1638480   1636329   1632739  
  9310.000000   1628575   1624874   1622465   1621720   1622469  
  9300.000000   1624086   1625833   1627145   1627945   1628580  
  9290.000000   1629644   1631601   1634526   1638016   1641257  
  9280.000000   1643349   1643556   1641660   1637959   1633201  
  9270.000000   1628295   1624041   1621001   1619395   1619235  
  9260.000000   1620341   1622497   1625420   1628801   1632226  
  9250.000000   1635226   1637318   1638144   1637597   1635837  
  9240.000000   1633305   1630527   1628016   1626088   1624810  
  9230.000000   1624042   1623518   1623035   1622505   1622017  
  9220.000000   1621704   1621699   1622001   1622467   1622828  
  9210.000000   1622769   1622082   1620695   1618761   1616543  
  9200.000000   1614379   1612524   1611112   1610138   1609511  
  9190.000000   1609126   1608928   1608943   1609269   1610015  
  9180.000000   1611219   1612807   1614575   1616244   1617532  
  9170.000000   1618256   1618386   1618047   1617464   1616907  
  9160.000000   1616600   1616646   1616972   1617356   1617509  
  9150.000000   1617160   1616143   1614437   1612178   1609633  
  9140.000000   1607094   1604844   1603045   1601797   1601113  
  9130.000000   1600991   1601414   1602367   1603798   1605555  
  9120.000000   1607363   1608823   1609523   1609130   1607520  
  9110.000000   1604818   1601431   1597937   1594974   1593030  
  9100.000000   1592354   1592891   1594337   1596208   1597936  
  9090.000000   1599037   1599180   1598309   1596602   1594515  
  9080.000000   1592674   1591714   1592100   1593949   1596998  
  9070.000000   1600551   1603660   1605364   1605038   1602538  
  9060.000000   1598269   1593088   1588080   1584237   1582157  
  9050.000000   1581962   1583347   1585760   1588572   1591290  
  9040.000000   1593629   1595508   1596904   1597813   1598197  
  9030.000000   1598002   1597238   1595990   1594508   1593067  
  9020.000000   1591938   1591231   1590889   1590708   1590402  
  9010.000000   1589771   1588746   1587491   1586297   1585547  
  9000.000000   1585533   1586404   1588089   1590315   1592683  
  8990.000000   1594729   1596070   1596415   1595657   1593841  
  8980.000000   1591182   1588012   1584735   1581781   1579521  
  8970.000000   1578243   1578055   1578929   1580648   1582903  
  8960.000000   1585289   1587423   1588984   1589760   1589684  
  8950.000000   1588788   1587223   1585153   1582800   1580334  
  8940.000000   1577943   1575767   1573947   1572596   1571789  
  8930.000000   1571561   1571859   1572602   1573658   1574947  
  8920.000000   1576426   1578118   1580067   1582283   1584705  
  8910.000000   1587141   1589313   1590888   1591619   1591382  
  8900.000000   1590267   1588514   1586482   1584514   1582867  
  8890.000000   1581657   1580854   1580367   1580079   1579949  
  8880.000000   1579986   1580284   1580925   1581975   1583407  
  8870.000000   1585122   1586949   1588673   1590093   1591027  
  8860.000000   1591397   1591176   1590445   1589310   1587938  
  8850.000000   1586473   1585036   1583708   1582543   1581610  
  8840.000000   1580988   1580808   1581207   1582306   1584123  
  8830.000000   1586558   1589358   1592175   1594618   1596346  
  8820.000000   1597169   1597072   1596266   1595061   1593843  
  8810.000000   1592889   1592353   1592169   1592113   1591887  
  8800.000000   1591239   1590105   1588648   1587287   1586565  
  8790.000000   1587011   1588920   1592243   1596544   1601099  
  8780.000000   1605113   1607903   1609137   1608864   1607512  
  8770.000000   1605685   1603992   1602859   1602482   1602828  
  8760.000000   1603735   1605005   1606469   1608025   1609595  
  8750.000000   1611121   1612524   1613744   1614763   1615624  
  8740.000000   1616442   1617320   1618324   1619407   1620450  
  8730.000000   1621301   1621880   1622234   1622556   1623111  
  8720.000000   1624124   1625672   1627630   1629716   1631595  
  8710.000000   1633031   1633966   1634573   1635158   1636070  
  8700.000000   1637538   1639619   1642173   1644924   1647558  
  8690.000000   1649782   1651396   1652276   1652386   1651763  
  8680.000000   1650533   1648920   1647232   1645834   1645058  
  8670.000000   1645151   1646169   1648001   1650361   1652919  
  8660.000000   1655361   1657478   1659178   1660438   1661292  
  8650.000000   1661748   1661828   1661530   1660915   1660099  
  8640.000000   1659280   1658697   1658565   1659053   1660225  
  8630.000000   1662069   1664477   1667288   1670304   1673299  
  8620.000000   1676037   1678276   1679829   1680583   1680583  
  8610.000000   1680005   1679171   1678457   1678224   1678723  
  8600.000000   1680034   1682068   1684580   1687260   1689792  
  8590.000000   1691955   1693646   1694903   1695857   1696678  
  8580.000000   1697513   1698428   1699404   1700346   1701141  
  8570.000000   1701717   1702089   1702374   1702738   1703348  
  8560.000000   1704281   1705495   1706829   1708055   1708974  
  8550.000000   1709469   1709566   1709399   1709178   1709097  
  8540.000000   1709293   1709814   1710653   1711772   1713141  
  8530.000000   1714745   1716563   1718550   1720603   1722594  
  8520.000000   1724382   1725888   1727117   1728169   1729193  
  8510.000000   1730327   1731631   1733055   1734448   1735602  
  8500.000000   1736320   1736469   1736017   1735032   1733665  
  8490.000000   1732111   1730590   1729309   1728442   1728109  
  8480.000000   1728349   1729123   1730302   1731727   1733230  
  8470.000000   1734710   1736141   1737570   1739084   1740733  
  8460.000000   1742516   1744314   1745974   1747299   1748186  
  8450.000000   1748588   1748578   1748293   1747910   1747611  
  8440.000000   1747521   1747773   1748470   1749745   1751684  
  8430.000000   1754330   1757606   1761305   1765067   1768433  
  8420.000000   1770938   1772217   1772119   1770728   1768383  
  8410.000000   1765594   1762955   1760995   1760042   1760189  
  8400.000000   1761263   1762925   1764726   1766286   1767363  
  8390.000000   1767926   1768108   1768138   1768245   1768555  
  8380.000000   1769077   1769688   1770238   1770597   1770750  
  8370.000000   1770782   1770858   1771162   1771810   1772830  
  8360.000000   1774134   1775574   1776974   1778200   1779168  
  8350.000000   1779861   1780300   1780540   1780636   1780653  
  8340.000000   1780644   1780646   1780667   1780682   1780637  
  8330.000000   1780455   1780070   1779448   1778603   1777604  
  8320.000000   1776540   1775510   1774579   1773805   1773228  
  8310.000000   1772905   1772889   1773233   1773943   1774957  
  8300.000000   1776118   1777196   1777945   1778164   1777779  
  8290.000000   1776846   1775544   1774098   1772726   1771572  
  8280.000000   1770690   1770059   1769619   1769322   1769139  
  8270.000000   1769068   1769089   1769167   1769233   1769216  
  8260.000000   1769062   1768768   1768377   1767967   1767614  
  8250.000000   1767360   1767198   1767084   1766962   1766801  
  8240.000000   1766599   1766384   1766175   1765968   1765707  
  8230.000000   1765303   1764661   1763724   1762510   1761116  
  8220.000000   1759699   1758425   1757425   1756760   1756399  
  8210.000000   1756248   1756168   1756031   1755741   1755269  
  8200.000000   1754637   1753915   1753194   1752566   1752097  
  8190.000000   1751812   1751686   1751645   1751578   1751369  
  8180.000000   1750918   1750177   1749150   1747908   1746560  
  8170.000000   1745226   1744005   1742940   1742008   1741128  
  8160.000000   1740189   1739098   1737805   1736343   1734806  
  8150.000000   1733347   1732120   1731243   1730760   1730617  
  8140.000000   1730682   1730759   1730649   1730180   1729251  
  8130.000000   1727858   1726093   1724132   1722208   1720560  
  8120.000000   1719386   1718785   1718717   1719000   1719333  
  8110.000000   1719389   1718899   1717753   1716032   1713998  
  8100.000000   1712004   1710386   1709335   1708839   1708682  
  8090.000000   1708526   1708043   1707026   1705462   1703506  
  8080.000000   1701414   1699421   1697663   1696140   1694754  
  8070.000000   1693379   1691955   1690522   1689226   1688254  
  8060.000000   1687754   1687771   1688212   1688874   1689502  
  8050.000000   1689867   1689824   1689334   1688458   1687321  
  8040.000000   1686070   1684844   1683748   1682841   1682130  
  8030.000000   1681563   1681038   1680414   1679550   1678338  
  8020.000000   1676741   1674815   1672702   1670596   1668695  
  8010.000000   1667155   1666053   1665385   1665082   1665040  
  8000.000000   1665152   1665318   1665461   1665508   1665406  
  7990.000000   1665105   1664591   1663872   1663014   1662102  
  7980.000000   1661244   1660528   1660013   1659708   1659586  
  7970.000000   1659594   1659674   1659778   1659871   1659922  
  7960.000000   1659903   1659780   1659526   1659123   1658584  
  7950.000000   1657951   1657297   1656702   1656236   1655934  
  7940.000000   1655792   1655765   1655788   1655791   1655726  
  7930.000000   1655571   1655331   1655033   1654710   1654397  
  7920.000000   1654126   1653924   1653822   1653842   1653995  
  7910.000000   1654265   1654604   1654938   1655178   1655254  
  7900.000000   1655135   1654853   1654489   1654164   1653984  
  7890.000000   1654021   1654274   1654676   1655108   1655436  
  7880.000000   1655541   1655344   1654816   1653973   1652871  
  7870.000000   1651591   1650237   1648928   1647785   1646911  
  7860.000000   1646363   1646129   1646121   1646195   1646196  
  7850.000000   1646006   1645590   1645003   1644371   1643831  
  7840.000000   1643486   1643356   1643386   1643478   1643541  
  7830.000000   1643542   1643514   1643535   1643681   1643976  
  7820.000000   1644362   1644712   1644877   1644739   1644258  
  7810.000000   1643487   1642545   1641579   1640705   1640000  
  7800.000000   1639474   1639114   1638881   1638746   1638671  
  7790.000000   1638607   1638480   1638195   1637661   1636821  
  7780.000000   1635683   1634318   1632858   1631440   1630176  
  7770.000000   1629126   1628293   1627652   1627171   1626843  
  7760.000000   1626674   1626674   1626817   1627033   1627207  
  7750.000000   1627208   1626934   1626347   1625486   1624450  
  7740.000000   1623359   1622314   1621366   1620512   1619713  
  7730.000000   1618922   1618106   1617252   1616369   1615455  
  7720.000000   1614505   1613495   1612413   1611264   1610094  
  7710.000000   1608974   1607996   1607243   1606768   1606588  
  7700.000000   1606687   1607026   1607557   1608217   1608931  
  7690.000000   1609598   1610109   1610350   1610248   1609787  
  7680.000000   1609034   1608111   1607172   1606341   1605684  
  7670.000000   1605198   1604821   1604486   1604146   1603815  
  7660.000000   1603540   1603386   1603386   1603517   1603699  
  7650.000000   1603822   1603795   1603570   1603173   1602666  
  7640.000000   1602134   1601632   1601174   1600742   1600311  
  7630.000000   1599884   1599510   1599269   1599241   1599456  
  7620.000000   1599873   1600379   1600826   1601081   1601085  
  7610.000000   1600861   1600519   1600201   1600037   1600095  
  7600.000000   1600377   1600823   1601357   1601908   1602437  
  7590.000000   1602930   1603390   1603817   1604208   1604552  
  7580.000000   1604854   1605130   1605421   1605762   1606172  
  7570.000000   1606631   1607087   1607478   1607764   1607958  
  7560.000000   1608133   1608405   1608891   1609658   1610701  
  7550.000000   1611922   1613172   1614285   1615152   1615731  
  7540.000000   1616080   1616304   1616539   1616894   1617432  
  7530.000000   1618163   1619058   1620076   1621189   1622393  
  7520.000000   1623704   1625141   1626708   1628367   1630052  
  7510.000000   1631662   1633108   1634317   1635281   1636040  
  7500.000000   1636702   1637397   1638264   1639397   1640839  
  7490.000000   1642567   1644514   1646588   1648699   1650781  
  7480.000000   1652800   1654742   1656612   1658401   1660101  
  7470.000000   1661689   1663164   1664532   1665837   1667130  
  7460.000000   1668474   1669917   1671486   1673182   1674992  
  7450.000000   1676894   1678879   1680940   1683074   1685267  
  7440.000000   1687494   1689710   1691875   1693953   1695938  
  7430.000000   1697850   1699743   1701675   1703704   1705863  
  7420.000000   1708158   1710560   1713021   1715477   1717866  
  7410.000000   1720137   1722264   1724249   1726128   1727960  
  7400.000000   1729820   1731774   1733866   1736098   1738438  
  7390.000000   1740826   1743198   1745504   1747722   1749863  
  7380.000000   1751959   1754047   1756152   1758283   1760436  
  7370.000000   1762597   1764758   1766917   1769078   1771242  
  7360.000000   1773401   1775545   1777659   1779742   1781806  
  7350.000000   1783878   1785983   1788133   1790307   1792457  
  7340.000000   1794521   1796447   1798215   1799850   1801411  
  7330.000000   1802978   1804611   1806344   1808158   1810006  
  7320.000000   1811820   1813546   1815152   1816640   1818032  
  7310.000000   1819364   1820659   1821936   1823198   1824455  
  7300.000000   1825713   1826996   1828321   1829708   1831149  
  7290.000000   1832619   1834069   1835443   1836686   1837761  
  7280.000000   1838648   1839352   1839894   1840307   1840637  
  7270.000000   1840932   1841243   1841619   1842102   1842717  
  7260.000000   1843468   1844335   1845283   1846264   1847241  
  7250.000000   1848187   1849107   1850021   1850974   1852001  
  7240.000000   1853141   1854406   1855802   1857311   1858931  
  7230.000000   1860644   1862459   1864358   1866339   1868365  
  7220.000000   1870409   1872421   1874389   1876308   1878233  
  7210.000000   1880232   1882410   1884846   1887604   1890680  
  7200.000000   1894034   1897570   1901196   1904815   1908386  
  7190.000000   1911885   1915353   1918829   1922383   1926043  
  7180.000000   1929844   1933765   1937793   1941884   1946027  
  7170.000000   1950202   1954436   1958754   1963208   1967821  
  7160.000000   1972615   1977555   1982605   1987690   1992770  
  7150.000000   1997809   2002840   2007917   2013145   2018604  
  7140.000000   2024365   2030416   2036712   2043150   2049641  
  7130.000000   2056104   2062532   2068944   2075417   2082010  
  7120.000000   2088787   2095741   2102847   2110019   2117188  
  7110.000000   2124272   2131248   2138116   2144938   2151784  
  7100.000000   2158762   2165946   2173403   2181128   2189087  
  7090.000000   2197184   2205324   2213410   2221402   2229300  
  7080.000000   2237169   2245086   2253136   2261354   2269741  
  7070.000000   2278233   2286765   2295256   2303669   2311981  
  7060.000000   2320206   2328354   2336440   2344475   2352481  
  7050.000000   2360506   2368617   2376896   2385404   2394153  
  7040.000000   2403083   2412077   2420979   2429647   2437983  
  7030.000000   2445967   2453642   2461102   2468445   2475755  
  7020.000000   2483072   2490416   2497765   2505106   2512403  
  7010.000000   2519635   2526757   2533745   2540558   2547198  
  7000.000000   2553662   2559990   2566201   2572319   2578317  
  6990.000000   2584161   2589787   2595162   2600269   2605155  
  6980.000000   2609878   2614531   2619165   2623830   2628518  
  6970.000000   2633225   2637917   2642589   2647212   2651772  
  6960.000000   2656222   2660522   2664610   2668460   2672060  
  6950.000000   2675452   2678689   2681843   2684960   2688077  
  6940.000000   2691191   2694306   2697402   2700485   2703536  
  6930.000000   2706543   2709450   2712205   2714741   2717032  
  6920.000000   2719080   2720950   2722727   2724514   2726372  
  6910.000000   2728327   2730344   2732365   2734310   2736126  
  6900.000000   2737773   2739257   2740600   2741852   2743068  
  6890.000000   2744306   2745609   2746998   2748451   2749917  
  6880.000000   2751318   2752582   2753668   2754596   2755437  
  6870.000000   2756301   2757288   2758456   2759790   2761216  
  6860.000000   2762628   2763942   2765116   2766176   2767181  
  6850.000000   2768202   2769271   2770373   2771447   2772425  
  6840.000000   2773256   2773939   2774511   2775040   2775582  
  6830.000000   2776177   2776823   2777508   2778207   2778916  
  6820.000000   2779632   2780365   2781105   2781834   2782509  
  6810.000000   2783095   2783562   2783908   2784143   2784291  
  6800.000000   2784365   2784372   2784309   2784188   2784029  
  6790.000000   2783873   2783756   2783702   2783693   2783686  
  6780.000000   2783608   2783402   2783031   2782509   2781877  
  6770.000000   2781201   2780535   2779918   2779361   2778868  
  6760.000000   2778426   2778031   2777667   2777312   2776922  
  6750.000000   2776457   2775875   2775170   2774363   2773508  
  6740.000000   2772656   2771838   2771044   2770230   2769337  
  6730.000000   2768335   2767231   2766091   2764993   2764013  
  6720.000000   2763165   2762410   2761654   2760798   2759770  
  6710.000000   2758561   2757208   2755786   2754355   2752953  
  6700.000000   2751578   2750211   2748836   2747460   2746108  
  6690.000000   2744814   2743587   2742408   2741221   2739965  
  6680.000000   2738591   2737093   2735497   2733860   2732228  
  6670.000000   2730630   2729053   2727474   2725859   2724199  
  6660.000000   2722506   2720810   2719138   2717500   2715876  
  6650.000000   2714233   2712527   2710732   2708837   2706855  
  6640.000000   2704804   2702715   2700613   2698534   2696514  
  6630.000000   2694595   2692806   2691151   2689596   2688072  
  6620.000000   2686490   2684768   2682862   2680776   2678562  
  6610.000000   2676299   2674066   2671912   2669853   2667874  
  6600.000000   2665944   2664042   2662156   2660289   2658450  
  6590.000000   2656641   2654856   2653087   2651324   2649564  
  6580.000000   2647810   2646064   2644327   2642586   2640832  
  6570.000000   2639057   2637270   2635492   2633756   2632086  
  6560.000000   2630493   2628965   2627474   2625989   2624490  
  6550.000000   2622974   2621457   2619956   2618484   2617037  
  6540.000000   2615604   2614173   2612742   2611323   2609938  
  6530.000000   2608605   2607327   2606087   2604859   2603618  
  6520.000000   2602357   2601089   2599846   2598653   2597525  
  6510.000000   2596447   2595387   2594309   2593191   2592039  
  6500.000000   2590889   2589786   2588774   2587873   2587076  
  6490.000000   2586356   2585676   2585002   2584309   2583576  
  6480.000000   2582791   2581937   2581002   2579982   2578893  
  6470.000000   2577766   2576649   2575590   2574626   2573771  
  6460.000000   2573018   2572345   2571718   2571108   2570486  
  6450.000000   2569827   2569109   2568311   2567427   2566461  
  6440.000000   2565441   2564401   2563379   2562394   2561447  
  6430.000000   2560518   2559582   2558633   2557689   2556794  
  6420.000000   2556001   2555350   2554842   2554433   2554051  
  6410.000000   2553619   2553084   2552435   2551707   2550955  
  6400.000000   2550237   2549586   2549002   2548462   2547931  
  6390.000000   2547384   2546810   2546212   2545601   2544983  
  6380.000000   2544354   2543708   2543037   2542339   2541621  
  6370.000000   2540888   2540141   2539373   2538569   2537722  
  6360.000000   2536834   2535929   2535045   2534224   2533493  
  6350.000000   2532863   2532319   2531832   2531369   2530905  
  6340.000000   2530420   2529903   2529341   2528718   2528015  
  6330.000000   2527222   2526342   2525401   2524437   2523500  
  6320.000000   2522624   2521831   2521109   2520431   2519747  
  6310.000000   2519012   2518176   2517207   2516076   2514779  
  6300.000000   2513317   2511724   2510037   2508314   2506597  
  6290.000000   2504925   2503297   2501697   2500084   2498423  
  6280.000000   2496677   2494842   2492913   2490912   2488850  
  6270.000000   2486746   2484607   2482446   2480273   2478100  
  6260.000000   2475927   2473744   2471522   2469227   2466828  
  6250.000000   2464317   2461712   2459061   2456422   2453852  
  6240.000000   2451379   2449010   2446725   2444499   2442305  
  6230.000000   2440135   2437979   2435831   2433669   2431463  
  6220.000000   2429175   2426779   2424270   2421669   2419019  
  6210.000000   2416366   2413746   2411176   2408651   2406160  
  6200.000000   2403693   2401253   2398850   2396498   2394198  
  6190.000000   2391937   2389682   2387397   2385051   2382631  
  6180.000000   2380143   2377607   2375053   2372505   2369985  
  6170.000000   2367509   2365092   2362747   2360490   2358328  
  6160.000000   2356260   2354271   2352336   2350428   2348523  
  6150.000000   2346602   2344661   2342698   2340722   2338743  
  6140.000000   2336780   2334852   2332984   2331189   2329474  
  6130.000000   2327822   2326205   2324583   2322929   2321230  
  6120.000000   2319504   2317781   2316102   2314494   2312966  
  6110.000000   2311500   2310070   2308647   2307227   2305815  
  6100.000000   2304438   2303118   2301870   2300688   2299561  
  6090.000000   2298470   2297412   2296395   2295445   2294578  
  6080.000000   2293812   2293136   2292536   2291984   2291465  
  6070.000000   2290968   2290502   2290069   2289679   2289320  
  6060.000000   2288986   2288661   2288349   2288062   2287834  
  6050.000000   2287693   2287671   2287771   2287985   2288282  
  6040.000000   2288635   2289011   2289400   2289799   2290225  
  6030.000000   2290692   2291221   2291821   2292502   2293257  
  6020.000000   2294077   2294939   2295822   2296702   2297568  
  6010.000000   2298411   2299243   2300073   2300919   2301785  
  6000.000000   2302670   2303559   2304446   2305319   2306185  
  5990.000000   2307053   2307945   2308872   2309848   2310877  
  5980.000000   2311969   2313130   2314378   2315723   2317179  
  5970.000000   2318731   2320364   2322040   2323733   2325421  
  5960.000000   2327113   2328822   2330580   2332400   2334290  
  5950.000000   2336228   2338194   2340162   2342126   2344091  
  5940.000000   2346078   2348106   2350186   2352316   2354481  
  5930.000000   2356667   2358862   2361066   2363284   2365517  
  5920.000000   2367760   2369994   2372194   2374335   2376399  
  5910.000000   2378379   2380278   2382099   2383848   2385526  
  5900.000000   2387143   2388720   2390291   2391904   2393603  
  5890.000000   2395416   2397345   2399366   2401438   2403523  
  5880.000000   2405600   2407669   2409744   2411836   2413943  
  5870.000000   2416032   2418061   2419976   2421754   2423400  
  5860.000000   2424960   2426498   2428086   2429776   2431597  
  5850.000000   2433548   2435614   2437773   2440011   2442314  
  5840.000000   2444680   2447104   2449582   2452112   2454690  
  5830.000000   2457314   2459979   2462676   2465378   2468051  
  5820.000000   2470655   2473155   2475526   2477766   2479880  
  5810.000000   2481883   2483774   2485556   2487207   2488728  
  5800.000000   2490109   2491387   2492581   2493741   2494875  
  5790.000000   2495993   2497053   2498021   2498832   2499452  
  5780.000000   2499836   2499969   2499832   2499428   2498761  
  5770.000000   2497864   2496783   2495596   2494382   2493225  
  5760.000000   2492180   2491282   2490528   2489905   2489386  
  5750.000000   2488956   2488603   2488324   2488110   2487944  
  5740.000000   2487810   2487682   2487556   2487425   2487309  
  5730.000000   2487213   2487153   2487121   2487113   2487117  
  5720.000000   2487142   2487203   2487336   2487570   2487929  
  5710.000000   2488405   2488982   2489621   2490293   2490972  
  5700.000000   2491657   2492353   2493071   2493818   2494597  
  5690.000000   2495406   2496243   2497114   2498019   2498958  
  5680.000000   2499911   2500849   2501725   2502503   2503148  
  5670.000000   2503654   2504023   2504276   2504417   2504452  
  5660.000000   2504364   2504146   2503793   2503328   2502780  
  5650.000000   2502201   2501622   2501072   2500550   2500048  
  5640.000000   2499551   2499053   2498555   2498068   2497597  
  5630.000000   2497143   2496695   2496242   2495774   2495291  
  5620.000000   2494800   2494313   2493835   2493362   2492879  
  5610.000000   2492373   2491832   2491259   2490664   2490059  
  5600.000000   2489448   2488826   2488173   2487473   2486714  
  5590.000000   2485905   2485064   2484218   2483381   2482557  
  5580.000000   2481725   2480865   2479950   2478974   2477940  
  5570.000000   2476866   2475766   2474654   2473526   2472381  
  5560.000000   2471211   2470018   2468808   2467590   2466365  
  5550.000000   2465133   2463882   2462605   2461302   2459983  
  5540.000000   2458667   2457371   2456105   2454864   2453637  
  5530.000000   2452411   2451187   2449977   2448805   2447695  
  5520.000000   2446658   2445683   2444744   2443803   2442828  
  5510.000000   2441802   2440725   2439608   2438465   2437306  
  5500.000000   2436134   2434951   2433760   2432573   2431397  
  5490.000000   2430241   2429091   2427924   2426701   2425392  
  5480.000000   2423978   2422468   2420884   2419266   2417639  
  5470.000000   2416016   2414385   2412727   2411017   2409241  
  5460.000000   2407393   2405480   2403501   2401462   2399361  
  5450.000000   2397208   2395021   2392836   2390688   2388612  
  5440.000000   2386615   2384688   2382802   2380928   2379053  
  5430.000000   2377178   2375323   2373497   2371709   2369940  
  5420.000000   2368179   2366411   2364660   2362968   2361410  
  5410.000000   2360038   2358891   2357949   2357175   2356503  
  5400.000000   2355901   2355344   2354864   2354486   2354263  
  5390.000000   2354204   2354325   2354601   2355031   2355597  
  5380.000000   2356321   2357197   2358246   2359437   2360768  
  5370.000000   2362192   2363719   2365331   2367079   2368967  
  5360.000000   2371060   2373348   2375881   2378639   2381681  
  5350.000000   2385008   2388704   2392773   2397288   2402211  
  5340.000000   2407579   2413327   2419501   2426055   2433057  
  5330.000000   2440468   2448348   2456631   2465361   2474478  
  5320.000000   2484070   2494128   2504799   2516097   2528162  
  5310.000000   2540955   2554551   2568849   2583893   2599593  
  5300.000000   2616032   2633173   2651154   2669974   2689775  
  5290.000000   2710530   2732314   2755015   2778605   2802909  
  5280.000000   2827877   2853393   2879509   2906238   2933718  
  5270.000000   2961983   2991062   3020815   3051046   3081483  
  5260.000000   3111891   3142122   3172134   3201986   3231723  
  5250.000000   3261383   3290851   3319984   3348501   3376243  
  5240.000000   3403013   3428854   3453759   3477923   3501380  
  5230.000000   3524275   3546519   3568113   3588854   3608703  
  5220.000000   3627500   3645321   3662143   3678170   3693448  
  5210.000000   3708176   3722321   3735949   3748890   3761119  
  5200.000000   3772452   3782933   3792492   3801272   3809263  
  5190.000000   3816599   3823218   3829185   3834399   3838918  
  5180.000000   3842680   3845794   3848232   3850098   3851337  
  5170.000000   3852009   3852042   3851507   3850376   3848762  
  5160.000000   3846664   3844180   3841271   3837977   3834232  
  5150.000000   3830072   3825471   3820510   3815200   3809625  
  5140.000000   3803775   3797694   3791348   3784776   3777971  
  5130.000000   3770999   3763881   3756684   3749409   3742086  
  5120.000000   3734693   3727246   3719734   3712186   3704605  
  5110.000000   3697015   3689402   3681767   3674085   3666356  
  5100.000000   3658575   3650764   3642936   3635110   3627284  
  5090.000000   3619459   3611619   3603770   3595913   3588072  
  5080.000000   3580257   3572484   3564742   3557016   3549273  
  5070.000000   3541495   3533662   3525782   3517860   3509913  
  5060.000000   3501945   3493961   3485953   3477926   3469879  
  5050.000000   3461830   3453791   3445776   3437785   3429809  
  5040.000000   3421830   3413830   3405800   3397746   3389689  
  5030.000000   3381656   3373686   3365802   3358034   3350388  
  5020.000000   3342878   3335496   3328250   3321126   3314133  
  5010.000000   3307257   3300520   3293916   3287478   3281209  
  5000.000000   3275145   3269279   3263641   3258210   3253016  
  4990.000000   3248044   3243340   3238908   3234807   3231034  
  4980.000000   3227633   3224569   3221857   3219443   3217342  
  4970.000000   3215515   3214007   3212802   3211964   3211478  
  4960.000000   3211398   3211692   3212401   3213481   3214967  
  4950.000000   3216814   3219049   3221620   3224549   3227784  
  4940.000000   3231357   3235236   3239468   3244033   3248977  
  4930.000000   3254263   3259906   3265846   3272083   3278557  
  4920.000000   3285282   3292222   3299406   3306812   3314466  
  4910.000000   3322344   3330465   3338801   3347367   3356138  
  4900.000000   3365116   3374266   3383574   3392999   3402520  
  4890.000000   3412102   3421733   3431389   3441056   3450713  
  4880.000000   3460335   3469902   3479390   3488791   3498091  
  4870.000000   3507293   3516379   3525349   3534172   3542841  
  4860.000000   3551328   3559635   3567744   3575670   3583396  
  4850.000000   3590935   3598266   3605405   3612340   3619105  
  4840.000000   3625707   3632188   3638550   3644819   3650969  
  4830.000000   3657003   3662881   3668603   3674137   3679492  
  4820.000000   3684647   3689617   3694381   3698959   3703338  
  4810.000000   3707547   3711586   3715486   3719247   3722888  
  4800.000000   3726396   3729780   3733026   3736152   3739155  
  4790.000000   3742068   3744894   3747665   3750375   3753043  
  4780.000000   3755654   3758218   3760711   3763137   3765461  
  4770.000000   3767674   3769732   3771621   3773301   3774777  
  4760.000000   3776032   3777095   3777963   3778673   3779215  
  4750.000000   3779606   3779816   3779843   3779647   3779225  
  4740.000000   3778549   3777637   3776484   3775127   3773575  
  4730.000000   3771869   3770012   3768030   3765915   3763686  
  4720.000000   3761334   3758885   3756340   3753728   3751053  
  4710.000000   3748333   3745561   3742747   3739883   3736984  
  4700.000000   3734056   3731129   3728214   3725330   3722472  
  4690.000000   3719630   3716775   3713882   3710927   3707899  
  4680.000000   3704797   3701631   3698416   3695162   3691880  
  4670.000000   3688571   3685242   3681900   3678567   3675265  
  4660.000000   3672028   3668882   3665855   3662955   3660198  
  4650.000000   3657580   3655110   3652789   3650630   3648635  
  4640.000000   3646813   3645154   3643653   3642283   3641029  
  4630.000000   3639861   3638768   3637725   3636725   3635748  
  4620.000000   3634787   3633822   3632847   3631847   3630822  
  4610.000000   3629769   3628700   3627625   3626566   3625537  
  4600.000000   3624558   3623641   3622789   3622003   3621272  
  4590.000000   3620591   3619949   3619346   3618779   3618250  
  4580.000000   3617752   3617273   3616785   3616258   3615653  
  4570.000000   3614941   3614096   3613116   3612003   3610776  
  4560.000000   3609453   3608056   3606598   3605098   3603564  
  4550.000000   3602011   3600446   3598879   3597311   3595740  
  4540.000000   3594161   3592567   3590957   3589330   3587700  
  4530.000000   3586072   3584474   3582909   3581416   3579997  
  4520.000000   3578706   3577551   3576601   3575868   3575423  
  4510.000000   3575271   3575485   3576059   3577071   3578514  
  4500.000000   3580472   3582929   3585966   3589555   3593768  
  4490.000000   3598572   3604045   3610158   3616991   3624507  
  4480.000000   3632764   3641695   3651322   3661553   3672387  
  4470.000000   3683731   3695578   3707843   3720515   3733512  
  4460.000000   3746818   3760353   3774099   3787991   3802008  
  4450.000000   3816097   3830229   3844356   3858439   3872439  
  4440.000000   3886318   3900059   3913632   3927044   3940268  
  4430.000000   3953332   3966200   3978900   3991372   4003630  
  4420.000000   4015578   4027214   4038417   4049176   4059364  
  4410.000000   4068972   4077868   4086037   4093341   4099761  
  4400.000000   4105172   4109585   4112932   4115290   4116673  
  4390.000000   4117219   4117002   4116187   4114865   4113190  
  4380.000000   4111251   4109182   4107071   4105037   4103168  
  4370.000000   4101565   4100313   4099484   4099148   4099341  
  4360.000000   4100108   4101446   4103366   4105826   4108803  
  4350.000000   4112233   4116079   4120291   4124858   4129768  
  4340.000000   4135032   4140633   4146532   4152612   4158699  
  4330.000000   4164543   4169868   4174405   4177959   4180448  
  4320.000000   4181926   4182592   4182716   4182630   4182602  
  4310.000000   4182859   4183474   4184467   4185723   4187142  
  4300.000000   4188562   4189888   4191014   4191899   4192501  
  4290.000000   4192817   4192848   4192624   4192177   4191565  
  4280.000000   4190840   4190066   4189284   4188547   4187873  
  4270.000000   4187303   4186833   4186477   4186191   4185926  
  4260.000000   4185568   4185002   4184089   4182725   4180847  
  4250.000000   4178465   4175649   4172528   4169249   4165966  
  4240.000000   4162794   4159821   4157076   4154567   4152262  
  4230.000000   4150125   4148099   4146130   4144157   4142118  
  4220.000000   4139970   4137676   4135246   4132697   4130095  
  4210.000000   4127495   4124984   4122611   4120438   4118488  
  4200.000000   4116794   4115354   4114186   4113266   4112591  
  4190.000000   4112109   4111802   4111602   4111508   4111476  
  4180.000000   4111552   4111733   4112112   4112711   4113642  
  4170.000000   4114936   4116710   4118997   4121904   4125444  
  4160.000000   4129688   4134590   4140167   4146320   4153033  
  4150.000000   4160200   4167827   4175834   4184263   4193067  
  4140.000000   4202312   4211970   4222121   4232743   4243915  
  4130.000000   4255608   4267872   4280648   4293946   4307683  
  4120.000000   4321854   4336387   4351298   4366551   4382187  
  4110.000000   4398188   4414588   4431351   4448471   4465878  
  4100.000000   4483534   4501360   4519327   4537391   4555556  
  4090.000000   4573824   4592221   4610767   4629472   4648345  
  4080.000000   4667372   4686551   4705851   4725263   4744729  
  4070.000000   4764218   4783637   4802938   4822021   4840866  
  4060.000000   4859399   4877644   4895540   4913116   4930290  
  4050.000000   4947085   4963411   4979315   4994717   5009680  
  4040.000000   5024094   5037979   5051166   5063643   5075234  
  4030.000000   5085968   5095718   5104552   5112362   5119181  
  4020.000000   5124842   5129370   5132684   5134864   5135845  
  4010.000000   5135826   5134925   5133229   5130519   5126943  
  4000.000000   5122935  
##END= 
