##TITLE= Sample 024 By ssteindl date Donnerstag, November 22 2018
##JCAMP-DX= 4.24
##DATA TYPE= INFRARED SPECTRUM
##ORIGIN= Exported PE Spectrum Data File
##OWNER= Sandra Steindl
##DATE= 18/11/22
##TIME= 10:50:34.00
##SPECTROMETER/DATA SYSTEM= PERKIN-ELMER Frontier FT-IR/NIR IR
##INSTRUMENT PARAMETERS=
  APODIZATION=stark
  DETECTOR=INGAAS
##RESOLUTION= 16.000000
##DELTAX= -2.000000
##XUNITS= 1/CM
##YUNITS= A
##XFACTOR= 1.00
##YFACTOR= 0.00000011920928955078
##FIRSTX= 10000.00
##LASTX= 4000.00
##NPOINTS= 3001
##FIRSTY= 0.295539
##MAXY= 0.644216
##MINY= 0.225863
##XYDATA= (X++(Y..Y))
 10000.000000   2479159   2478585   2478176   2478275   2479163  
  9990.000000   2480761   2482595   2483758   2483223   2480116  
  9980.000000   2474121   2465661   2455884   2446445   2439028  
  9970.000000   2434983   2434880   2438454   2444636   2451926  
  9960.000000   2458822   2464153   2467323   2468205   2467033  
  9950.000000   2464138   2459890   2454655   2448939   2443389  
  9940.000000   2438822   2436031   2435585   2437614   2441647  
  9930.000000   2446737   2451585   2454996   2456126   2454771  
  9920.000000   2451371   2446822   2442250   2438616   2436565  
  9910.000000   2436204   2437183   2438769   2440093   2440409  
  9900.000000   2439298   2436866   2433659   2430592   2428611  
  9890.000000   2428438   2430306   2433833   2438171   2442202  
  9880.000000   2444953   2445814   2444687   2441930   2438144  
  9870.000000   2434021   2430143   2426978   2424859   2424046  
  9860.000000   2424664   2426649   2429592   2432764   2435194  
  9850.000000   2435974   2434552   2430953   2425804   2420071  
  9840.000000   2414778   2410557   2407603   2405587   2404039  
  9830.000000   2402531   2400943   2399463   2398393   2398027  
  9820.000000   2398413   2399501   2401192   2403606   2407078  
  9810.000000   2412035   2418682   2426638   2434859   2441727  
  9800.000000   2445658   2445548   2441334   2433942   2425038  
  9790.000000   2416406   2409384   2404574   2401822   2400631  
  9780.000000   2400496   2401290   2403159   2406379   2410864  
  9770.000000   2416056   2420868   2424109   2424931   2423211  
  9760.000000   2419668   2415546   2412149   2410305   2410062  
  9750.000000   2410770   2411365   2410909   2408930   2405581  
  9740.000000   2401459   2397261   2393430   2389984   2386554  
  9730.000000   2382628   2377843   2372207   2366156   2360445  
  9720.000000   2355892   2353157   2352515   2353830   2356582  
  9710.000000   2359988   2363236   2365561   2366502   2365844  
  9700.000000   2363731   2360504   2356661   2352699   2349074  
  9690.000000   2346158   2344275   2343725   2344738   2347402  
  9680.000000   2351497   2356457   2361378   2365235   2367159  
  9670.000000   2366700   2363994   2359692   2354775   2350226  
  9660.000000   2346767   2344684   2343891   2344049   2344814  
  9650.000000   2345941   2347283   2348700   2349884   2350405  
  9640.000000   2349769   2347749   2344557   2340961   2338080  
  9630.000000   2337030   2338468   2342299   2347627   2353024  
  9620.000000   2356973   2358336   2356700   2352391   2346351  
  9610.000000   2339712   2333507   2328375   2324543   2321897  
  9600.000000   2320151   2319046   2318381   2318138   2318334  
  9590.000000   2319112   2320566   2322788   2325744   2329215  
  9580.000000   2332815   2335915   2337883   2338094   2336237  
  9570.000000   2332342   2326834   2320467   2314072   2308498  
  9560.000000   2304329   2302002   2301643   2303237   2306477  
  9550.000000   2310830   2315436   2319204   2320980   2319781  
  9540.000000   2315141   2307190   2296793   2285236   2274026  
  9530.000000   2264433   2257293   2252843   2250818   2250658  
  9520.000000   2251724   2253516   2255699   2258103   2260603  
  9510.000000   2263069   2265355   2267298   2268850   2270010  
  9500.000000   2270967   2271901   2273054   2274504   2276217  
  9490.000000   2277954   2279388   2280179   2280100   2279140  
  9480.000000   2277492   2275578   2273866   2272860   2272856  
  9470.000000   2273983   2276090   2278878   2281947   2284898  
  9460.000000   2287375   2289049   2289623   2288814   2286428  
  9450.000000   2282428   2277028   2270757   2264401   2258911  
  9440.000000   2255116   2253565   2254281   2256821   2260342  
  9430.000000   2263881   2266592   2267896   2267589   2265723  
  9420.000000   2262563   2258397   2253556   2248368   2243297  
  9410.000000   2238896   2235813   2234578   2235449   2238272  
  9400.000000   2242455   2247115   2251251   2254045   2255058  
  9390.000000   2254374   2252572   2250525   2249139   2249075  
  9380.000000   2250544   2253289   2256628   2259706   2261721  
  9370.000000   2262202   2261110   2258787   2255786   2252609  
  9360.000000   2249556   2246582   2243400   2239601   2234944  
  9350.000000   2229548   2223951   2219032   2215679   2214600  
  9340.000000   2216004   2219643   2224809   2230597   2236110  
  9330.000000   2240644   2243816   2245475   2245708   2244650  
  9320.000000   2242533   2239566   2236011   2232129   2228215  
  9310.000000   2224580   2221487   2219184   2217774   2217313  
  9300.000000   2217692   2218740   2220151   2221543   2222505  
  9290.000000   2222664   2221808   2219901   2217118   2213763  
  9280.000000   2210231   2206928   2204225   2202404   2201650  
  9270.000000   2202031   2203469   2205711   2208275   2210523  
  9260.000000   2211788   2211598   2209850   2206852   2203286  
  9250.000000   2199978   2197690   2196796   2197193   2198327  
  9240.000000   2199459   2199931   2199373   2197808   2195581  
  9230.000000   2193247   2191347   2190277   2190176   2190977  
  9220.000000   2192463   2194352   2196320   2198051   2199262  
  9210.000000   2199770   2199509   2198569   2197158   2195525  
  9200.000000   2193877   2192259   2190574   2188608   2186200  
  9190.000000   2183325   2180143   2176977   2174177   2172034  
  9180.000000   2170645   2169967   2169852   2170189   2170935  
  9170.000000   2172110   2173687   2175514   2177265   2178495  
  9160.000000   2178788   2177923   2176006   2173402   2170636  
  9150.000000   2168149   2166200   2164753   2163562   2162314  
  9140.000000   2160791   2158982   2157022   2155161   2153606  
  9130.000000   2152500   2151872   2151707   2151985   2152682  
  9120.000000   2153747   2154989   2156087   2156609   2156190  
  9110.000000   2154635   2152065   2148891   2145749   2143242  
  9100.000000   2141764   2141370   2141830   2142736   2143684  
  9090.000000   2144418   2144888   2145203   2145502   2145886  
  9080.000000   2146362   2146885   2147396   2147881   2148393  
  9070.000000   2148997   2149735   2150559   2151346   2151934  
  9060.000000   2152143   2151863   2151027   2149673   2147898  
  9050.000000   2145894   2143905   2142231   2141120   2140733  
  9040.000000   2140992   2141598   2142025   2141721   2140295  
  9030.000000   2137698   2134270   2130625   2127433   2125127  
  9020.000000   2123761   2122961   2122158   2120793   2118622  
  9010.000000   2115781   2112762   2110171   2108501   2107950  
  9000.000000   2108413   2109584   2111141   2112888   2114799  
  8990.000000   2116948   2119381   2122026   2124686   2127105  
  8980.000000   2129071   2130486   2131377   2131800   2131770  
  8970.000000   2131201   2129973   2128005   2125378   2122379  
  8960.000000   2119445   2117017   2115335   2114371   2113824  
  8950.000000   2113324   2112589   2111627   2110712   2110305  
  8940.000000   2110797   2112325   2114652   2117255   2119515  
  8930.000000   2120919   2121249   2120567   2119194   2117478  
  8920.000000   2115710   2113996   2112326   2110624   2108835  
  8910.000000   2106994   2105214   2103680   2102561   2102032  
  8900.000000   2102202   2103154   2104858   2107167   2109786  
  8890.000000   2112271   2114154   2115002   2114635   2113112  
  8880.000000   2110795   2108144   2105607   2103467   2101812  
  8870.000000   2100603   2099757   2099331   2099510   2100600  
  8860.000000   2102800   2106106   2110195   2114484   2118270  
  8850.000000   2120904   2122008   2121506   2119646   2116831  
  8840.000000   2113529   2110147   2107022   2104424   2102563  
  8830.000000   2101619   2101650   2102593   2104161   2105962  
  8820.000000   2107543   2108572   2108920   2108678   2108120  
  8810.000000   2107522   2107075   2106753   2106384   2105724  
  8800.000000   2104615   2103095   2101407   2099970   2099189  
  8790.000000   2099370   2100553   2102537   2104904   2107143  
  8780.000000   2108788   2109478   2109053   2107515   2105046  
  8770.000000   2101919   2098482   2095084   2092065   2089712  
  8760.000000   2088234   2087735   2088179   2089429   2091231  
  8750.000000   2093309   2095367   2097177   2098608   2099627  
  8740.000000   2100323   2100791   2101141   2101360   2101372  
  8730.000000   2101004   2100123   2098693   2096871   2095012  
  8720.000000   2093572   2093008   2093576   2095298   2097889  
  8710.000000   2100896   2103797   2106199   2107908   2108954  
  8700.000000   2109508   2109759   2109826   2109696   2109285  
  8690.000000   2108477   2107244   2105652   2103867   2102094  
  8680.000000   2100491   2099156   2098093   2097292   2096755  
  8670.000000   2096539   2096733   2097389   2098472   2099808  
  8660.000000   2101140   2102173   2102715   2102723   2102367  
  8650.000000   2101948   2101827   2102278   2103432   2105220  
  8640.000000   2107438   2109800   2112026   2113908   2115329  
  8630.000000   2116292   2116892   2117303   2117732   2118379  
  8620.000000   2119390   2120798   2122486   2124193   2125557  
  8610.000000   2126245   2126047   2125002   2123393   2121699  
  8600.000000   2120436   2119995   2120495   2121740   2123283  
  8590.000000   2124568   2125135   2124758   2123529   2121807  
  8580.000000   2120085   2118846   2118403   2118850   2120043  
  8570.000000   2121715   2123580   2125427   2127149   2128732  
  8560.000000   2130196   2131534   2132660   2133420   2133636  
  8550.000000   2133170   2132000   2130245   2128178   2126149  
  8540.000000   2124504   2123486   2123162   2123413   2123968  
  8530.000000   2124490   2124697   2124439   2123754   2122838  
  8520.000000   2121979   2121461   2121481   2122096   2123249  
  8510.000000   2124797   2126604   2128551   2130572   2132607  
  8500.000000   2134575   2136355   2137799   2138780   2139255  
  8490.000000   2139296   2139092   2138891   2138919   2139297  
  8480.000000   2139996   2140855   2141649   2142173   2142305  
  8470.000000   2142029   2141423   2140613   2139719   2138842  
  8460.000000   2138063   2137486   2137233   2137449   2138218  
  8450.000000   2139553   2141329   2143319   2145221   2146760  
  8440.000000   2147761   2148172   2148052   2147481   2146531  
  8430.000000   2145201   2143467   2141305   2138781   2136084  
  8420.000000   2133505   2131374   2129931   2129291   2129393  
  8410.000000   2130069   2131094   2132282   2133537   2134822  
  8400.000000   2136123   2137360   2138385   2138994   2139023  
  8390.000000   2138419   2137320   2136034   2134980   2134536  
  8380.000000   2134909   2136065   2137721   2139442   2140739  
  8370.000000   2141252   2140830   2139595   2137866   2136077  
  8360.000000   2134637   2133834   2133738   2134204   2134911  
  8350.000000   2135466   2135522   2134867   2133468   2131472  
  8340.000000   2129147   2126796   2124659   2122865   2121428  
  8330.000000   2120290   2119385   2118677   2118187   2117970  
  8320.000000   2118071   2118474   2119073   2119689   2120125  
  8310.000000   2120230   2119961   2119384   2118667   2118012  
  8300.000000   2117604   2117552   2117860   2118428   2119082  
  8290.000000   2119624   2119869   2119695   2119051   2117994  
  8280.000000   2116656   2115243   2113950   2112937   2112257  
  8270.000000   2111868   2111633   2111381   2110948   2110244  
  8260.000000   2109250   2108026   2106651   2105198   2103705  
  8250.000000   2102190   2100673   2099193   2097819   2096619  
  8240.000000   2095630   2094835   2094148   2093453   2092654  
  8230.000000   2091730   2090760   2089894   2089286   2089019  
  8220.000000   2089051   2089228   2089320   2089127   2088547  
  8210.000000   2087629   2086547   2085520   2084715   2084166  
  8200.000000   2083764   2083292   2082519   2081287   2079572  
  8190.000000   2077500   2075291   2073203   2071430   2070085  
  8180.000000   2069161   2068590   2068252   2068047   2067886  
  8170.000000   2067713   2067475   2067112   2066543   2065669  
  8160.000000   2064406   2062700   2060570   2058097   2055440  
  8150.000000   2052792   2050358   2048299   2046698   2045544  
  8140.000000   2044723   2044068   2043385   2042539   2041466  
  8130.000000   2040223   2038950   2037840   2037071   2036742  
  8120.000000   2036839   2037195   2037537   2037521   2036838  
  8110.000000   2035279   2032824   2029642   2026085   2022588  
  8100.000000   2019578   2017356   2016031   2015497   2015478  
  8090.000000   2015632   2015656   2015394   2014854   2014193  
  8080.000000   2013632   2013356   2013449   2013844   2014372  
  8070.000000   2014794   2014913   2014600   2013842   2012711  
  8060.000000   2011337   2009864   2008414   2007085   2005944  
  8050.000000   2005038   2004388   2003981   2003753   2003593  
  8040.000000   2003357   2002909   2002163   2001127   1999903  
  8030.000000   1998672   1997634   1996948   1996671   1996751  
  8020.000000   1997038   1997341   1997491   1997379   1996984  
  8010.000000   1996345   1995529   1994583   1993513   1992288  
  8000.000000   1990873   1989273   1987561   1985892   1984452  
  7990.000000   1983424   1982898   1982857   1983157   1983572  
  7980.000000   1983859   1983812   1983326   1982379   1981036  
  7970.000000   1979391   1977555   1975631   1973743   1972034  
  7960.000000   1970681   1969851   1969655   1970086   1970981  
  7950.000000   1972050   1972936   1973333   1973084   1972229  
  7940.000000   1971002   1969726   1968714   1968139   1967999  
  7930.000000   1968121   1968260   1968188   1967789   1967085  
  7920.000000   1966196   1965283   1964460   1963772   1963184  
  7910.000000   1962638   1962097   1961580   1961151   1960879  
  7900.000000   1960782   1960808   1960834   1960724   1960388  
  7890.000000   1959825   1959140   1958491   1958032   1957832  
  7880.000000   1957854   1957960   1957976   1957768   1957299  
  7870.000000   1956641   1955948   1955380   1955037   1954922  
  7860.000000   1954942   1954956   1954844   1954558   1954147  
  7850.000000   1953737   1953466   1953436   1953656   1954043  
  7840.000000   1954443   1954693   1954673   1954337   1953725  
  7830.000000   1952936   1952090   1951289   1950596   1950027  
  7820.000000   1949560   1949155   1948768   1948361   1947909  
  7810.000000   1947404   1946852   1946279   1945723   1945228  
  7800.000000   1944828   1944530   1944309   1944105   1943847  
  7790.000000   1943475   1942968   1942349   1941680   1941031  
  7780.000000   1940454   1939959   1939512   1939054   1938531  
  7770.000000   1937922   1937246   1936558   1935915   1935359  
  7760.000000   1934890   1934483   1934097   1933710   1933328  
  7750.000000   1932981   1932693   1932460   1932226   1931892  
  7740.000000   1931351   1930530   1929432   1928143   1926808  
  7730.000000   1925578   1924557   1923762   1923129   1922545  
  7720.000000   1921904   1921157   1920336   1919535   1918865  
  7710.000000   1918411   1918189   1918148   1918191   1918211  
  7700.000000   1918137   1917943   1917652   1917306   1916942  
  7690.000000   1916567   1916164   1915694   1915125   1914449  
  7680.000000   1913689   1912896   1912129   1911450   1910894  
  7670.000000   1910481   1910199   1910025   1909918   1909833  
  7660.000000   1909722   1909541   1909254   1908837   1908286  
  7650.000000   1907607   1906824   1905967   1905078   1904198  
  7640.000000   1903375   1902653   1902066   1901633   1901346  
  7630.000000   1901176   1901073   1900984   1900870   1900715  
  7620.000000   1900535   1900364   1900246   1900212   1900269  
  7610.000000   1900387   1900515   1900582   1900526   1900303  
  7600.000000   1899901   1899337   1898658   1897920   1897189  
  7590.000000   1896520   1895954   1895513   1895198   1894997  
  7580.000000   1894893   1894866   1894902   1894992   1895125  
  7570.000000   1895283   1895438   1895550   1895589   1895528  
  7560.000000   1895376   1895159   1894935   1894759   1894680  
  7550.000000   1894709   1894832   1895003   1895178   1895326  
  7540.000000   1895450   1895588   1895799   1896141   1896651  
  7530.000000   1897324   1898114   1898937   1899708   1900347  
  7520.000000   1900816   1901104   1901244   1901276   1901250  
  7510.000000   1901201   1901157   1901135   1901160   1901268  
  7500.000000   1901513   1901952   1902633   1903573   1904747  
  7490.000000   1906090   1907507   1908895   1910169   1911280  
  7480.000000   1912229   1913050   1913809   1914570   1915394  
  7470.000000   1916307   1917315   1918380   1919455   1920465  
  7460.000000   1921346   1922047   1922554   1922905   1923188  
  7450.000000   1923533   1924073   1924923   1926142   1927718  
  7440.000000   1929566   1931549   1933521   1935351   1936954  
  7430.000000   1938283   1939340   1940151   1940771   1941263  
  7420.000000   1941709   1942199   1942826   1943668   1944767  
  7410.000000   1946116   1947655   1949298   1950946   1952523  
  7400.000000   1953992   1955358   1956653   1957913   1959171  
  7390.000000   1960441   1961734   1963059   1964433   1965878  
  7380.000000   1967401   1968987   1970584   1972127   1973546  
  7370.000000   1974801   1975895   1976866   1977772   1978658  
  7360.000000   1979537   1980382   1981152   1981813   1982372  
  7350.000000   1982892   1983473   1984228   1985228   1986490  
  7340.000000   1987958   1989542   1991139   1992675   1994118  
  7330.000000   1995467   1996740   1997946   1999084   2000138  
  7320.000000   2001101   2001976   2002790   2003579   2004376  
  7310.000000   2005200   2006046   2006900   2007752   2008613  
  7300.000000   2009510   2010482   2011555   2012722   2013936  
  7290.000000   2015125   2016220   2017182   2018024   2018803  
  7280.000000   2019599   2020478   2021464   2022528   2023599  
  7270.000000   2024588   2025434   2026120   2026691   2027228  
  7260.000000   2027822   2028536   2029392   2030354   2031361  
  7250.000000   2032339   2033253   2034095   2034918   2035788  
  7240.000000   2036787   2037957   2039312   2040814   2042422  
  7230.000000   2044084   2045794   2047565   2049452   2051500  
  7220.000000   2053750   2056189   2058783   2061454   2064140  
  7210.000000   2066780   2069372   2071937   2074542   2077242  
  7200.000000   2080088   2083089   2086236   2089485   2092803  
  7190.000000   2096146   2099502   2102855   2106215   2109579  
  7180.000000   2112958   2116344   2119740   2123127   2126497  
  7170.000000   2129816   2133070   2136236   2139335   2142404  
  7160.000000   2145532   2148814   2152364   2156256   2160534  
  7150.000000   2165171   2170106   2175219   2180397   2185520  
  7140.000000   2190532   2195406   2200191   2204944   2209768  
  7130.000000   2214727   2219892   2225270   2230862   2236620  
  7120.000000   2242503   2248459   2254470   2260528   2266660  
  7110.000000   2272884   2279223   2285662   2292182   2298728  
  7100.000000   2305269   2311768   2318229   2324657   2331084  
  7090.000000   2337521   2343985   2350473   2356988   2363532  
  7080.000000   2370120   2376763   2383468   2390226   2397015  
  7070.000000   2403806   2410574   2417314   2424035   2430754  
  7060.000000   2437480   2444204   2450897   2457518   2464037  
  7050.000000   2470442   2476746   2482969   2489125   2495210  
  7040.000000   2501199   2507073   2512833   2518533   2524260  
  7030.000000   2530121   2536185   2542469   2548902   2555373  
  7020.000000   2561750   2567957   2573979   2579877   2585729  
  7010.000000   2591596   2597475   2603297   2608948   2614337  
  7000.000000   2619417   2624234   2628881   2633484   2638126  
  6990.000000   2642854   2647637   2652432   2657173   2661830  
  6980.000000   2666370   2670782   2675021   2679050   2682817  
  6970.000000   2686321   2689599   2692758   2695913   2699169  
  6960.000000   2702545   2705997   2709394   2712617   2715563  
  6950.000000   2718237   2720700   2723079   2725471   2727938  
  6940.000000   2730454   2732951   2735329   2737522   2739494  
  6930.000000   2741269   2742880   2744377   2745789   2747151  
  6920.000000   2748488   2749851   2751290   2752855   2754554  
  6910.000000   2756354   2758167   2759894   2761437   2762749  
  6900.000000   2763832   2764748   2765578   2766404   2767282  
  6890.000000   2768235   2769255   2770318   2771388   2772435  
  6880.000000   2773426   2774345   2775179   2775943   2776669  
  6870.000000   2777404   2778189   2779045   2779955   2780870  
  6860.000000   2781722   2782458   2783055   2783539   2783965  
  6850.000000   2784401   2784894   2785455   2786056   2786653  
  6840.000000   2787201   2787682   2788097   2788475   2788834  
  6830.000000   2789196   2789558   2789921   2790284   2790655  
  6820.000000   2791038   2791427   2791789   2792073   2792216  
  6810.000000   2792179   2791954   2791584   2791136   2790692  
  6800.000000   2790306   2790000   2789759   2789559   2789374  
  6790.000000   2789208   2789073   2788985   2788936   2788891  
  6780.000000   2788787   2788562   2788175   2787628   2786958  
  6770.000000   2786228   2785499   2784816   2784195   2783643  
  6760.000000   2783160   2782753   2782428   2782177   2781964  
  6750.000000   2781726   2781385   2780884   2780204   2779385  
  6740.000000   2778511   2777683   2776977   2776423   2775992  
  6730.000000   2775620   2775233   2774782   2774254   2773669  
  6720.000000   2773057   2772443   2771822   2771177   2770477  
  6710.000000   2769706   2768863   2767967   2767043   2766116  
  6700.000000   2765196   2764293   2763401   2762523   2761651  
  6690.000000   2760778   2759880   2758933   2757909   2756799  
  6680.000000   2755615   2754396   2753185   2752017   2750891  
  6670.000000   2749780   2748631   2747400   2746069   2744665  
  6660.000000   2743237   2741847   2740526   2739270   2738029  
  6650.000000   2736739   2735344   2733831   2732220   2730568  
  6640.000000   2728930   2727346   2725818   2724331   2722850  
  6630.000000   2721353   2719829   2718282   2716715   2715126  
  6620.000000   2713501   2711826   2710089   2708297   2706469  
  6610.000000   2704631   2702797   2700967   2699123   2697250  
  6600.000000   2695342   2693420   2691527   2689716   2688023  
  6590.000000   2686464   2685019   2683648   2682307   2680956  
  6580.000000   2679574   2678148   2676668   2675122   2673499  
  6570.000000   2671794   2670026   2668234   2666475   2664803  
  6560.000000   2663244   2661792   2660401   2659012   2657571  
  6550.000000   2656062   2654502   2652941   2651432   2650010  
  6540.000000   2648675   2647392   2646108   2644770   2643347  
  6530.000000   2641834   2640254   2638643   2637041   2635483  
  6520.000000   2633994   2632591   2631281   2630063   2628925  
  6510.000000   2627846   2626797   2625748   2624677   2623569  
  6500.000000   2622417   2621220   2619978   2618690   2617357  
  6490.000000   2615990   2614611   2613257   2611963   2610758  
  6480.000000   2609645   2608602   2607586   2606551   2605461  
  6470.000000   2604306   2603102   2601879   2600672   2599501  
  6460.000000   2598370   2597270   2596184   2595103   2594027  
  6450.000000   2592962   2591922   2590913   2589940   2588999  
  6440.000000   2588088   2587202   2586338   2585488   2584648  
  6430.000000   2583805   2582956   2582106   2581274   2580489  
  6420.000000   2579784   2579175   2578662   2578218   2577803  
  6410.000000   2577369   2576889   2576350   2575765   2575158  
  6400.000000   2574559   2573986   2573454   2572966   2572530  
  6390.000000   2572152   2571841   2571600   2571419   2571280  
  6380.000000   2571151   2571001   2570806   2570554   2570242  
  6370.000000   2569876   2569458   2568988   2568463   2567887  
  6360.000000   2567268   2566629   2565989   2565366   2564758  
  6350.000000   2564153   2563524   2562849   2562113   2561324  
  6340.000000   2560499   2559664   2558838   2558037   2557261  
  6330.000000   2556510   2555776   2555060   2554353   2553646  
  6320.000000   2552917   2552143   2551298   2550372   2549369  
  6310.000000   2548313   2547227   2546137   2545048   2543954  
  6300.000000   2542837   2541689   2540507   2539306   2538097  
  6290.000000   2536890   2535667   2534407   2533071   2531645  
  6280.000000   2530131   2528563   2526990   2525461   2523998  
  6270.000000   2522601   2521236   2519860   2518436   2516946  
  6260.000000   2515392   2513794   2512169   2510530   2508878  
  6250.000000   2507215   2505545   2503885   2502257   2500685  
  6240.000000   2499180   2497734   2496322   2494912   2493473  
  6230.000000   2491988   2490451   2488867   2487240   2485573  
  6220.000000   2483866   2482121   2480351   2478577   2476825  
  6210.000000   2475121   2473478   2471893   2470349   2468825  
  6200.000000   2467304   2465784   2464273   2462786   2461340  
  6190.000000   2459943   2458597   2457300   2456046   2454832  
  6180.000000   2453652   2452494   2451340   2450163   2448943  
  6170.000000   2447664   2446331   2444962   2443584   2442223  
  6160.000000   2440892   2439591   2438310   2437039   2435776  
  6150.000000   2434534   2433331   2432185   2431104   2430080  
  6140.000000   2429098   2428136   2427180   2426225   2425277  
  6130.000000   2424336   2423401   2422456   2421483   2420466  
  6120.000000   2419410   2418337   2417291   2416322   2415477  
  6110.000000   2414780   2414235   2413816   2413484   2413188  
  6100.000000   2412885   2412534   2412119   2411633   2411103  
  6090.000000   2410561   2410059   2409636   2409330   2409142  
  6080.000000   2409060   2409047   2409077   2409123   2409194  
  6070.000000   2409304   2409488   2409759   2410126   2410563  
  6060.000000   2411048   2411545   2412051   2412568   2413134  
  6050.000000   2413778   2414539   2415427   2416449   2417589  
  6040.000000   2418839   2420176   2421592   2423059   2424558  
  6030.000000   2426051   2427519   2428942   2430335   2431719  
  6020.000000   2433143   2434641   2436247   2437962   2439779  
  6010.000000   2441672   2443619   2445598   2447596   2449593  
  6000.000000   2451574   2453511   2455388   2457192   2458939  
  5990.000000   2460658   2462399   2464204   2466108   2468117  
  5980.000000   2470220   2472390   2474608   2476856   2479137  
  5970.000000   2481450   2483802   2486181   2488579   2490976  
  5960.000000   2493373   2495767   2498181   2500630   2503133  
  5950.000000   2505692   2508308   2510975   2513700   2516500  
  5940.000000   2519405   2522447   2525644   2528999   2532487  
  5930.000000   2536071   2539704   2543338   2546930   2550442  
  5920.000000   2553833   2557062   2560095   2562906   2565495  
  5910.000000   2567888   2570131   2572283   2574394   2576509  
  5900.000000   2578643   2580810   2583008   2585252   2587550  
  5890.000000   2589921   2592366   2594879   2597432   2599991  
  5880.000000   2602517   2604984   2607378   2609697   2611949  
  5870.000000   2614136   2616264   2618332   2620348   2622324  
  5860.000000   2624283   2626252   2628260   2630326   2632464  
  5850.000000   2634680   2636979   2639361   2641826   2644365  
  5840.000000   2646967   2649608   2652271   2654937   2657607  
  5830.000000   2660288   2662997   2665744   2668533   2671346  
  5820.000000   2674165   2676967   2679746   2682505   2685259  
  5810.000000   2688023   2690792   2693555   2696276   2698939  
  5800.000000   2701520   2704049   2706544   2709064   2711615  
  5790.000000   2714209   2716777   2719255   2721513   2723448  
  5780.000000   2724930   2725871   2726183   2725838   2724823  
  5770.000000   2723208   2721088   2718629   2715990   2713347  
  5760.000000   2710815   2708483   2706361   2704452   2702717  
  5750.000000   2701146   2699717   2698431   2697275   2696234  
  5740.000000   2695278   2694378   2693515   2692681   2691891  
  5730.000000   2691149   2690466   2689823   2689198   2688551  
  5720.000000   2687868   2687142   2686405   2685689   2685035  
  5710.000000   2684462   2683974   2683553   2683182   2682847  
  5700.000000   2682551   2682306   2682122   2682006   2681942  
  5690.000000   2681912   2681887   2681853   2681800   2681733  
  5680.000000   2681650   2681550   2681408   2681196   2680867  
  5670.000000   2680384   2679703   2678800   2677650   2676250  
  5660.000000   2674607   2672758   2670753   2668668   2666577  
  5650.000000   2664551   2662628   2660828   2659134   2657528  
  5640.000000   2655985   2654498   2653068   2651707   2650418  
  5630.000000   2649196   2648025   2646881   2645750   2644626  
  5620.000000   2643519   2642440   2641404   2640405   2639436  
  5610.000000   2638477   2637514   2636544   2635576   2634628  
  5600.000000   2633720   2632864   2632067   2631322   2630623  
  5590.000000   2629961   2629324   2628700   2628072   2627421  
  5580.000000   2626728   2625988   2625205   2624399   2623595  
  5570.000000   2622812   2622056   2621313   2620557   2619760  
  5560.000000   2618905   2617989   2617021   2616020   2614999  
  5550.000000   2613964   2612914   2611849   2610778   2609720  
  5540.000000   2608700   2607740   2606842   2605991   2605155  
  5530.000000   2604299   2603399   2602451   2601470   2600485  
  5520.000000   2599518   2598578   2597655   2596729   2595774  
  5510.000000   2594772   2593713   2592602   2591443   2590248  
  5500.000000   2589022   2587781   2586536   2585306   2584100  
  5490.000000   2582919   2581744   2580545   2579286   2577946  
  5480.000000   2576517   2575021   2573490   2571961   2570452  
  5470.000000   2568966   2567483   2565983   2564446   2562872  
  5460.000000   2561266   2559639   2557992   2556316   2554596  
  5450.000000   2552823   2551004   2549161   2547335   2545562  
  5440.000000   2543863   2542238   2540676   2539156   2537676  
  5430.000000   2536235   2534853   2533531   2532267   2531031  
  5420.000000   2529803   2528559   2527321   2526124   2525039  
  5410.000000   2524116   2523393   2522852   2522464   2522172  
  5400.000000   2521953   2521786   2521704   2521721   2521877  
  5390.000000   2522164   2522589   2523125   2523786   2524573  
  5380.000000   2525537   2526691   2528070   2529638   2531382  
  5370.000000   2533234   2535185   2537202   2539332   2541581  
  5360.000000   2544018   2546645   2549518   2552626   2556037  
  5350.000000   2559760   2563886   2568421   2573432   2578865  
  5340.000000   2584738   2590962   2597568   2604509   2611870  
  5330.000000   2619637   2627906   2636640   2645901   2655623  
  5320.000000   2665879   2676634   2688013   2700017   2712798  
  5310.000000   2726336   2740741   2755940   2771995   2788813  
  5300.000000   2806461   2824874   2844162   2864300   2885419  
  5290.000000   2907487   2930581   2954591   2979488   3005085  
  5280.000000   3031326   3058082   3085402   3113293   3141899  
  5270.000000   3171255   3201397   3232197   3263477   3294990  
  5260.000000   3326534   3357996   3389359   3420696   3452045  
  5250.000000   3483412   3514638   3545533   3575778   3605200  
  5240.000000   3633610   3661075   3687621   3713470   3738675  
  5230.000000   3763384   3787498   3811008   3833690   3855494  
  5220.000000   3876240   3895993   3914704   3932557   3949568  
  5210.000000   3965923   3981573   3996590   4010811   4024231  
  5200.000000   4036678   4048210   4058759   4068483   4077376  
  5190.000000   4085589   4093074   4099911   4106005   4111420  
  5180.000000   4116086   4120104   4123440   4126200   4128330  
  5170.000000   4129900   4130840   4131218   4130998   4130281  
  5160.000000   4129056   4127419   4125337   4122866   4119959  
  5150.000000   4116668   4112972   4108949   4104597   4099983  
  5140.000000   4095082   4089930   4084493   4078813   4072884  
  5130.000000   4066771   4060484   4054075   4047531   4040872  
  5120.000000   4034074   4027162   4020143   4013065   4005949  
  5110.000000   3998831   3991705   3984570   3977405   3970214  
  5100.000000   3963002   3955805   3948651   3941575   3934583  
  5090.000000   3927673   3920822   3914011   3907217   3900431  
  5080.000000   3893640   3886839   3880013   3873152   3866242  
  5070.000000   3859284   3852283   3845258   3838215   3831164  
  5060.000000   3824089   3816976   3809798   3802547   3795218  
  5050.000000   3787828   3780394   3772940   3765472   3757993  
  5040.000000   3750495   3742976   3735434   3727880   3720328  
  5030.000000   3712794   3705285   3697803   3690348   3682917  
  5020.000000   3675522   3668175   3660907   3653738   3646699  
  5010.000000   3639792   3633032   3626404   3619916   3613554  
  5000.000000   3607341   3601276   3595394   3589700   3584230  
  4990.000000   3578977   3573969   3569182   3564637   3560301  
  4980.000000   3556196   3552297   3548642   3545221   3542092  
  4970.000000   3539256   3536770   3534619   3532838   3531384  
  4960.000000   3530271   3529447   3528937   3528707   3528806  
  4950.000000   3529220   3530003   3531135   3532654   3534519  
  4940.000000   3536756   3539313   3542217   3545425   3548967  
  4930.000000   3552807   3556978   3561448   3566252   3571363  
  4920.000000   3576813   3582571   3588654   3595015   3601657  
  4910.000000   3608529   3615637   3622950   3630488   3638238  
  4900.000000   3646213   3654391   3662756   3671264   3679870  
  4890.000000   3688522   3697168   3705766   3714268   3722644  
  4880.000000   3730850   3738870   3746664   3754225   3761511  
  4870.000000   3768512   3775174   3781485   3787389   3792889  
  4860.000000   3797954   3802619   3806885   3810811   3814407  
  4850.000000   3817728   3820778   3823602   3826198   3828612  
  4840.000000   3830847   3832947   3834918   3836799   3838596  
  4830.000000   3840347   3842063   3843779   3845506   3847258  
  4820.000000   3849027   3850801   3852555   3854274   3855951  
  4810.000000   3857597   3859236   3860902   3862626   3864426  
  4800.000000   3866309   3868261   3870265   3872297   3874341  
  4790.000000   3876386   3878430   3880476   3882530   3884601  
  4780.000000   3886695   3888818   3890969   3893141   3895317  
  4770.000000   3897472   3899571   3901587   3903493   3905286  
  4760.000000   3906970   3908570   3910103   3911597   3913049  
  4750.000000   3914459   3915796   3917041   3918161   3919151  
  4740.000000   3920004   3920742   3921384   3921966   3922505  
  4730.000000   3923023   3923519   3923993   3924429   3924818  
  4720.000000   3925147   3925414   3925623   3925785   3925917  
  4710.000000   3926037   3926168   3926330   3926547   3926839  
  4700.000000   3927229   3927734   3928366   3929129   3930018  
  4690.000000   3931021   3932120   3933293   3934523   3935788  
  4680.000000   3937075   3938360   3939626   3940841   3941989  
  4670.000000   3943044   3944004   3944873   3945681   3946460  
  4660.000000   3947258   3948114   3949068   3950146   3951366  
  4650.000000   3952734   3954251   3955909   3957698   3959599  
  4640.000000   3961590   3963646   3965744   3967861   3969979  
  4630.000000   3972087   3974170   3976222   3978226   3980168  
  4620.000000   3982020   3983762   3985362   3986799   3988045  
  4610.000000   3989096   3989940   3990597   3991078   3991427  
  4600.000000   3991670   3991857   3992001   3992135   3992243  
  4590.000000   3992327   3992347   3992287   3992107   3991794  
  4580.000000   3991320   3990683   3989869   3988885   3987725  
  4570.000000   3986407   3984931   3983324   3981590   3979758  
  4560.000000   3977832   3975834   3973768   3971654   3969496  
  4550.000000   3967314   3965113   3962903   3960679   3958437  
  4540.000000   3956166   3953860   3951525   3949171   3946828  
  4530.000000   3944516   3942268   3940092   3938010   3936009  
  4520.000000   3934109   3932297   3930611   3929050   3927671  
  4510.000000   3926476   3925532   3924836   3924466   3924425  
  4500.000000   3924806   3925617   3926956   3928819   3931289  
  4490.000000   3934342   3938047   3942369   3947373   3953021  
  4480.000000   3959367   3966354   3974010   3982258   3991107  
  4470.000000   4000475   4010373   4020727   4031549   4042761  
  4460.000000   4054351   4066220   4078328   4090569   4102903  
  4450.000000   4115256   4127626   4139995   4152399   4164861  
  4440.000000   4177420   4190101   4202910   4215850   4228889  
  4430.000000   4242008   4255149   4268286   4281342   4294289  
  4420.000000   4307031   4319533   4331688   4343460   4354737  
  4410.000000   4365484   4375596   4385044   4393741   4401680  
  4400.000000   4408809   4415170   4420770   4425710   4430061  
  4390.000000   4433972   4437551   4440959   4444299   4447697  
  4380.000000   4451210   4454900   4458778   4462866   4467160  
  4370.000000   4471684   4476456   4481507   4486863   4492537  
  4360.000000   4498525   4504805   4511328   4518051   4524887  
  4350.000000   4531788   4538639   4545409   4551998   4558428  
  4340.000000   4564657   4570751   4576659   4582340   4587543  
  4330.000000   4591945   4595038   4596336   4595392   4592021  
  4320.000000   4586305   4578693   4569850   4560603   4551698  
  4310.000000   4543750   4537078   4531792   4527772   4524828  
  4300.000000   4522733   4521320   4520477   4520129   4520241  
  4290.000000   4520735   4521571   4522654   4523969   4525471  
  4280.000000   4527195   4529153   4531378   4533876   4536630  
  4270.000000   4539619   4542783   4546059   4549315   4552380  
  4260.000000   4554992   4556859   4557666   4557178   4555267  
  4250.000000   4551997   4547578   4542381   4536803   4531263  
  4240.000000   4526054   4521394   4517324   4513826   4510774  
  4230.000000   4508047   4505494   4502998   4500459   4497807  
  4220.000000   4495020   4492093   4489099   4486106   4483250  
  4210.000000   4480626   4478360   4476501   4475101   4474135  
  4200.000000   4473588   4473389   4473498   4473838   4474383  
  4190.000000   4475072   4475909   4476855   4477943   4479147  
  4180.000000   4480507   4481991   4483629   4485382   4487285  
  4170.000000   4489324   4491576   4494070   4496915   4500148  
  4160.000000   4503857   4508031   4512709   4517835   4523424  
  4150.000000   4529419   4535851   4542681   4549956   4557643  
  4140.000000   4565793   4574369   4583425   4592928   4602934  
  4130.000000   4613408   4624395   4635845   4647788   4660173  
  4120.000000   4673032   4686332   4700123   4714383   4729157  
  4110.000000   4744408   4760146   4776301   4792845   4809687  
  4100.000000   4826781   4844048   4861456   4878963   4896570  
  4090.000000   4914272   4932083   4950008   4968038   4986164  
  4080.000000   5004344   5022562   5040761   5058927   5076988  
  4070.000000   5094923   5112640   5130110   5147239   5164025  
  4060.000000   5180400   5196399   5211959   5227110   5241758  
  4050.000000   5255917   5269488   5282516   5294939   5306846  
  4040.000000   5318186   5329033   5339285   5348970   5357949  
  4030.000000   5366239   5373715   5380415   5386244   5391249  
  4020.000000   5395331   5398573   5400982   5402682   5403658  
  4010.000000   5404078   5404032   5403525   5402285   5400347  
  4000.000000   5398051  
##END= 
