##TITLE= Sample 040 By ssteindl date Donnerstag, November 22 2018
##JCAMP-DX= 4.24
##DATA TYPE= INFRARED SPECTRUM
##ORIGIN= Exported PE Spectrum Data File
##OWNER= Sandra Steindl
##DATE= 18/11/22
##TIME= 12:18:11.00
##SPECTROMETER/DATA SYSTEM= PERKIN-ELMER Frontier FT-IR/NIR IR
##INSTRUMENT PARAMETERS=
  APODIZATION=stark
  DETECTOR=INGAAS
##RESOLUTION= 16.000000
##DELTAX= -2.000000
##XUNITS= 1/CM
##YUNITS= A
##XFACTOR= 1.00
##YFACTOR= 0.00000011920928955078
##FIRSTX= 10000.00
##LASTX= 4000.00
##NPOINTS= 3001
##FIRSTY= 0.231074
##MAXY= 0.683604
##MINY= 0.183386
##XYDATA= (X++(Y..Y))
 10000.000000   1938391   1938871   1939409   1940159   1941216  
  9990.000000   1942675   1944608   1947054   1949875   1952681  
  9980.000000   1954810   1955441   1953881   1949834   1943663  
  9970.000000   1936349   1929225   1923576   1920143   1918979  
  9960.000000   1919407   1920481   1921317   1921553   1921343  
  9950.000000   1921235   1921724   1922948   1924494   1925546  
  9940.000000   1925234   1922976   1918781   1913161   1907005  
  9930.000000   1901170   1896292   1892587   1889925   1887934  
  9920.000000   1886208   1884414   1882402   1880193   1877952  
  9910.000000   1876002   1874697   1874464   1875588   1878200  
  9900.000000   1882150   1887014   1892246   1897229   1901513  
  9890.000000   1904707   1906523   1906570   1904439   1899752  
  9880.000000   1892518   1883284   1873309   1864327   1858126  
  9870.000000   1855993   1858188   1863887   1871353   1878640  
  9860.000000   1884147   1887199   1888067   1887765   1887491  
  9850.000000   1888155   1890044   1892818   1895752   1898065  
  9840.000000   1899228   1899034   1897543   1894919   1891301  
  9830.000000   1886826   1881638   1875972   1870124   1864373  
  9820.000000   1858934   1853882   1849234   1845026   1841397  
  9810.000000   1838650   1837116   1837051   1838433   1840948  
  9800.000000   1844087   1847341   1850422   1853290   1856094  
  9790.000000   1858902   1861564   1863599   1864425   1863572  
  9780.000000   1861038   1857319   1853308   1849909   1847671  
  9770.000000   1846556   1845998   1845228   1843668   1841269  
  9760.000000   1838482   1836101   1834776   1834801   1835923  
  9750.000000   1837614   1839330   1840845   1842314   1844085  
  9740.000000   1846380   1848980   1851172   1851959   1850498  
  9730.000000   1846495   1840421   1833377   1826687   1821433  
  9720.000000   1818031   1816250   1815333   1814503   1813220  
  9710.000000   1811412   1809358   1807439   1805885   1804590  
  9700.000000   1803172   1801110   1798005   1793716   1788473  
  9690.000000   1782771   1777302   1772762   1769765   1768716  
  9680.000000   1769723   1772523   1776433   1780452   1783442  
  9670.000000   1784484   1783171   1779814   1775382   1771182  
  9660.000000   1768450   1767846   1769292   1771911   1774396  
  9650.000000   1775401   1774010   1770010   1763894   1756717  
  9640.000000   1749723   1744083   1740612   1739686   1741203  
  9630.000000   1744621   1749067   1753467   1756767   1758165  
  9620.000000   1757295   1754349   1750011   1745265   1741165  
  9610.000000   1738465   1737538   1738197   1739913   1741924  
  9600.000000   1743478   1744013   1743201   1741071   1737932  
  9590.000000   1734422   1731383   1729715   1730160   1732994  
  9580.000000   1737890   1743839   1749409   1753115   1753892  
  9570.000000   1751475   1746489   1740311   1734599   1730821  
  9560.000000   1729777   1731450   1735055   1739393   1743215  
  9550.000000   1745598   1746094   1744759   1741959   1738213  
  9540.000000   1733997   1729676   1725514   1721663   1718267  
  9530.000000   1715413   1713183   1711594   1710576   1709987  
  9520.000000   1709591   1709180   1708598   1707835   1707044  
  9510.000000   1706486   1706468   1707192   1708694   1710755  
  9500.000000   1712973   1714840   1715937   1716053   1715265  
  9490.000000   1713895   1712358   1711021   1710066   1709456  
  9480.000000   1709025   1708555   1707924   1707114   1706198  
  9470.000000   1705237   1704163   1702811   1700967   1698598  
  9460.000000   1695950   1693604   1692295   1692655   1694909  
  9450.000000   1698740   1703286   1707407   1709996   1710345  
  9440.000000   1708365   1704582   1699953   1695486   1691941  
  9430.000000   1689600   1688290   1687525   1686728   1685450  
  9420.000000   1683465   1680879   1677996   1675302   1673227  
  9410.000000   1672100   1672015   1672825   1674196   1675618  
  9400.000000   1676595   1676640   1675485   1673035   1669471  
  9390.000000   1665137   1660528   1656180   1652598   1650211  
  9380.000000   1649257   1649824   1651743   1654732   1658374  
  9370.000000   1662265   1666019   1669300   1671814   1673264  
  9360.000000   1673371   1671835   1668486   1663324   1656745  
  9350.000000   1649466   1642512   1636877   1633278   1631908  
  9340.000000   1632362   1633811   1635228   1635844   1635357  
  9330.000000   1634149   1633044   1633037   1634845   1638672  
  9320.000000   1644155   1650446   1656490   1661228   1663890  
  9310.000000   1664068   1661784   1657389   1651490   1644837  
  9300.000000   1638234   1632428   1627973   1625116   1623733  
  9290.000000   1623410   1623550   1623629   1623282   1622480  
  9280.000000   1621415   1620463   1619947   1620039   1620705  
  9270.000000   1621750   1622982   1624232   1625440   1626494  
  9260.000000   1627237   1627358   1626520   1624426   1621002  
  9250.000000   1616480   1611418   1606613   1602867   1600808  
  9240.000000   1600676   1602373   1605454   1609340   1613363  
  9230.000000   1616947   1619645   1621186   1621482   1620570  
  9220.000000   1618663   1616033   1613037   1609931   1606883  
  9210.000000   1603900   1600930   1597932   1594955   1592222  
  9200.000000   1590070   1588879   1588896   1590148   1592387  
  9190.000000   1595145   1597861   1600041   1601411   1601955  
  9180.000000   1601910   1601642   1601559   1601978   1603062  
  9170.000000   1604749   1606777   1608751   1610258   1610954  
  9160.000000   1610630   1609300   1607171   1604633   1602071  
  9150.000000   1599836   1598121   1597001   1596424   1596271  
  9140.000000   1596393   1596625   1596758   1596522   1595590  
  9130.000000   1593700   1590776   1587018   1582908   1579128  
  9120.000000   1576391   1575177   1575550   1577127   1579222  
  9110.000000   1581079   1582106   1582053   1581047   1579479  
  9100.000000   1577812   1576396   1575398   1574798   1574499  
  9090.000000   1574390   1574432   1574609   1574894   1575180  
  9080.000000   1575294   1575067   1574412   1573387   1572164  
  9070.000000   1570998   1570104   1569602   1569462   1569580  
  9060.000000   1569849   1570233   1570735   1571365   1572036  
  9050.000000   1572528   1572513   1571667   1569841   1567136  
  9040.000000   1563916   1560676   1557890   1555825   1554481  
  9030.000000   1553631   1552965   1552266   1551500   1550825  
  9020.000000   1550464   1550587   1551200   1552132   1553124  
  9010.000000   1553940   1554500   1554845   1555105   1555353  
  9000.000000   1555551   1555531   1555080   1554080   1552604  
  8990.000000   1550953   1549554   1548815   1548937   1549838  
  8980.000000   1551147   1552356   1552995   1552785   1551731  
  8970.000000   1550057   1548139   1546314   1544811   1543677  
  8960.000000   1542840   1542162   1541535   1540929   1540409  
  8950.000000   1540115   1540205   1540807   1541969   1543627  
  8940.000000   1545622   1547692   1549547   1550903   1551577  
  8930.000000   1551539   1550938   1550076   1549320   1549022  
  8920.000000   1549405   1550521   1552203   1554141   1555930  
  8910.000000   1557209   1557708   1557334   1556162   1554425  
  8900.000000   1552452   1550574   1549050   1547989   1547335  
  8890.000000   1546881   1546348   1545482   1544158   1542459  
  8880.000000   1540662   1539165   1538354   1538469   1539509  
  8870.000000   1541222   1543191   1544954   1546177   1546736  
  8860.000000   1546756   1546525   1546389   1546597   1547233  
  8850.000000   1548178   1549203   1550032   1550479   1550463  
  8840.000000   1550041   1549356   1548574   1547852   1547285  
  8830.000000   1546956   1546928   1547295   1548138   1549515  
  8820.000000   1551397   1553636   1555970   1558052   1559553  
  8810.000000   1560217   1559953   1558822   1557037   1554876  
  8800.000000   1552656   1550662   1549151   1548319   1548300  
  8790.000000   1549131   1550718   1552832   1555114   1557166  
  8780.000000   1558651   1559406   1559522   1559317   1559256  
  8770.000000   1559768   1561096   1563194   1565735   1568244  
  8760.000000   1570268   1571555   1572137   1572289   1572404  
  8750.000000   1572798   1573575   1574565   1575403   1575683  
  8740.000000   1575155   1573842   1572058   1570332   1569223  
  8730.000000   1569179   1570376   1572698   1575764   1579046  
  8720.000000   1582019   1584266   1585578   1585942   1585555  
  8710.000000   1584724   1583833   1583226   1583174   1583804  
  8700.000000   1585107   1586950   1589128   1591429   1593677  
  8690.000000   1595780   1597712   1599501   1601187   1602779  
  8680.000000   1604276   1605632   1606817   1607798   1608593  
  8670.000000   1609246   1609845   1610494   1611300   1612371  
  8660.000000   1613778   1615562   1617694   1620100   1622664  
  8650.000000   1625259   1627787   1630176   1632408   1634461  
  8640.000000   1636311   1637885   1639096   1639874   1640232  
  8630.000000   1640305   1640356   1640725   1641715   1643502  
  8620.000000   1646026   1649035   1652114   1654865   1656988  
  8610.000000   1658418   1659305   1659951   1660679   1661707  
  8600.000000   1663089   1664669   1666182   1667304   1667815  
  8590.000000   1667611   1666765   1665492   1664109   1662974  
  8580.000000   1662400   1662651   1663876   1666116   1669255  
  8570.000000   1673076   1677284   1681564   1685609   1689168  
  8560.000000   1692072   1694223   1695605   1696251   1696284  
  8550.000000   1695858   1695195   1694517   1694046   1693939  
  8540.000000   1694251   1694929   1695814   1696735   1697531  
  8530.000000   1698158   1698666   1699243   1700119   1701521  
  8520.000000   1703569   1706241   1709372   1712663   1715762  
  8510.000000   1718323   1720108   1721012   1721093   1720545  
  8500.000000   1719657   1718736   1718027   1717684   1717746  
  8490.000000   1718169   1718851   1719688   1720602   1721545  
  8480.000000   1722476   1723341   1724083   1724630   1724952  
  8470.000000   1725078   1725148   1725370   1725978   1727162  
  8460.000000   1729005   1731462   1734361   1737464   1740546  
  8450.000000   1743433   1746035   1748308   1750242   1751809  
  8440.000000   1752971   1753693   1753985   1753946   1753755  
  8430.000000   1753659   1753878   1754580   1755796   1757443  
  8420.000000   1759300   1761119   1762654   1763739   1764282  
  8410.000000   1764286   1763831   1763056   1762129   1761229  
  8400.000000   1760522   1760144   1760170   1760595   1761328  
  8390.000000   1762220   1763090   1763783   1764193   1764315  
  8380.000000   1764224   1764067   1763996   1764141   1764566  
  8370.000000   1765265   1766165   1767145   1768086   1768880  
  8360.000000   1769454   1769747   1769703   1769268   1768406  
  8350.000000   1767123   1765506   1763733   1762085   1760870  
  8340.000000   1760337   1760585   1761501   1762788   1764036  
  8330.000000   1764868   1765079   1764721   1764091   1763614  
  8320.000000   1763673   1764453   1765866   1767569   1769106  
  8310.000000   1770073   1770291   1769849   1769044   1768252  
  8300.000000   1767750   1767638   1767797   1767998   1768016  
  8290.000000   1767749   1767252   1766699   1766269   1766054  
  8280.000000   1765988   1765894   1765563   1764861   1763806  
  8270.000000   1762552   1761344   1760394   1759804   1759537  
  8260.000000   1759445   1759372   1759216   1758995   1758811  
  8250.000000   1758814   1759107   1759714   1760540   1761432  
  8240.000000   1762212   1762748   1762961   1762833   1762372  
  8230.000000   1761600   1760527   1759175   1757570   1755772  
  8220.000000   1753841   1751847   1749827   1747801   1745761  
  8210.000000   1743714   1741679   1739714   1737880   1736224  
  8200.000000   1734745   1733395   1732088   1730749   1729336  
  8190.000000   1727879   1726460   1725196   1724185   1723476  
  8180.000000   1723045   1722806   1722632   1722384   1721929  
  8170.000000   1721154   1719977   1718367   1716360   1714077  
  8160.000000   1711706   1709465   1707540   1706026   1704880  
  8150.000000   1703930   1702923   1701624   1699906   1697800  
  8140.000000   1695490   1693231   1691253   1689679   1688491  
  8130.000000   1687561   1686735   1685904   1685068   1684322  
  8120.000000   1683797   1683578   1683637   1683829   1683932  
  8110.000000   1683736   1683131   1682129   1680868   1679518  
  8100.000000   1678219   1677011   1675822   1674513   1672950  
  8090.000000   1671084   1668991   1666855   1664909   1663353  
  8080.000000   1662277   1661650   1661319   1661086   1660761  
  8070.000000   1660236   1659491   1658611   1657725   1656974  
  8060.000000   1656456   1656190   1656113   1656069   1655865  
  8050.000000   1655282   1654156   1652399   1650049   1647267  
  8040.000000   1644311   1641502   1639136   1637448   1636539  
  8030.000000   1636381   1636810   1637587   1638436   1639107  
  8020.000000   1639413   1639241   1638571   1637442   1635962  
  8010.000000   1634260   1632498   1630824   1629375   1628251  
  8000.000000   1627504   1627136   1627088   1627261   1627519  
  7990.000000   1627721   1627733   1627452   1626825   1625847  
  7980.000000   1624577   1623115   1621601   1620185   1619003  
  7970.000000   1618157   1617687   1617568   1617708   1617969  
  7960.000000   1618197   1618250   1618032   1617504   1616696  
  7950.000000   1615674   1614539   1613378   1612276   1611285  
  7940.000000   1610454   1609820   1609419   1609282   1609416  
  7930.000000   1609794   1610343   1610953   1611500   1611872  
  7920.000000   1612012   1611917   1611650   1611298   1610953  
  7910.000000   1610670   1610467   1610324   1610210   1610105  
  7900.000000   1610012   1609960   1609977   1610080   1610243  
  7890.000000   1610419   1610534   1610537   1610407   1610169  
  7880.000000   1609880   1609606   1609388   1609231   1609088  
  7870.000000   1608889   1608559   1608049   1607354   1606514  
  7860.000000   1605604   1604710   1603905   1603234   1602707  
  7850.000000   1602301   1601975   1601687   1601404   1601120  
  7840.000000   1600847   1600616   1600454   1600377   1600376  
  7830.000000   1600419   1600461   1600457   1600375   1600207  
  7820.000000   1599959   1599649   1599281   1598854   1598351  
  7810.000000   1597765   1597104   1596401   1595707   1595071  
  7800.000000   1594506   1593980   1593407   1592687   1591735  
  7790.000000   1590535   1589150   1587713   1586391   1585320  
  7780.000000   1584565   1584093   1583790   1583501   1583082  
  7770.000000   1582456   1581626   1580681   1579756   1578997  
  7760.000000   1578518   1578364   1578504   1578821   1579144  
  7750.000000   1579267   1579006   1578239   1576949   1575241  
  7740.000000   1573329   1571486   1569977   1568984   1568550  
  7730.000000   1568582   1568873   1569187   1569320   1569176  
  7720.000000   1568768   1568194   1567585   1567031   1566553  
  7710.000000   1566087   1565529   1564776   1563788   1562605  
  7700.000000   1561352   1560200   1559322   1558838   1558782  
  7690.000000   1559092   1559625   1560198   1560635   1560810  
  7680.000000   1560683   1560295   1559754   1559184   1558694  
  7670.000000   1558334   1558105   1557954   1557824   1557668  
  7660.000000   1557477   1557266   1557059   1556870   1556685  
  7650.000000   1556477   1556228   1555951   1555709   1555588  
  7640.000000   1555673   1555998   1556519   1557116   1557634  
  7630.000000   1557933   1557956   1557737   1557402   1557101  
  7620.000000   1556958   1557017   1557246   1557551   1557840  
  7610.000000   1558055   1558199   1558317   1558466   1558675  
  7600.000000   1558932   1559194   1559419   1559596   1559764  
  7590.000000   1559996   1560370   1560927   1561650   1562460  
  7580.000000   1563255   1563941   1564474   1564859   1565151  
  7570.000000   1565414   1565709   1566060   1566477   1566955  
  7560.000000   1567502   1568129   1568863   1569713   1570675  
  7550.000000   1571722   1572820   1573939   1575072   1576228  
  7540.000000   1577430   1578686   1579994   1581321   1582636  
  7530.000000   1583908   1585141   1586363   1587633   1589003  
  7520.000000   1590518   1592181   1593970   1595835   1597727  
  7510.000000   1599601   1601440   1603243   1605033   1606832  
  7500.000000   1608670   1610557   1612485   1614422   1616322  
  7490.000000   1618133   1619824   1621390   1622875   1624346  
  7480.000000   1625889   1627554   1629356   1631241   1633129  
  7470.000000   1634928   1636600   1638166   1639728   1641421  
  7460.000000   1643382   1645688   1648344   1651271   1654352  
  7450.000000   1657460   1660512   1663470   1666345   1669163  
  7440.000000   1671958   1674740   1677512   1680263   1682995  
  7430.000000   1685711   1688421   1691124   1693808   1696452  
  7420.000000   1699036   1701569   1704084   1706642   1709305  
  7410.000000   1712114   1715070   1718124   1721198   1724208  
  7400.000000   1727095   1729835   1732446   1734962   1737423  
  7390.000000   1739852   1742261   1744652   1747034   1749426  
  7380.000000   1751864   1754381   1756997   1759710   1762494  
  7370.000000   1765314   1768134   1770938   1773730   1776531  
  7360.000000   1779376   1782293   1785301   1788401   1791574  
  7350.000000   1794780   1797963   1801053   1803988   1806718  
  7340.000000   1809228   1811537   1813697   1815780   1817855  
  7330.000000   1819975   1822163   1824423   1826736   1829084  
  7320.000000   1831444   1833814   1836182   1838545   1840886  
  7310.000000   1843191   1845447   1847653   1849813   1851942  
  7300.000000   1854034   1856077   1858025   1859833   1861457  
  7290.000000   1862892   1864159   1865320   1866443   1867587  
  7280.000000   1868774   1869987   1871175   1872280   1873256  
  7270.000000   1874089   1874802   1875452   1876115   1876867  
  7260.000000   1877775   1878881   1880205   1881732   1883434  
  7250.000000   1885250   1887124   1888983   1890794   1892532  
  7240.000000   1894228   1895920   1897687   1899583   1901672  
  7230.000000   1903969   1906492   1909218   1912137   1915213  
  7220.000000   1918429   1921744   1925141   1928584   1932067  
  7210.000000   1935574   1939126   1942722   1946385   1950102  
  7200.000000   1953875   1957682   1961536   1965447   1969468  
  7190.000000   1973639   1978015   1982596   1987367   1992256  
  7180.000000   1997197   2002115   2006997   2011848   2016735  
  7170.000000   2021712   2026850   2032161   2037654   2043284  
  7160.000000   2049028   2054843   2060732   2066692   2072757  
  7150.000000   2078947   2085303   2091840   2098583   2105513  
  7140.000000   2112615   2119815   2127052   2134234   2141323  
  7130.000000   2148293   2155202   2162119   2169168   2176436  
  7120.000000   2184002   2191865   2200003   2208346   2216843  
  7110.000000   2225448   2234160   2242979   2251923   2260977  
  7100.000000   2270122   2279301   2288478   2297607   2306683  
  7090.000000   2315695   2324665   2333594   2342495   2351369  
  7080.000000   2360239   2369134   2378110   2387221   2396520  
  7070.000000   2406026   2415726   2425571   2435489   2445406  
  7060.000000   2455262   2465017   2474659   2484183   2493595  
  7050.000000   2502886   2512043   2521042   2529860   2538493  
  7040.000000   2546959   2555310   2563609   2571934   2580337  
  7030.000000   2588849   2597443   2606079   2614687   2623224  
  7020.000000   2631664   2640026   2648330   2656605   2664825  
  7010.000000   2672937   2680847   2688474   2695766   2702746  
  7000.000000   2709483   2716096   2722673   2729278   2735888  
  6990.000000   2742456   2748897   2755174   2761271   2767239  
  6980.000000   2773119   2778964   2784761   2790486   2796071  
  6970.000000   2801493   2806736   2811849   2816874   2821866  
  6960.000000   2826821   2831714   2836472   2841043   2845374  
  6950.000000   2849470   2853334   2857006   2860494   2863823  
  6940.000000   2867000   2870067   2873068   2876071   2879111  
  6930.000000   2882199   2885272   2888247   2891022   2893549  
  6920.000000   2895835   2897971   2900077   2902278   2904633  
  6910.000000   2907133   2909696   2912214   2914582   2916750  
  6900.000000   2918720   2920548   2922309   2924084   2925924  
  6890.000000   2927866   2929916   2932067   2934287   2936532  
  6880.000000   2938741   2940857   2942831   2944649   2946326  
  6870.000000   2947906   2949438   2950955   2952465   2953949  
  6860.000000   2955377   2956733   2958019   2959268   2960513  
  6850.000000   2961789   2963106   2964462   2965844   2967260  
  6840.000000   2968722   2970258   2971873   2973541   2975193  
  6830.000000   2976737   2978089   2979209   2980117   2980886  
  6820.000000   2981609   2982361   2983164   2983992   2984781  
  6810.000000   2985484   2986075   2986585   2987058   2987550  
  6800.000000   2988071   2988610   2989119   2989568   2989943  
  6790.000000   2990274   2990592   2990928   2991262   2991548  
  6780.000000   2991717   2991728   2991581   2991337   2991079  
  6770.000000   2990884   2990770   2990695   2990565   2990287  
  6760.000000   2989803   2989132   2988354   2987589   2986944  
  6750.000000   2986489   2986229   2986135   2986145   2986210  
  6740.000000   2986283   2986327   2986302   2986157   2985842  
  6730.000000   2985325   2984607   2983731   2982772   2981809  
  6720.000000   2980897   2980054   2979259   2978481   2977688  
  6710.000000   2976882   2976076   2975299   2974557   2973838  
  6700.000000   2973103   2972317   2971457   2970539   2969601  
  6690.000000   2968694   2967847   2967056   2966276   2965444  
  6680.000000   2964494   2963389   2962116   2960700   2959170  
  6670.000000   2957566   2955913   2954238   2952554   2950885  
  6660.000000   2949237   2947615   2945999   2944362   2942671  
  6650.000000   2940908   2939070   2937181   2935266   2933348  
  6640.000000   2931430   2929504   2927561   2925615   2923704  
  6630.000000   2921893   2920241   2918776   2917471   2916242  
  6620.000000   2914966   2913528   2911846   2909905   2907750  
  6610.000000   2905462   2903132   2900829   2898591   2896434  
  6600.000000   2894358   2892367   2890459   2888637   2886882  
  6590.000000   2885167   2883447   2881687   2879864   2877978  
  6580.000000   2876045   2874083   2872105   2870111   2868101  
  6570.000000   2866078   2864064   2862093   2860201   2858409  
  6560.000000   2856708   2855059   2853412   2851723   2849978  
  6550.000000   2848192   2846403   2844645   2842936   2841263  
  6540.000000   2839605   2837944   2836293   2834694   2833211  
  6530.000000   2831895   2830765   2829790   2828903   2828025  
  6520.000000   2827097   2826098   2825043   2823967   2822901  
  6510.000000   2821849   2820791   2819694   2818536   2817318  
  6500.000000   2816071   2814837   2813651   2812526   2811447  
  6490.000000   2810384   2809311   2808220   2807129   2806069  
  6480.000000   2805072   2804151   2803292   2802468   2801640  
  6470.000000   2800781   2799878   2798929   2797937   2796903  
  6460.000000   2795826   2794703   2793539   2792350   2791162  
  6450.000000   2790002   2788886   2787818   2786787   2785780  
  6440.000000   2784792   2783829   2782910   2782051   2781263  
  6430.000000   2780533   2779840   2779149   2778436   2777690  
  6420.000000   2776917   2776131   2775353   2774593   2773864  
  6410.000000   2773169   2772522   2771931   2771410   2770957  
  6400.000000   2770558   2770183   2769801   2769387   2768941  
  6390.000000   2768480   2768040   2767651   2767329   2767066  
  6380.000000   2766834   2766602   2766345   2766056   2765746  
  6370.000000   2765430   2765120   2764812   2764490   2764134  
  6360.000000   2763734   2763290   2762819   2762340   2761865  
  6350.000000   2761396   2760918   2760424   2759905   2759375  
  6340.000000   2758852   2758363   2757914   2757496   2757071  
  6330.000000   2756598   2756026   2755326   2754484   2753514  
  6320.000000   2752439   2751300   2750133   2748981   2747865  
  6310.000000   2746805   2745786   2744785   2743751   2742636  
  6300.000000   2741394   2740014   2738502   2736899   2735245  
  6290.000000   2733577   2731900   2730206   2728459   2726638  
  6280.000000   2724730   2722751   2720727   2718698   2716679  
  6270.000000   2714682   2712689   2710685   2708647   2706569  
  6260.000000   2704446   2702281   2700067   2697802   2695474  
  6250.000000   2693088   2690654   2688204   2685765   2683364  
  6240.000000   2681006   2678682   2676365   2674031   2671658  
  6230.000000   2669243   2666786   2664298   2661782   2659245  
  6220.000000   2656691   2654134   2651592   2649092   2646652  
  6210.000000   2644280   2641960   2639665   2637364   2635033  
  6200.000000   2632665   2630274   2627876   2625489   2623117  
  6190.000000   2620752   2618387   2616020   2613667   2611352  
  6180.000000   2609101   2606926   2604820   2602755   2600698  
  6170.000000   2598624   2596527   2594419   2592325   2590260  
  6160.000000   2588227   2586211   2584193   2582164   2580134  
  6150.000000   2578134   2576201   2574360   2572610   2570919  
  6140.000000   2569236   2567514   2565728   2563882   2562010  
  6130.000000   2560151   2558336   2556568   2554832   2553094  
  6120.000000   2551337   2549555   2547777   2546038   2544386  
  6110.000000   2542847   2541432   2540126   2538908   2537743  
  6100.000000   2536614   2535503   2534413   2533346   2532320  
  6090.000000   2531351   2530461   2529665   2528975   2528380  
  6080.000000   2527866   2527399   2526950   2526486   2526000  
  6070.000000   2525484   2524953   2524415   2523889   2523381  
  6060.000000   2522913   2522495   2522161   2521927   2521820  
  6050.000000   2521838   2521977   2522208   2522512   2522869  
  6040.000000   2523286   2523775   2524366   2525071   2525902  
  6030.000000   2526838   2527860   2528933   2530036   2531150  
  6020.000000   2532272   2533396   2534527   2535663   2536816  
  6010.000000   2537997   2539229   2540527   2541903   2543340  
  6000.000000   2544808   2546257   2547652   2548965   2550210  
  5990.000000   2551419   2552647   2553937   2555322   2556803  
  5980.000000   2558377   2560026   2561756   2563576   2565517  
  5970.000000   2567593   2569814   2572154   2574589   2577074  
  5960.000000   2579597   2582143   2584736   2587386   2590113  
  5950.000000   2592906   2595760   2598653   2601585   2604565  
  5940.000000   2607625   2610795   2614098   2617529   2621061  
  5930.000000   2624648   2628240   2631797   2635298   2638735  
  5920.000000   2642111   2645425   2648672   2651837   2654908  
  5910.000000   2657874   2660738   2663509   2666204   2668842  
  5900.000000   2671444   2674033   2676631   2679266   2681957  
  5890.000000   2684723   2687567   2690484   2693455   2696462  
  5880.000000   2699484   2702508   2705518   2708500   2711429  
  5870.000000   2714275   2717008   2719604   2722061   2724390  
  5860.000000   2726625   2728806   2730971   2733152   2735370  
  5850.000000   2737643   2739986   2742415   2744946   2747583  
  5840.000000   2750317   2753122   2755963   2758801   2761612  
  5830.000000   2764382   2767116   2769827   2772531   2775237  
  5820.000000   2777951   2780673   2783405   2786150   2788905  
  5810.000000   2791668   2794414   2797122   2799751   2802288  
  5800.000000   2804713   2807050   2809305   2811509   2813648  
  5790.000000   2815710   2817631   2819361   2820815   2821948  
  5780.000000   2822699   2823051   2822976   2822486   2821595  
  5770.000000   2820363   2818859   2817194   2815468   2813787  
  5760.000000   2812215   2810798   2809538   2808430   2807455  
  5750.000000   2806604   2805869   2805242   2804710   2804246  
  5740.000000   2803830   2803435   2803063   2802719   2802433  
  5730.000000   2802217   2802090   2802039   2802056   2802116  
  5720.000000   2802221   2802371   2802594   2802899   2803301  
  5710.000000   2803782   2804324   2804898   2805493   2806111  
  5700.000000   2806771   2807494   2808295   2809168   2810093  
  5690.000000   2811044   2811992   2812931   2813854   2814769  
  5680.000000   2815665   2816523   2817302   2817964   2818466  
  5670.000000   2818793   2818931   2818893   2818679   2818295  
  5660.000000   2817731   2816994   2816090   2815055   2813931  
  5650.000000   2812779   2811639   2810550   2809517   2808543  
  5640.000000   2807613   2806722   2805859   2805021   2804193  
  5630.000000   2803359   2802503   2801612   2800690   2799757  
  5620.000000   2798839   2797963   2797140   2796363   2795612  
  5610.000000   2794858   2794085   2793295   2792502   2791730  
  5600.000000   2790996   2790304   2789637   2788973   2788287  
  5590.000000   2787565   2786803   2786008   2785180   2784318  
  5580.000000   2783406   2782432   2781383   2780261   2779076  
  5570.000000   2777846   2776585   2775305   2774008   2772694  
  5560.000000   2771365   2770032   2768706   2767403   2766128  
  5550.000000   2764882   2763659   2762455   2761273   2760123  
  5540.000000   2759018   2757967   2756965   2755996   2755034  
  5530.000000   2754056   2753048   2752013   2750962   2749910  
  5520.000000   2748864   2747821   2746767   2745691   2744580  
  5510.000000   2743436   2742261   2741058   2739822   2738547  
  5500.000000   2737224   2735858   2734467   2733085   2731739  
  5490.000000   2730445   2729181   2727910   2726568   2725112  
  5480.000000   2723516   2721796   2719991   2718156   2716331  
  5470.000000   2714534   2712753   2710962   2709127   2707234  
  5460.000000   2705273   2703254   2701180   2699054   2696871  
  5450.000000   2694632   2692344   2690025   2687701   2685396  
  5440.000000   2683127   2680898   2678715   2676582   2674521  
  5430.000000   2672552   2670695   2668936   2667251   2665582  
  5420.000000   2663893   2662159   2660419   2658735   2657216  
  5410.000000   2655932   2654935   2654196   2653669   2653274  
  5400.000000   2652971   2652729   2652576   2652524   2652613  
  5390.000000   2652832   2653191   2653660   2654264   2655012  
  5380.000000   2655970   2657160   2658622   2660319   2662231  
  5370.000000   2664280   2666455   2668715   2671108   2673639  
  5360.000000   2676380   2679327   2682540   2685999   2689780  
  5350.000000   2693888   2698429   2703413   2708928   2714933  
  5340.000000   2721468   2728455   2735940   2743866   2752313  
  5330.000000   2761236   2770710   2780666   2791160   2802124  
  5320.000000   2813653   2825732   2838514   2852004   2866354  
  5310.000000   2881521   2897594   2914472   2932216   2950737  
  5300.000000   2970129   2990353   3011553   3033722   3057003  
  5290.000000   3081357   3106843   3133319   3160721   3188830  
  5280.000000   3217560   3246769   3276503   3306783   3337760  
  5270.000000   3369482   3401978   3435103   3468642   3502319  
  5260.000000   3535904   3569286   3602454   3635516   3668522  
  5250.000000   3701505   3734288   3766672   3798300   3828985  
  5240.000000   3858518   3886979   3914398   3941024   3966914  
  5230.000000   3992233   4016876   4040839   4063891   4085998  
  5220.000000   4106986   4126949   4145853   4163909   4181139  
  5210.000000   4197730   4213619   4228859   4243259   4256799  
  5200.000000   4269300   4280837   4291365   4301073   4309977  
  5190.000000   4318241   4325806   4332736   4338902   4344349  
  5180.000000   4348988   4352924   4356128   4358720   4360654  
  5170.000000   4362006   4362704   4362820   4362322   4361321  
  5160.000000   4359815   4357908   4355559   4352811   4349590  
  5150.000000   4345932   4341800   4337278   4332376   4327182  
  5140.000000   4321688   4315936   4309884   4303563   4296955  
  5130.000000   4290123   4283088   4275922   4268634   4261263  
  5120.000000   4253792   4246241   4238599   4230901   4223152  
  5110.000000   4215386   4207594   4199783   4191925   4184026  
  5100.000000   4176075   4168099   4160114   4152149   4144207  
  5090.000000   4136293   4128386   4120474   4112535   4104570  
  5080.000000   4096564   4088520   4080423   4072268   4064042  
  5070.000000   4055757   4047421   4039068   4030721   4022404  
  5060.000000   4014113   4005834   3997529   3989167   3980721  
  5050.000000   3972187   3963578   3954927   3946268   3937636  
  5040.000000   3929053   3920530   3912066   3903652   3895282  
  5030.000000   3886947   3878649   3870391   3862196   3854081  
  5020.000000   3846080   3838213   3830508   3822962   3815583  
  5010.000000   3808344   3801241   3794244   3787366   3780595  
  5000.000000   3773968   3767489   3761206   3755122   3749281  
  4990.000000   3743677   3738350   3733290   3728537   3724072  
  4980.000000   3719932   3716085   3712563   3709332   3706431  
  4970.000000   3703833   3701592   3699688   3698178   3697037  
  4960.000000   3696315   3695978   3696071   3696559   3697489  
  4950.000000   3698822   3700597   3702763   3705345   3708282  
  4940.000000   3711594   3715225   3719203   3723484   3728101  
  4930.000000   3733011   3738248   3743771   3749620   3755766  
  4920.000000   3762254   3769063   3776228   3783714   3791533  
  4910.000000   3799635   3808021   3816649   3825526   3834625  
  4900.000000   3843960   3853504   3863259   3873189   3883277  
  4890.000000   3893485   3903783   3914132   3924494   3934829  
  4880.000000   3945093   3955256   3965279   3975144   3984817  
  4870.000000   3994285   4003505   4012458   4021099   4029425  
  4860.000000   4037414   4045100   4052494   4059654   4066592  
  4850.000000   4073359   4079946   4086379   4092636   4098738  
  4840.000000   4104660   4110427   4116016   4121450   4126705  
  4830.000000   4131801   4136720   4141482   4146075   4150516  
  4820.000000   4154788   4158903   4162840   4166612   4170208  
  4810.000000   4173648   4176931   4180078   4183088   4185981  
  4800.000000   4188760   4191455   4194082   4196680   4199264  
  4790.000000   4201857   4204446   4207021   4209548   4212016  
  4780.000000   4214409   4216745   4219037   4221320   4223597  
  4770.000000   4225877   4228126   4230316   4232395   4234338  
  4760.000000   4236106   4237701   4239108   4240347   4241405  
  4750.000000   4242301   4243016   4243561   4243911   4244071  
  4740.000000   4244016   4243755   4243270   4242583   4241688  
  4730.000000   4240618   4239374   4237983   4236438   4234754  
  4720.000000   4232923   4230961   4228874   4226697   4224455  
  4710.000000   4222191   4219928   4217695   4215498   4213344  
  4700.000000   4211228   4209148   4207097   4205075   4203079  
  4690.000000   4201110   4199173   4197273   4195421   4193623  
  4680.000000   4191883   4190190   4188526   4186854   4185141  
  4670.000000   4183349   4181468   4179491   4177453   4175385  
  4660.000000   4173346   4171376   4169526   4167823   4166296  
  4650.000000   4164956   4163816   4162876   4162132   4161567  
  4640.000000   4161164   4160890   4160724   4160635   4160606  
  4630.000000   4160609   4160624   4160619   4160568   4160441  
  4620.000000   4160222   4159905   4159503   4159034   4158524  
  4610.000000   4157991   4157442   4156876   4156280   4155654  
  4600.000000   4154997   4154329   4153668   4153042   4152460  
  4590.000000   4151926   4151413   4150894   4150327   4149683  
  4580.000000   4148933   4148074   4147101   4146034   4144880  
  4570.000000   4143661   4142380   4141051   4139664   4138223  
  4560.000000   4136712   4135128   4133461   4131715   4129888  
  4550.000000   4127995   4126039   4124033   4121978   4119879  
  4540.000000   4117735   4115551   4113338   4111108   4108888  
  4530.000000   4106692   4104550   4102470   4100480   4098578  
  4520.000000   4096797   4095133   4093628   4092275   4091126  
  4510.000000   4090171   4089480   4089056   4088993   4089311  
  4500.000000   4090118   4091429   4093339   4095832   4098983  
  4490.000000   4102751   4107207   4112314   4118150   4124679  
  4480.000000   4131970   4139969   4148718   4158140   4168259  
  4470.000000   4178990   4190350   4202257   4214720   4227650  
  4460.000000   4241043   4254809   4268930   4283321   4297960  
  4450.000000   4312770   4327721   4342749   4357826   4372905  
  4440.000000   4387967   4402993   4417965   4432890   4447743  
  4430.000000   4462543   4477250   4491880   4506362   4520694  
  4420.000000   4534760   4548529   4561850   4574681   4586866  
  4410.000000   4598372   4609058   4618907   4627789   4635699  
  4400.000000   4642532   4648314   4652996   4656668   4659358  
  4390.000000   4661223   4662355   4662940   4663093   4662986  
  4380.000000   4662718   4662424   4662179   4662079   4662187  
  4370.000000   4662584   4663337   4664521   4666209   4668456  
  4360.000000   4671315   4674791   4678878   4683517   4688631  
  4350.000000   4694121   4699882   4705831   4711897   4718050  
  4340.000000   4724262   4730513   4736738   4742825   4748575  
  4330.000000   4753739   4758025   4761176   4763010   4763504  
  4320.000000   4762783   4761157   4759009   4756788   4754848  
  4310.000000   4753472   4752750   4752683   4753126   4753934  
  4300.000000   4754925   4755987   4757030   4758024   4758957  
  4290.000000   4759834   4760669   4761475   4762274   4763093  
  4280.000000   4763956   4764896   4765920   4767050   4768268  
  4270.000000   4769581   4770944   4772323   4773615   4774702  
  4260.000000   4775400   4775534   4774923   4773469   4771145  
  4250.000000   4768052   4764358   4760317   4756162   4752122  
  4240.000000   4748328   4744865   4741717   4738852   4736182  
  4230.000000   4733647   4731170   4728704   4726201   4723626  
  4220.000000   4720963   4718197   4715349   4712435   4709517  
  4210.000000   4706632   4703852   4701218   4698792   4696598  
  4200.000000   4694679   4693038   4691692   4690605   4689770  
  4190.000000   4689123   4688650   4688291   4688067   4687948  
  4180.000000   4687998   4688217   4688693   4689440   4690559  
  4170.000000   4692079   4694120   4696715   4699972   4703887  
  4160.000000   4708509   4713763   4719637   4726013   4732875  
  4150.000000   4740125   4747791   4755815   4764262   4773100  
  4140.000000   4782410   4792174   4802484   4813329   4824789  
  4130.000000   4836829   4849484   4862674   4876392   4890542  
  4120.000000   4905125   4920082   4935454   4951221   4967438  
  4110.000000   4984083   5001184   5018688   5036588   5054811  
  4100.000000   5073333   5092086   5111046   5130165   5149431  
  4090.000000   5168821   5188332   5207958   5227692   5247533  
  4080.000000   5267462   5287484   5307570   5327727   5347906  
  4070.000000   5368096   5388214   5408229   5428036   5447615  
  4060.000000   5466869   5485802   5504318   5522424   5540004  
  4050.000000   5557068   5573504   5589361   5604557   5619168  
  4040.000000   5633098   5646392   5658891   5670606   5681368  
  4030.000000   5691222   5700053   5707950   5714830   5720760  
  4020.000000   5725606   5729418   5732134   5733842   5734488  
  4010.000000   5734266   5733288   5731641   5729121   5725847  
  4000.000000   5722191  
##END= 
