##TITLE= Sample 016 By ssteindl date Donnerstag, November 22 2018
##JCAMP-DX= 4.24
##DATA TYPE= INFRARED SPECTRUM
##ORIGIN= Exported PE Spectrum Data File
##OWNER= Sandra Steindl
##DATE= 18/11/22
##TIME= 10:41:38.00
##SPECTROMETER/DATA SYSTEM= PERKIN-ELMER Frontier FT-IR/NIR IR
##INSTRUMENT PARAMETERS=
  APODIZATION=stark
  DETECTOR=INGAAS
##RESOLUTION= 16.000000
##DELTAX= -2.000000
##XUNITS= 1/CM
##YUNITS= A
##XFACTOR= 1.00
##YFACTOR= 0.00000011920928955078
##FIRSTX= 10000.00
##LASTX= 4000.00
##NPOINTS= 3001
##FIRSTY= 0.206693
##MAXY= 0.602068
##MINY= 0.177326
##XYDATA= (X++(Y..Y))
 10000.000000   1733868   1730906   1728306   1726387   1724945  
  9990.000000   1723675   1722752   1722827   1724522   1728128  
  9980.000000   1733465   1739786   1745828   1750178   1751814  
  9970.000000   1750418   1746483   1741059   1735393   1730441  
  9960.000000   1726637   1723860   1721659   1719554   1717251  
  9950.000000   1714744   1712203   1709855   1707820   1706143  
  9940.000000   1704796   1703800   1703221   1703126   1703532  
  9930.000000   1704289   1705180   1705944   1706475   1706823  
  9920.000000   1707177   1707684   1708322   1708827   1708843  
  9910.000000   1708108   1706691   1705039   1703836   1703715  
  9900.000000   1704922   1707180   1709723   1711644   1712253  
  9890.000000   1711410   1709547   1707475   1705968   1705415  
  9880.000000   1705663   1706113   1706099   1705144   1703260  
  9870.000000   1700782   1698246   1696031   1694218   1692628  
  9860.000000   1690961   1689141   1687399   1686370   1686816  
  9850.000000   1689392   1694297   1701172   1709101   1716826  
  9840.000000   1723036   1726608   1726897   1723772   1717726  
  9830.000000   1709710   1700999   1692919   1686539   1682489  
  9820.000000   1680785   1680980   1682283   1683959   1685427  
  9810.000000   1686495   1687165   1687564   1687715   1687464  
  9800.000000   1686583   1684839   1682249   1679022   1675570  
  9790.000000   1672259   1669319   1666745   1664433   1662306  
  9780.000000   1660477   1659209   1658797   1659323   1660515  
  9770.000000   1661758   1662330   1661749   1660069   1657952  
  9760.000000   1656447   1656579   1658890   1663219   1668694  
  9750.000000   1674109   1678299   1680581   1680862   1679565  
  9740.000000   1677345   1674751   1672094   1669350   1666372  
  9730.000000   1662948   1658982   1654432   1649333   1643783  
  9720.000000   1637983   1632412   1627738   1624876   1624593  
  9710.000000   1627339   1632914   1640495   1648819   1656528  
  9700.000000   1662556   1666298   1667675   1666892   1664306  
  9690.000000   1660204   1654921   1648883   1642777   1637472  
  9680.000000   1633777   1632150   1632389   1633714   1634988  
  9670.000000   1635265   1634132   1631904   1629398   1627488  
  9660.000000   1626686   1626832   1627294   1627242   1626241  
  9650.000000   1624448   1622652   1621851   1622721   1625289  
  9640.000000   1628853   1632414   1635159   1636907   1638164  
  9630.000000   1639773   1642393   1645988   1649762   1652425  
  9620.000000   1652816   1650427   1645677   1639760   1634132  
  9610.000000   1629996   1627832   1627455   1628202   1629442  
  9600.000000   1630818   1632336   1634134   1636159   1637975  
  9590.000000   1638788   1637812   1634640   1629595   1623652  
  9580.000000   1618166   1614333   1612792   1613471   1615718  
  9570.000000   1618710   1621772   1624620   1627276   1629878  
  9560.000000   1632416   1634632   1636060   1636267   1635064  
  9550.000000   1632676   1629676   1626790   1624638   1623516  
  9540.000000   1623347   1623757   1624215   1624188   1623212  
  9530.000000   1620941   1617179   1611946   1605585   1598783  
  9520.000000   1592543   1587936   1585805   1586450   1589454  
  9510.000000   1593812   1598214   1601544   1603218   1603371  
  9500.000000   1602743   1602322   1602955   1604944   1607948  
  9490.000000   1611050   1613148   1613328   1611250   1607224  
  9480.000000   1602121   1597061   1593045   1590700   1590076  
  9470.000000   1590716   1591782   1592404   1591968   1590377  
  9460.000000   1588033   1585716   1584208   1584037   1585236  
  9450.000000   1587362   1589685   1591422   1592053   1591403  
  9440.000000   1589674   1587246   1584513   1581705   1578925  
  9430.000000   1576192   1573621   1571414   1569852   1569125  
  9420.000000   1569207   1569840   1570598   1571158   1571447  
  9410.000000   1571767   1572634   1574544   1577673   1581714  
  9400.000000   1585945   1589428   1591389   1591451   1589770  
  9390.000000   1586896   1583523   1580219   1577274   1574746  
  9380.000000   1572576   1570784   1569494   1568920   1569164  
  9370.000000   1570101   1571284   1572115   1572052   1570871  
  9360.000000   1568768   1566267   1564026   1562522   1561910  
  9350.000000   1561979   1562311   1562507   1562349   1561883  
  9340.000000   1561327   1560944   1560881   1561121   1561470  
  9330.000000   1561678   1561528   1560897   1559780   1558214  
  9320.000000   1556316   1554210   1552094   1550158   1548555  
  9310.000000   1547308   1546291   1545252   1543940   1542255  
  9300.000000   1540392   1538863   1538338   1539400   1542208  
  9290.000000   1546415   1551186   1555522   1558595   1560076  
  9280.000000   1560229   1559751   1559405   1559634   1560335  
  9270.000000   1560929   1560640   1558848   1555382   1550618  
  9260.000000   1545336   1540421   1536487   1533746   1531963  
  9250.000000   1530679   1529398   1527818   1525916   1523882  
  9240.000000   1522020   1520574   1519696   1519377   1519519  
  9230.000000   1519918   1520387   1520734   1520880   1520818  
  9220.000000   1520674   1520676   1521107   1522217   1524103  
  9210.000000   1526650   1529574   1532501   1535122   1537236  
  9200.000000   1538778   1539754   1540160   1539948   1539016  
  9190.000000   1537334   1535021   1532462   1530211   1528845  
  9180.000000   1528705   1529768   1531600   1533474   1534599  
  9170.000000   1534411   1532760   1529919   1526405   1522805  
  9160.000000   1519603   1517135   1515568   1514977   1515370  
  9150.000000   1516719   1518879   1521513   1524067   1525894  
  9140.000000   1526462   1525518   1523194   1519935   1516394  
  9130.000000   1513150   1510573   1508722   1507442   1506519  
  9120.000000   1505804   1505302   1505097   1505294   1505894  
  9110.000000   1506763   1507672   1508372   1508718   1508661  
  9100.000000   1508269   1507602   1506712   1505627   1504423  
  9090.000000   1503267   1502425   1502224   1502927   1504593  
  9080.000000   1506979   1509594   1511848   1513251   1513560  
  9070.000000   1512857   1511500   1509969   1508678   1507873  
  9060.000000   1507598   1507762   1508189   1508721   1509209  
  9050.000000   1509548   1509624   1509340   1508634   1507525  
  9040.000000   1506142   1504644   1503185   1501782   1500349  
  9030.000000   1498689   1496639   1494193   1491582   1489261  
  9020.000000   1487757   1487516   1488725   1491251   1494655  
  9010.000000   1498353   1501786   1504541   1506424   1507410  
  9000.000000   1507631   1507265   1506528   1505622   1504753  
  8990.000000   1504083   1503702   1503599   1503647   1503666  
  8980.000000   1503471   1502997   1502300   1501576   1501025  
  8970.000000   1500772   1500769   1500828   1500701   1500212  
  8960.000000   1499366   1498348   1497471   1497007   1497082  
  8950.000000   1497567   1498171   1498520   1498365   1497645  
  8940.000000   1496543   1495380   1494510   1494196   1494558  
  8930.000000   1495594   1497237   1499419   1502082   1505145  
  8920.000000   1508451   1511747   1514695   1516958   1518293  
  8910.000000   1518651   1518201   1517277   1516267   1515486  
  8900.000000   1515086   1515036   1515153   1515191   1514913  
  8890.000000   1514175   1512941   1511291   1509374   1507408  
  8880.000000   1505606   1504181   1503276   1502976   1503278  
  8870.000000   1504118   1505360   1506844   1508392   1509840  
  8860.000000   1511027   1511809   1512076   1511762   1510915  
  8850.000000   1509648   1508180   1506712   1505419   1504329  
  8840.000000   1503355   1502308   1501024   1499456   1497748  
  8830.000000   1496242   1495376   1495555   1496977   1499584  
  8820.000000   1503048   1506886   1510596   1513797   1516325  
  8810.000000   1518204   1519595   1520650   1521464   1522002  
  8800.000000   1522175   1521854   1520993   1519642   1517962  
  8790.000000   1516204   1514606   1513406   1512733   1512671  
  8780.000000   1513199   1514251   1515707   1517405   1519154  
  8770.000000   1520725   1521902   1522482   1522365   1521544  
  8760.000000   1520181   1518538   1516983   1515874   1515501  
  8750.000000   1516007   1517347   1519339   1521689   1524128  
  8740.000000   1526452   1528594   1530588   1532513   1534412  
  8730.000000   1536210   1537736   1538730   1538996   1538434  
  8720.000000   1537154   1535421   1533621   1532132   1531230  
  8710.000000   1531031   1531487   1532452   1533746   1535232  
  8700.000000   1536840   1538554   1540395   1542365   1544457  
  8690.000000   1546621   1548816   1550983   1553094   1555118  
  8680.000000   1557039   1558849   1560555   1562200   1563851  
  8670.000000   1565604   1567539   1569689   1572000   1574313  
  8660.000000   1576391   1577972   1578847   1578924   1578263  
  8650.000000   1577081   1575709   1574523   1573844   1573896  
  8640.000000   1574739   1576290   1578329   1580570   1582722  
  8630.000000   1584566   1585981   1586967   1587607   1588034  
  8620.000000   1588383   1588754   1589208   1589766   1590435  
  8610.000000   1591227   1592164   1593258   1594483   1595758  
  8600.000000   1596961   1597934   1598552   1598736   1598533  
  8590.000000   1598054   1597488   1597032   1596874   1597157  
  8580.000000   1597951   1599310   1601249   1603792   1606901  
  8570.000000   1610513   1614483   1618620   1622650   1626283  
  8560.000000   1629247   1631315   1632360   1632345   1631385  
  8550.000000   1629676   1627504   1625170   1622964   1621110  
  8540.000000   1619706   1618771   1618233   1618049   1618183  
  8530.000000   1618701   1619697   1621282   1623476   1626171  
  8520.000000   1629121   1631975   1634398   1636132   1637105  
  8510.000000   1637402   1637258   1636937   1636678   1636613  
  8500.000000   1636778   1637122   1637572   1638064   1638561  
  8490.000000   1639054   1639530   1639978   1640363   1640675  
  8480.000000   1640932   1641205   1641602   1642238   1643215  
  8470.000000   1644556   1646216   1648058   1649917   1651602  
  8460.000000   1652965   1653899   1654396   1654525   1654451  
  8450.000000   1654386   1654562   1655178   1656338   1658039  
  8440.000000   1660150   1662485   1664834   1667052   1669060  
  8430.000000   1670860   1672483   1673934   1675158   1676027  
  8420.000000   1676406   1676192   1675402   1674170   1672740  
  8410.000000   1671409   1670433   1669990   1670124   1670793  
  8400.000000   1671876   1673243   1674755   1676295   1677754  
  8390.000000   1679038   1680072   1680810   1681260   1681472  
  8380.000000   1681527   1681496   1681419   1681298   1681116  
  8370.000000   1680872   1680599   1680382   1680315   1680476  
  8360.000000   1680858   1681374   1681861   1682162   1682184  
  8350.000000   1681950   1681583   1681262   1681141   1681282  
  8340.000000   1681634   1682052   1682380   1682506   1682414  
  8330.000000   1682171   1681885   1681647   1681490   1681391  
  8320.000000   1681300   1681190   1681093   1681094   1681284  
  8310.000000   1681707   1682315   1682972   1683490   1683714  
  8300.000000   1683574   1683129   1682548   1682038   1681769  
  8290.000000   1681803   1682083   1682449   1682702   1682668  
  8280.000000   1682260   1681504   1680530   1679535   1678722  
  8270.000000   1678262   1678239   1678642   1679347   1680178  
  8260.000000   1680929   1681457   1681703   1681725   1681660  
  8250.000000   1681676   1681883   1682269   1682682   1682863  
  8240.000000   1682549   1681558   1679873   1677656   1675199  
  8230.000000   1672852   1670901   1669517   1668704   1668354  
  8220.000000   1668285   1668325   1668338   1668243   1667998  
  8210.000000   1667585   1667004   1666268   1665416   1664510  
  8200.000000   1663628   1662839   1662178   1661632   1661148  
  8190.000000   1660668   1660152   1659604   1659048   1658508  
  8180.000000   1657958   1657314   1656446   1655227   1653584  
  8170.000000   1651554   1649285   1647017   1645000   1643434  
  8160.000000   1642395   1641839   1641611   1641517   1641366  
  8150.000000   1641013   1640377   1639427   1638183   1636692  
  8140.000000   1635029   1633293   1631600   1630068   1628793  
  8130.000000   1627829   1627171   1626770   1626546   1626418  
  8120.000000   1626312   1626160   1625894   1625428   1624678  
  8110.000000   1623563   1622067   1620235   1618207   1616176  
  8100.000000   1614351   1612907   1611931   1611434   1611339  
  8090.000000   1611546   1611946   1612449   1612964   1613381  
  8080.000000   1613567   1613365   1612656   1611389   1609644  
  8070.000000   1607610   1605571   1603811   1602540   1601841  
  8060.000000   1601645   1601783   1602034   1602220   1602233  
  8050.000000   1602072   1601793   1601480   1601185   1600900  
  8040.000000   1600564   1600072   1599334   1598283   1596924  
  8030.000000   1595317   1593577   1591844   1590244   1588875  
  8020.000000   1587770   1586911   1586232   1585649   1585095  
  8010.000000   1584532   1583968   1583430   1582943   1582501  
  8000.000000   1582058   1581544   1580899   1580116   1579265  
  7990.000000   1578487   1577952   1577788   1578028   1578567  
  7980.000000   1579188   1579611   1579590   1578981   1577794  
  7970.000000   1576181   1574395   1572706   1571338   1570424  
  7960.000000   1570000   1570009   1570342   1570857   1571404  
  7950.000000   1571839   1572046   1571953   1571556   1570928  
  7940.000000   1570215   1569597   1569245   1569266   1569668  
  7930.000000   1570365   1571200   1572006   1572654   1573089  
  7920.000000   1573317   1573391   1573355   1573227   1572984  
  7910.000000   1572585   1572012   1571288   1570494   1569743  
  7900.000000   1569135   1568723   1568485   1568340   1568180  
  7890.000000   1567921   1567539   1567078   1566629   1566295  
  7880.000000   1566136   1566161   1566317   1566529   1566730  
  7870.000000   1566887   1567010   1567127   1567256   1567369  
  7860.000000   1567393   1567224   1566764   1565974   1564890  
  7850.000000   1563638   1562390   1561334   1560606   1560272  
  7840.000000   1560306   1560613   1561050   1561464   1561720  
  7830.000000   1561710   1561375   1560699   1559725   1558539  
  7820.000000   1557274   1556075   1555075   1554357   1553941  
  7810.000000   1553777   1553765   1553794   1553772   1553660  
  7800.000000   1553462   1553219   1552973   1552747   1552524  
  7790.000000   1552264   1551916   1551450   1550865   1550194  
  7780.000000   1549487   1548794   1548145   1547543   1546968  
  7770.000000   1546379   1545732   1544982   1544097   1543059  
  7760.000000   1541880   1540611   1539342   1538199   1537315  
  7750.000000   1536796   1536686   1536940   1537429   1537966  
  7740.000000   1538363   1538469   1538222   1537652   1536866  
  7730.000000   1536008   1535226   1534628   1534271   1534160  
  7720.000000   1534252   1534472   1534726   1534907   1534916  
  7710.000000   1534677   1534155   1533369   1532398   1531356  
  7700.000000   1530369   1529539   1528920   1528508   1528248  
  7690.000000   1528073   1527918   1527752   1527579   1527420  
  7680.000000   1527296   1527205   1527115   1526970   1526719  
  7670.000000   1526323   1525787   1525146   1524466   1523819  
  7660.000000   1523263   1522838   1522550   1522383   1522307  
  7650.000000   1522281   1522268   1522229   1522135   1521951  
  7640.000000   1521657   1521235   1520693   1520058   1519397  
  7630.000000   1518801   1518381   1518241   1518453   1519032  
  7620.000000   1519926   1521025   1522182   1523251   1524117  
  7610.000000   1524720   1525067   1525201   1525197   1525111  
  7600.000000   1524986   1524829   1524640   1524412   1524153  
  7590.000000   1523884   1523639   1523456   1523364   1523387  
  7580.000000   1523537   1523825   1524256   1524832   1525551  
  7570.000000   1526395   1527342   1528351   1529385   1530399  
  7560.000000   1531357   1532214   1532939   1533500   1533894  
  7550.000000   1534148   1534340   1534581   1534997   1535689  
  7540.000000   1536697   1537981   1539428   1540876   1542171  
  7530.000000   1543209   1543973   1544530   1545007   1545542  
  7520.000000   1546249   1547190   1548375   1549763   1551296  
  7510.000000   1552897   1554495   1556006   1557355   1558470  
  7500.000000   1559311   1559886   1560273   1560599   1561027  
  7490.000000   1561703   1562734   1564147   1565899   1567878  
  7480.000000   1569952   1571984   1573881   1575580   1577070  
  7470.000000   1578367   1579537   1580655   1581831   1583166  
  7460.000000   1584762   1586683   1588955   1591545   1594377  
  7450.000000   1597342   1600325   1603222   1605955   1608474  
  7440.000000   1610768   1612851   1614769   1616580   1618361  
  7430.000000   1620176   1622080   1624092   1626197   1628349  
  7420.000000   1630484   1632554   1634533   1636440   1638322  
  7410.000000   1640251   1642290   1644480   1646822   1649277  
  7400.000000   1651777   1654237   1656585   1658764   1660756  
  7390.000000   1662569   1664251   1665862   1667468   1669121  
  7380.000000   1670850   1672660   1674543   1676490   1678507  
  7370.000000   1680631   1682907   1685384   1688073   1690939  
  7360.000000   1693894   1696813   1699568   1702060   1704254  
  7350.000000   1706177   1707908   1709548   1711191   1712903  
  7340.000000   1714705   1716600   1718571   1720617   1722728  
  7330.000000   1724909   1727140   1729392   1731608   1733731  
  7320.000000   1735704   1737497   1739107   1740561   1741908  
  7310.000000   1743209   1744514   1745857   1747238   1748633  
  7300.000000   1749987   1751245   1752356   1753309   1754131  
  7290.000000   1754897   1755695   1756612   1757687   1758912  
  7280.000000   1760223   1761533   1762756   1763841   1764789  
  7270.000000   1765638   1766438   1767225   1768005   1768746  
  7260.000000   1769416   1769993   1770502   1771005   1771593  
  7250.000000   1772345   1773310   1774485   1775833   1777296  
  7240.000000   1778840   1780445   1782135   1783916   1785792  
  7230.000000   1787714   1789627   1791457   1793184   1794819  
  7220.000000   1796454   1798185   1800127   1802340   1804849  
  7210.000000   1807617   1810593   1813702   1816905   1820163  
  7200.000000   1823476   1826832   1830243   1833697   1837215  
  7190.000000   1840799   1844487   1848284   1852206   1856221  
  7180.000000   1860293   1864365   1868416   1872444   1876511  
  7170.000000   1880684   1885054   1889655   1894490   1899485  
  7160.000000   1904554   1909589   1914533   1919368   1924145  
  7150.000000   1928938   1933853   1938965   1944334   1949956  
  7140.000000   1955803   1961792   1967848   1973878   1979838  
  7130.000000   1985692   1991468   1997201   2002978   2008869  
  7120.000000   2014961   2021295   2027901   2034753   2041815  
  7110.000000   2049011   2056281   2063552   2070796   2077992  
  7100.000000   2085177   2092397   2099731   2107230   2114937  
  7090.000000   2122830   2130865   2138956   2147036   2155051  
  7080.000000   2163006   2170935   2178905   2186966   2195142  
  7070.000000   2203407   2211712   2219985   2228183   2236287  
  7060.000000   2244317   2252308   2260296   2268297   2276305  
  7050.000000   2284308   2292282   2300229   2308153   2316076  
  7040.000000   2324003   2331934   2339840   2347685   2355419  
  7030.000000   2363009   2370421   2377640   2384653   2391466  
  7020.000000   2398085   2404548   2410891   2417180   2423456  
  7010.000000   2429762   2436096   2442446   2448762   2455010  
  7000.000000   2461142   2467137   2472969   2478627   2484088  
  6990.000000   2489349   2494413   2499324   2504139   2508942  
  6980.000000   2513791   2518726   2523720   2528726   2533663  
  6970.000000   2538483   2543152   2547692   2552117   2556453  
  6960.000000   2560671   2564737   2568585   2572193   2575568  
  6950.000000   2578783   2581917   2585051   2588195   2591311  
  6940.000000   2594294   2597051   2599510   2601685   2603643  
  6930.000000   2605509   2607393   2609384   2611496   2613712  
  6920.000000   2615968   2618218   2620412   2622541   2624593  
  6910.000000   2626577   2628485   2630317   2632063   2633722  
  6900.000000   2635284   2636743   2638086   2639306   2640410  
  6890.000000   2641434   2642430   2643472   2644611   2645870  
  6880.000000   2647220   2648600   2649935   2651180   2652329  
  6870.000000   2653429   2654541   2655724   2656989   2658303  
  6860.000000   2659605   2660837   2661977   2663043   2664076  
  6850.000000   2665111   2666143   2667121   2667968   2668625  
  6840.000000   2669085   2669422   2669760   2670239   2670949  
  6830.000000   2671902   2673017   2674166   2675212   2676071  
  6820.000000   2676721   2677207   2677594   2677947   2678290  
  6810.000000   2678628   2678943   2679233   2679507   2679790  
  6800.000000   2680090   2680394   2680649   2680798   2680785  
  6790.000000   2680602   2680279   2679890   2679507   2679185  
  6780.000000   2678931   2678713   2678474   2678166   2677762  
  6770.000000   2677276   2676736   2676189   2675664   2675185  
  6760.000000   2674757   2674386   2674073   2673823   2673622  
  6750.000000   2673451   2673263   2673015   2672664   2672196  
  6740.000000   2671620   2670973   2670295   2669618   2668943  
  6730.000000   2668248   2667484   2666605   2665570   2664373  
  6720.000000   2663033   2661606   2660163   2658789   2657544  
  6710.000000   2656468   2655550   2654745   2653973   2653156  
  6700.000000   2652230   2651180   2650031   2648847   2647686  
  6690.000000   2646592   2645557   2644538   2643470   2642300  
  6680.000000   2641004   2639605   2638145   2636679   2635233  
  6670.000000   2633810   2632383   2630926   2629425   2627895  
  6660.000000   2626364   2624862   2623393   2621936   2620443  
  6650.000000   2618875   2617212   2615474   2613704   2611959  
  6640.000000   2610267   2608629   2607010   2605367   2603667  
  6630.000000   2601907   2600108   2598303   2596509   2594717  
  6620.000000   2592888   2590978   2588960   2586844   2584681  
  6610.000000   2582545   2580503   2578592   2576804   2575098  
  6600.000000   2573412   2571694   2569913   2568064   2566160  
  6590.000000   2564219   2562262   2560308   2558379   2556498  
  6580.000000   2554686   2552948   2551269   2549607   2547908  
  6570.000000   2546125   2544241   2542281   2540309   2538406  
  6560.000000   2536646   2535068   2533670   2532407   2531216  
  6550.000000   2530031   2528807   2527512   2526137   2524677  
  6540.000000   2523145   2521558   2519958   2518396   2516933  
  6530.000000   2515611   2514450   2513422   2512473   2511535  
  6520.000000   2510556   2509518   2508446   2507389   2506400  
  6510.000000   2505503   2504683   2503889   2503058   2502132  
  6500.000000   2501095   2499963   2498792   2497646   2496579  
  6490.000000   2495626   2494788   2494046   2493364   2492705  
  6480.000000   2492035   2491326   2490560   2489726   2488828  
  6470.000000   2487878   2486896   2485908   2484938   2484004  
  6460.000000   2483118   2482285   2481506   2480782   2480110  
  6450.000000   2479482   2478883   2478290   2477673   2477004  
  6440.000000   2476262   2475436   2474529   2473548   2472509  
  6430.000000   2471429   2470333   2469253   2468229   2467302  
  6420.000000   2466506   2465855   2465335   2464907   2464518  
  6410.000000   2464118   2463673   2463180   2462658   2462138  
  6400.000000   2461645   2461187   2460753   2460315   2459849  
  6390.000000   2459335   2458770   2458161   2457525   2456873  
  6380.000000   2456215   2455556   2454902   2454263   2453650  
  6370.000000   2453074   2452534   2452020   2451510   2450981  
  6360.000000   2450415   2449807   2449169   2448525   2447901  
  6350.000000   2447322   2446800   2446338   2445923   2445533  
  6340.000000   2445132   2444679   2444128   2443446   2442615  
  6330.000000   2441649   2440584   2439481   2438396   2437378  
  6320.000000   2436441   2435577   2434748   2433919   2433054  
  6310.000000   2432143   2431180   2430169   2429101   2427963  
  6300.000000   2426727   2425380   2423915   2422359   2420743  
  6290.000000   2419108   2417476   2415858   2414233   2412583  
  6280.000000   2410887   2409144   2407363   2405565   2403760  
  6270.000000   2401948   2400108   2398213   2396233   2394158  
  6260.000000   2391992   2389763   2387502   2385244   2383013  
  6250.000000   2380828   2378692   2376612   2374580   2372587  
  6240.000000   2370611   2368626   2366599   2364503   2362317  
  6230.000000   2360039   2357679   2355256   2352793   2350309  
  6220.000000   2347818   2345331   2342857   2340404   2337977  
  6210.000000   2335582   2333211   2330861   2328522   2326191  
  6200.000000   2323872   2321575   2319313   2317092   2314908  
  6190.000000   2312747   2310590   2308419   2306227   2304019  
  6180.000000   2301810   2299614   2297446   2295311   2293211  
  6170.000000   2291144   2289110   2287112   2285156   2283238  
  6160.000000   2281355   2279494   2277642   2275791   2273945  
  6150.000000   2272115   2270317   2268563   2266857   2265192  
  6140.000000   2263553   2261920   2260283   2258628   2256954  
  6130.000000   2255254   2253527   2251771   2249998   2248227  
  6120.000000   2246496   2244844   2243309   2241902   2240614  
  6110.000000   2239408   2238239   2237060   2235853   2234616  
  6100.000000   2233381   2232178   2231041   2229979   2228990  
  6090.000000   2228055   2227163   2226304   2225495   2224755  
  6080.000000   2224115   2223588   2223183   2222883   2222665  
  6070.000000   2222488   2222323   2222131   2221898   2221607  
  6060.000000   2221268   2220893   2220515   2220166   2219892  
  6050.000000   2219723   2219693   2219814   2220095   2220524  
  6040.000000   2221087   2221752   2222489   2223256   2224025  
  6030.000000   2224767   2225480   2226172   2226873   2227609  
  6020.000000   2228409   2229280   2230220   2231207   2232222  
  6010.000000   2233247   2234284   2235335   2236413   2237519  
  6000.000000   2238646   2239772   2240878   2241943   2242968  
  5990.000000   2243962   2244950   2245955   2247001   2248095  
  5980.000000   2249246   2250454   2251730   2253081   2254525  
  5970.000000   2256062   2257693   2259395   2261149   2262928  
  5960.000000   2264721   2266520   2268338   2270178   2272050  
  5950.000000   2273948   2275868   2277798   2279737   2281691  
  5940.000000   2283676   2285711   2287815   2289995   2292253  
  5930.000000   2294577   2296949   2299349   2301753   2304138  
  5920.000000   2306480   2308759   2310962   2313085   2315135  
  5910.000000   2317126   2319077   2321003   2322915   2324819  
  5900.000000   2326722   2328634   2330573   2332561   2334617  
  5890.000000   2336753   2338962   2341225   2343507   2345774  
  5880.000000   2347994   2350143   2352211   2354192   2356091  
  5870.000000   2357916   2359685   2361420   2363151   2364904  
  5860.000000   2366705   2368558   2370464   2372409   2374389  
  5850.000000   2376405   2378478   2380632   2382893   2385268  
  5840.000000   2387747   2390299   2392893   2395504   2398124  
  5830.000000   2400765   2403445   2406169   2408924   2411668  
  5820.000000   2414346   2416906   2419315   2421576   2423713  
  5810.000000   2425771   2427780   2429763   2431702   2433586  
  5800.000000   2435374   2437061   2438623   2440079   2441414  
  5790.000000   2442638   2443718   2444643   2445370   2445884  
  5780.000000   2446152   2446166   2445902   2445354   2444511  
  5770.000000   2443395   2442038   2440510   2438887   2437261  
  5760.000000   2435707   2434287   2433033   2431965   2431083  
  5750.000000   2430381   2429845   2429453   2429176   2428975  
  5740.000000   2428821   2428688   2428578   2428500   2428485  
  5730.000000   2428543   2428686   2428890   2429132   2429376  
  5720.000000   2429609   2429829   2430064   2430342   2430696  
  5710.000000   2431135   2431657   2432240   2432865   2433513  
  5700.000000   2434179   2434864   2435573   2436306   2437059  
  5690.000000   2437827   2438604   2439397   2440209   2441051  
  5680.000000   2441917   2442793   2443646   2444441   2445131  
  5670.000000   2445689   2446086   2446315   2446370   2446261  
  5660.000000   2445999   2445611   2445123   2444578   2444003  
  5650.000000   2443430   2442862   2442305   2441744   2441181  
  5640.000000   2440614   2440059   2439529   2439030   2438553  
  5630.000000   2438078   2437577   2437033   2436449   2435847  
  5620.000000   2435262   2434724   2434247   2433819   2433406  
  5610.000000   2432970   2432480   2431929   2431328   2430707  
  5600.000000   2430092   2429501   2428935   2428385   2427834  
  5590.000000   2427271   2426683   2426061   2425387   2424643  
  5580.000000   2423803   2422858   2421810   2420687   2419529  
  5570.000000   2418382   2417278   2416232   2415231   2414254  
  5560.000000   2413271   2412264   2411223   2410151   2409053  
  5550.000000   2407938   2406809   2405672   2404533   2403407  
  5540.000000   2402305   2401238   2400206   2399200   2398206  
  5530.000000   2397212   2396216   2395226   2394255   2393314  
  5520.000000   2392398   2391490   2390562   2389588   2388553  
  5510.000000   2387460   2386327   2385179   2384035   2382910  
  5500.000000   2381805   2380722   2379658   2378621   2377610  
  5490.000000   2376621   2375630   2374608   2373515   2372329  
  5480.000000   2371037   2369657   2368212   2366733   2365232  
  5470.000000   2363706   2362134   2360498   2358783   2356997  
  5460.000000   2355152   2353266   2351338   2349362   2347316  
  5450.000000   2345196   2343008   2340791   2338596   2336472  
  5440.000000   2334448   2332520   2330660   2328832   2327009  
  5430.000000   2325184   2323376   2321600   2319879   2318207  
  5420.000000   2316582   2314990   2313450   2311983   2310642  
  5410.000000   2309459   2308463   2307630   2306938   2306337  
  5400.000000   2305816   2305365   2305023   2304813   2304775  
  5390.000000   2304905   2305205   2305640   2306213   2306911  
  5380.000000   2307766   2308783   2309988   2311353   2312872  
  5370.000000   2314492   2316213   2318007   2319913   2321927  
  5360.000000   2324106   2326439   2328975   2331706   2334707  
  5350.000000   2337996   2341676   2345764   2350337   2355356  
  5340.000000   2360844   2366728   2373038   2379723   2386854  
  5330.000000   2394393   2402407   2410837   2419731   2429026  
  5320.000000   2438806   2449059   2459927   2471426   2483700  
  5310.000000   2496716   2510557   2525125   2540465   2556478  
  5300.000000   2573236   2590693   2608973   2628069   2648117  
  5290.000000   2669092   2691064   2713923   2737634   2762016  
  5280.000000   2787008   2812484   2838483   2865013   2892203  
  5270.000000   2920084   2948686   2977880   3007482   3037244  
  5260.000000   3066950   3096478   3125792   3154961   3184024  
  5250.000000   3213011   3241795   3270227   3298025   3325038  
  5240.000000   3351078   3376200   3400407   3423896   3446701  
  5230.000000   3468961   3490585   3511570   3531715   3550987  
  5220.000000   3569229   3586519   3602829   3618351   3633113  
  5210.000000   3647295   3660848   3673827   3686067   3697548  
  5200.000000   3708107   3717800   3726577   3734589   3741839  
  5190.000000   3748466   3754421   3759777   3764449   3768506  
  5180.000000   3771899   3774734   3776984   3778737   3779923  
  5170.000000   3780577   3780612   3780076   3778937   3777300  
  5160.000000   3775174   3772661   3769734   3766440   3762719  
  5150.000000   3758612   3754094   3749248   3744091   3738706  
  5140.000000   3733089   3727285   3721264   3715060   3708663  
  5130.000000   3702130   3695469   3688727   3681887   3674956  
  5120.000000   3667898   3660721   3653420   3646043   3638620  
  5110.000000   3631201   3623798   3616422   3609049   3601669  
  5100.000000   3594260   3586831   3579379   3571923   3564457  
  5090.000000   3556981   3549476   3541939   3534363   3526764  
  5080.000000   3519154   3511555   3503968   3496396   3488821  
  5070.000000   3481236   3473625   3465990   3458327   3450641  
  5060.000000   3442919   3435155   3427333   3419449   3411507  
  5050.000000   3403529   3395545   3387586   3379672   3371815  
  5040.000000   3364007   3356240   3348502   3340792   3333120  
  5030.000000   3325498   3317947   3310478   3303101   3295812  
  5020.000000   3288619   3281515   3274515   3267618   3260846  
  5010.000000   3254196   3247686   3241305   3235070   3228969  
  5000.000000   3223028   3217242   3211646   3206238   3201059  
  4990.000000   3196105   3191421   3187003   3182896   3179087  
  4980.000000   3175615   3172452   3169624   3167094   3164890  
  4970.000000   3162979   3161402   3160132   3159211   3158605  
  4960.000000   3158347   3158397   3158788   3159487   3160541  
  4950.000000   3161927   3163697   3165819   3168328   3171176  
  4940.000000   3174384   3177905   3181763   3185922   3190412  
  4930.000000   3195196   3200295   3205664   3211321   3217224  
  4920.000000   3223398   3229813   3236492   3243400   3250543  
  4910.000000   3257870   3265377   3273023   3280819   3288752  
  4900.000000   3296852   3305120   3313575   3322200   3330980  
  4890.000000   3339872   3348835   3357823   3366798   3375733  
  4880.000000   3384611   3393433   3402196   3410910   3419565  
  4870.000000   3428152   3436630   3444968   3453111   3461032  
  4860.000000   3468700   3476128   3483319   3490315   3497130  
  4850.000000   3503801   3510324   3516720   3522972   3529102  
  4840.000000   3535097   3540984   3546755   3552434   3558000  
  4830.000000   3563465   3568794   3573987   3579004   3583840  
  4820.000000   3588455   3592851   3597003   3600933   3604646  
  4810.000000   3608186   3611574   3614856   3618039   3621145  
  4800.000000   3624152   3627062   3629846   3632512   3635046  
  4790.000000   3637471   3639790   3642032   3644202   3646326  
  4780.000000   3648403   3650449   3652454   3654420   3656319  
  4770.000000   3658142   3659856   3661456   3662921   3664268  
  4760.000000   3665493   3666618   3667635   3668552   3669338  
  4750.000000   3669987   3670459   3670754   3670844   3670742  
  4740.000000   3670431   3669931   3669227   3668338   3667252  
  4730.000000   3665988   3664541   3662932   3661155   3659227  
  4720.000000   3657138   3654903   3652515   3650001   3647372  
  4710.000000   3644668   3641914   3639151   3636397   3633678  
  4700.000000   3630995   3628360   3625763   3623205   3620675  
  4690.000000   3618167   3615664   3613153   3610616   3608039  
  4680.000000   3605411   3602726   3599987   3597198   3594374  
  4670.000000   3591523   3588666   3585813   3582991   3580217  
  4660.000000   3577525   3574937   3572489   3570200   3568097  
  4650.000000   3566186   3564479   3562966   3561644   3560490  
  4640.000000   3559490   3558613   3557844   3557153   3556530  
  4630.000000   3555951   3555411   3554893   3554394   3553898  
  4620.000000   3553402   3552890   3552356   3551789   3551186  
  4610.000000   3550544   3549870   3549175   3548481   3547811  
  4600.000000   3547193   3546651   3546202   3545851   3545593  
  4590.000000   3545416   3545299   3545220   3545155   3545086  
  4580.000000   3544991   3544855   3544661   3544402   3544072  
  4570.000000   3543674   3543211   3542690   3542107   3541462  
  4560.000000   3540741   3539935   3539034   3538039   3536954  
  4550.000000   3535794   3534567   3533284   3531947   3530560  
  4540.000000   3529127   3527661   3526189   3524738   3523345  
  4530.000000   3522026   3520805   3519672   3518639   3517687  
  4520.000000   3516848   3516124   3515576   3515219   3515127  
  4510.000000   3515305   3515825   3516683   3517957   3519645  
  4500.000000   3521835   3524522   3527786   3531604   3536044  
  4490.000000   3541069   3546748   3553046   3560026   3567641  
  4480.000000   3575928   3584806   3594281   3604259   3614741  
  4470.000000   3625648   3636996   3648722   3660835   3673266  
  4460.000000   3686003   3698971   3712145   3725462   3738901  
  4450.000000   3752412   3765971   3779532   3793058   3806515  
  4440.000000   3819870   3833115   3846231   3859234   3872103  
  4430.000000   3884857   3897449   3909887   3922092   3934066  
  4420.000000   3945712   3957030   3967915   3978368   3988271  
  4410.000000   3997618   4006278   4014229   4021337   4027581  
  4400.000000   4032850   4037164   4040474   4042862   4044357  
  4390.000000   4045097   4045161   4044703   4043814   4042635  
  4380.000000   4041250   4039784   4038326   4036994   4035889  
  4370.000000   4035116   4034769   4034917   4035626   4036916  
  4360.000000   4038816   4041308   4044386   4048003   4052118  
  4350.000000   4056662   4061577   4066801   4072295   4078037  
  4340.000000   4084017   4090218   4096583   4102990   4109236  
  4330.000000   4115045   4120101   4124110   4126861   4128293  
  4320.000000   4128504   4127772   4126455   4124977   4123679  
  4310.000000   4122839   4122556   4122853   4123610   4124712  
  4300.000000   4125988   4127337   4128648   4129872   4130954  
  4290.000000   4131863   4132569   4133057   4133333   4133423  
  4280.000000   4133376   4133265   4133155   4133133   4133246  
  4270.000000   4133548   4134032   4134683   4135406   4136091  
  4260.000000   4136563   4136658   4136204   4135096   4133290  
  4250.000000   4130840   4127868   4124565   4121126   4117745  
  4240.000000   4114555   4111648   4109035   4106698   4104574  
  4230.000000   4102602   4100710   4098843   4096949   4094990  
  4220.000000   4092944   4090796   4088565   4086274   4083986  
  4210.000000   4081750   4079642   4077704   4075981   4074476  
  4200.000000   4073196   4072109   4071200   4070423   4069771  
  4190.000000   4069200   4068722   4068310   4068001   4067786  
  4180.000000   4067730   4067838   4068187   4068790   4069734  
  4170.000000   4071043   4072816   4075083   4077945   4081410  
  4160.000000   4085543   4090292   4095668   4101570   4107985  
  4150.000000   4114810   4122059   4129663   4137674   4146058  
  4140.000000   4154890   4164151   4173920   4184174   4194977  
  4130.000000   4206289   4218143   4230475   4243294   4256531  
  4120.000000   4270197   4284244   4298702   4313544   4328805  
  4110.000000   4344453   4360501   4376894   4393616   4410590  
  4100.000000   4427784   4445126   4462592   4480140   4497773  
  4090.000000   4515487   4533301   4551229   4569283   4587474  
  4080.000000   4605795   4624250   4642817   4661494   4680235  
  4070.000000   4699022   4717774   4736461   4754992   4773352  
  4060.000000   4791467   4809347   4826914   4844169   4860999  
  4050.000000   4877392   4893220   4908501   4923135   4937179  
  4040.000000   4950543   4963283   4975283   4986588   4997074  
  4030.000000   5006799   5015647   5023668   5030728   5036833  
  4020.000000   5041800   5045653   5048334   5049957   5050509  
  4010.000000   5050218   5049224   5047614   5045168   5041982  
  4000.000000   5038417  
##END= 
