##TITLE= Sample 019 By ssteindl date Donnerstag, November 22 2018
##JCAMP-DX= 4.24
##DATA TYPE= INFRARED SPECTRUM
##ORIGIN= Exported PE Spectrum Data File
##OWNER= Sandra Steindl
##DATE= 18/11/22
##TIME= 12:57:52.00
##SPECTROMETER/DATA SYSTEM= PERKIN-ELMER Frontier FT-IR/NIR IR
##INSTRUMENT PARAMETERS=
  APODIZATION=stark
  DETECTOR=INGAAS
##RESOLUTION= 16.000000
##DELTAX= -2.000000
##XUNITS= 1/CM
##YUNITS= A
##XFACTOR= 1.00
##YFACTOR= 0.00000011920928955078
##FIRSTX= 10000.00
##LASTX= 4000.00
##NPOINTS= 3001
##FIRSTY= 0.223653
##MAXY= 0.622043
##MINY= 0.191443
##XYDATA= (X++(Y..Y))
 10000.000000   1876135   1866784   1857584   1848867   1841226  
  9990.000000   1835177   1831177   1829507   1830452   1833896  
  9980.000000   1839229   1845155   1850175   1852884   1852612  
  9970.000000   1849588   1845066   1840832   1838650   1839600  
  9960.000000   1843775   1850310   1857749   1864607   1869759  
  9950.000000   1872742   1873608   1872798   1870760   1867875  
  9940.000000   1864364   1860423   1856281   1852208   1848415  
  9930.000000   1844925   1841505   1837765   1833308   1828003  
  9920.000000   1822079   1816114   1810839   1806830   1804316  
  9910.000000   1803080   1802598   1802270   1801681   1800769  
  9900.000000   1799835   1799396   1799977   1801885   1805105  
  9890.000000   1809246   1813667   1817554   1820181   1820968  
  9880.000000   1819722   1816579   1812079   1806976   1802106  
  9870.000000   1798155   1795501   1794169   1793884   1794278  
  9860.000000   1795022   1796014   1797302   1799063   1801354  
  9850.000000   1804054   1806790   1809061   1810456   1810768  
  9840.000000   1810162   1808982   1807682   1806533   1805559  
  9830.000000   1804560   1803185   1801223   1798627   1795737  
  9820.000000   1793092   1791400   1791249   1792940   1796348  
  9810.000000   1800805   1805285   1808445   1809088   1806334  
  9800.000000   1800038   1790830   1780097   1769722   1761623  
  9790.000000   1757385   1757809   1762851   1771644   1782807  
  9780.000000   1794720   1805828   1814778   1820553   1822547  
  9770.000000   1820656   1815389   1807832   1799569   1792320  
  9760.000000   1787565   1786097   1787768   1791548   1795796  
  9750.000000   1798858   1799490   1797272   1792574   1786366  
  9740.000000   1779818   1773905   1769249   1766033   1764227  
  9730.000000   1763686   1764283   1765908   1768347   1771324  
  9720.000000   1774420   1777314   1779812   1782001   1784157  
  9710.000000   1786515   1789141   1791635   1793361   1793476  
  9700.000000   1791407   1786971   1780545   1772943   1765182  
  9690.000000   1758291   1753073   1750129   1749789   1752194  
  9680.000000   1757190   1764293   1772599   1780871   1787755  
  9670.000000   1792110   1793373   1791720   1788069   1783758  
  9660.000000   1780164   1778273   1778448   1780448   1783557  
  9650.000000   1786960   1789876   1791819   1792494   1791848  
  9640.000000   1789919   1786851   1782867   1778268   1773420  
  9630.000000   1768639   1764138   1759956   1756007   1752226  
  9620.000000   1748662   1745610   1743478   1742693   1743423  
  9610.000000   1745479   1748308   1751120   1753192   1754000  
  9600.000000   1753455   1751753   1749372   1746760   1744298  
  9590.000000   1742167   1740428   1739092   1738182   1737799  
  9580.000000   1738053   1739058   1740831   1743315   1746329  
  9570.000000   1749622   1752833   1755527   1757230   1757525  
  9560.000000   1756223   1753453   1749714   1745752   1742345  
  9550.000000   1740049   1739001   1738900   1739145   1739105  
  9540.000000   1738355   1736838   1734780   1732583   1730552  
  9530.000000   1728824   1727338   1726004   1724871   1724190  
  9520.000000   1724342   1725585   1727828   1730508   1732726  
  9510.000000   1733553   1732422   1729360   1725026   1720439  
  9500.000000   1716616   1714196   1713258   1713386   1713917  
  9490.000000   1714277   1714198   1713763   1713248   1712898  
  9480.000000   1712762   1712665   1712356   1711650   1710591  
  9470.000000   1709400   1708388   1707774   1707570   1707630  
  9460.000000   1707728   1707776   1707865   1708253   1709202  
  9450.000000   1710769   1712724   1714517   1715493   1715061  
  9440.000000   1712955   1709303   1704632   1699693   1695269  
  9430.000000   1692010   1690303   1690313   1691929   1694878  
  9420.000000   1698669   1702716   1706378   1709124   1710643  
  9410.000000   1710900   1710135   1708701   1706957   1705078  
  9400.000000   1703060   1700739   1697970   1694788   1691467  
  9390.000000   1688522   1686456   1685625   1685995   1687206  
  9380.000000   1688664   1689777   1690154   1689670   1688462  
  9370.000000   1686756   1684755   1682555   1680175   1677647  
  9360.000000   1675100   1672795   1671079   1670253   1670444  
  9350.000000   1671497   1672997   1674361   1675041   1674638  
  9340.000000   1673054   1670433   1667166   1663728   1660616  
  9330.000000   1658251   1656930   1656814   1657900   1660044  
  9320.000000   1662972   1666342   1669802   1673031   1675767  
  9310.000000   1677801   1678980   1679207   1678458   1676809  
  9300.000000   1674491   1671901   1669578   1668068   1667750  
  9290.000000   1668699   1670594   1672824   1674579   1675149  
  9280.000000   1674082   1671430   1667707   1663760   1660477  
  9270.000000   1658522   1658171   1659222   1661076   1662881  
  9260.000000   1663814   1663312   1661235   1657866   1653787  
  9250.000000   1649737   1646415   1644330   1643685   1644349  
  9240.000000   1645953   1647994   1649985   1651527   1652370  
  9230.000000   1652422   1651755   1650543   1649044   1647511  
  9220.000000   1646191   1645254   1644787   1644759   1645042  
  9210.000000   1645488   1645959   1646417   1646861   1647363  
  9200.000000   1647950   1648605   1649209   1649581   1649555  
  9190.000000   1649033   1648049   1646707   1645148   1643448  
  9180.000000   1641603   1639530   1637138   1634449   1631653  
  9170.000000   1629127   1627301   1626537   1626958   1628421  
  9160.000000   1630542   1632798   1634692   1635859   1636173  
  9150.000000   1635676   1634549   1632987   1631209   1629391  
  9140.000000   1627725   1626396   1625610   1625521   1626167  
  9130.000000   1627448   1629111   1630864   1632406   1633573  
  9120.000000   1634314   1634745   1635053   1635425   1635994  
  9110.000000   1636776   1637723   1638647   1639307   1639395  
  9100.000000   1638662   1636932   1634185   1630651   1626817  
  9090.000000   1623392   1621073   1620459   1621813   1625041  
  9080.000000   1629602   1634725   1639563   1643430   1645889  
  9070.000000   1646789   1646228   1644426   1641658   1638136  
  9060.000000   1634064   1629623   1625067   1620668   1616713  
  9050.000000   1613432   1610951   1609282   1608290   1607792  
  9040.000000   1607583   1607533   1607594   1607822   1608354  
  9030.000000   1609343   1610914   1613090   1615795   1618806  
  9020.000000   1621813   1624439   1626368   1627370   1627386  
  9010.000000   1626500   1624937   1622972   1620874   1618854  
  9000.000000   1617063   1615590   1614455   1613663   1613165  
  8990.000000   1612906   1612770   1612660   1612504   1612324  
  8980.000000   1612226   1612366   1612888   1613807   1614983  
  8970.000000   1616104   1616803   1616755   1615840   1614200  
  8960.000000   1612236   1610486   1609431   1609361   1610261  
  8950.000000   1611851   1613661   1615226   1616227   1616566  
  8940.000000   1616350   1615802   1615167   1614582   1614049  
  8930.000000   1613437   1612601   1611439   1609987   1608424  
  8920.000000   1607034   1606134   1605937   1606523   1607784  
  8910.000000   1609478   1611296   1612930   1614186   1614959  
  8900.000000   1615267   1615167   1614757   1614115   1613336  
  8890.000000   1612526   1611852   1611529   1611776   1612766  
  8880.000000   1614519   1616929   1619716   1622562   1625138  
  8870.000000   1627239   1628792   1629840   1630474   1630754  
  8860.000000   1630687   1630197   1629195   1627623   1625530  
  8850.000000   1623067   1620438   1617877   1615571   1613693  
  8840.000000   1612356   1611670   1611692   1612419   1613733  
  8830.000000   1615367   1616965   1618121   1618560   1618169  
  8820.000000   1617140   1615823   1614683   1614070   1614148  
  8810.000000   1614842   1615929   1617188   1618535   1620086  
  8800.000000   1622108   1624883   1628536   1632908   1637538  
  8790.000000   1641774   1644990   1646763   1647036   1646093  
  8780.000000   1644497   1642897   1641835   1641631   1642298  
  8770.000000   1643638   1645295   1646949   1648347   1649424  
  8760.000000   1650227   1650920   1651643   1652465   1653314  
  8750.000000   1653993   1654251   1653852   1652704   1650879  
  8740.000000   1648654   1646413   1644562   1643389   1642997  
  8730.000000   1643286   1644022   1644925   1645780   1646506  
  8720.000000   1647173   1647958   1649065   1650651   1652769  
  8710.000000   1655360   1658255   1661225   1664030   1666449  
  8700.000000   1668336   1669619   1670342   1670615   1670597  
  8690.000000   1670413   1670116   1669665   1668955   1667893  
  8680.000000   1666496   1664950   1663607   1662898   1663179  
  8670.000000   1664596   1666993   1669924   1672800   1675064  
  8660.000000   1676416   1676876   1676800   1676710   1677135  
  8650.000000   1678415   1680626   1683588   1686974   1690425  
  8640.000000   1693666   1696536   1698984   1701005   1702588  
  8630.000000   1703712   1704376   1704641   1704642   1704584  
  8620.000000   1704680   1705115   1705970   1707248   1708851  
  8610.000000   1710678   1712611   1714569   1716465   1718197  
  8600.000000   1719639   1720636   1721071   1720894   1720189  
  8590.000000   1719151   1718053   1717186   1716777   1716965  
  8580.000000   1717756   1719074   1720788   1722760   1724853  
  8570.000000   1726929   1728850   1730459   1731623   1732239  
  8560.000000   1732305   1731918   1731294   1730715   1730470  
  8550.000000   1730793   1731789   1733424   1735524   1737843  
  8540.000000   1740123   1742140   1743748   1744870   1745508  
  8530.000000   1745700   1745510   1745027   1744390   1743789  
  8520.000000   1743458   1743648   1744567   1746314   1748803  
  8510.000000   1751774   1754825   1757516   1759477   1760505  
  8500.000000   1760631   1760073   1759192   1758355   1757884  
  8490.000000   1757954   1758606   1759757   1761262   1762977  
  8480.000000   1764768   1766556   1768287   1769960   1771595  
  8470.000000   1773227   1774888   1776571   1778230   1779742  
  8460.000000   1780954   1781706   1781922   1781647   1781064  
  8450.000000   1780468   1780177   1780454   1781405   1782980  
  8440.000000   1784967   1787103   1789125   1790868   1792261  
  8430.000000   1793328   1794124   1794706   1795103   1795329  
  8420.000000   1795409   1795381   1795316   1795276   1795293  
  8410.000000   1795339   1795326   1795167   1794790   1794225  
  8400.000000   1793566   1793000   1792723   1792896   1793577  
  8390.000000   1794708   1796129   1797598   1798848   1799627  
  8380.000000   1799777   1799244   1798121   1796621   1795069  
  8370.000000   1793811   1793140   1793200   1793949   1795164  
  8360.000000   1796512   1797659   1798371   1798609   1798523  
  8350.000000   1798384   1798473   1798966   1799885   1801076  
  8340.000000   1802288   1803248   1803787   1803864   1803567  
  8330.000000   1803068   1802548   1802164   1801995   1802071  
  8320.000000   1802374   1802876   1803536   1804304   1805093  
  8310.000000   1805798   1806297   1806501   1806370   1805938  
  8300.000000   1805312   1804631   1804033   1803595   1803327  
  8290.000000   1803168   1803030   1802831   1802526   1802139  
  8280.000000   1801737   1801435   1801326   1801487   1801927  
  8270.000000   1802621   1803495   1804463   1805429   1806299  
  8260.000000   1806983   1807399   1807469   1807131   1806351  
  8250.000000   1805137   1803559   1801739   1799841   1798033  
  8240.000000   1796452   1795182   1794217   1793502   1792920  
  8230.000000   1792375   1791796   1791189   1790607   1790142  
  8220.000000   1789869   1789812   1789929   1790099   1790165  
  8210.000000   1789961   1789374   1788369   1787006   1785423  
  8200.000000   1783794   1782294   1781045   1780109   1779463  
  8190.000000   1779032   1778702   1778362   1777912   1777288  
  8180.000000   1776449   1775385   1774105   1772638   1771040  
  8170.000000   1769381   1767756   1766246   1764906   1763739  
  8160.000000   1762688   1761661   1760562   1759344   1758030  
  8150.000000   1756735   1755620   1754845   1754487   1754498  
  8140.000000   1754697   1754816   1754593   1753839   1752515  
  8130.000000   1750718   1748648   1746521   1744494   1742630  
  8120.000000   1740896   1739223   1737561   1735930   1734421  
  8110.000000   1733163   1732242   1731663   1731310   1730991  
  8100.000000   1730499   1729684   1728528   1727134   1725707  
  8090.000000   1724458   1723531   1722941   1722579   1722262  
  8080.000000   1721807   1721106   1720165   1719087   1718029  
  8070.000000   1717134   1716469   1716005   1715635   1715218  
  8060.000000   1714637   1713846   1712881   1711843   1710856  
  8050.000000   1710019   1709370   1708880   1708468   1708030  
  8040.000000   1707478   1706756   1705856   1704811   1703671  
  8030.000000   1702506   1701380   1700361   1699504   1698853  
  8020.000000   1698425   1698196   1698093   1697993   1697749  
  8010.000000   1697211   1696281   1694926   1693213   1691280  
  8000.000000   1689323   1687539   1686092   1685073   1684494  
  7990.000000   1684287   1684333   1684492   1684632   1684667  
  7980.000000   1684566   1684358   1684122   1683958   1683959  
  7970.000000   1684167   1684574   1685098   1685618   1685991  
  7960.000000   1686106   1685898   1685371   1684593   1683667  
  7950.000000   1682716   1681841   1681119   1680587   1680251  
  7940.000000   1680089   1680063   1680119   1680200   1680241  
  7930.000000   1680187   1680001   1679668   1679205   1678644  
  7920.000000   1678034   1677419   1676837   1676315   1675877  
  7910.000000   1675542   1675332   1675261   1675330   1675517  
  7900.000000   1675775   1676037   1676236   1676313   1676239  
  7890.000000   1676013   1675666   1675241   1674794   1674370  
  7880.000000   1674007   1673723   1673523   1673394   1673309  
  7870.000000   1673238   1673151   1673042   1672929   1672861  
  7860.000000   1672894   1673066   1673372   1673744   1674061  
  7850.000000   1674181   1673994   1673461   1672643   1671690  
  7840.000000   1670786   1670102   1669730   1669665   1669809  
  7830.000000   1670017   1670145   1670101   1669855   1669433  
  7820.000000   1668886   1668260   1667579   1666848   1666072  
  7810.000000   1665275   1664506   1663832   1663307   1662955  
  7800.000000   1662742   1662596   1662409   1662098   1661612  
  7790.000000   1660966   1660211   1659425   1658671   1657982  
  7780.000000   1657346   1656715   1656023   1655193   1654168  
  7770.000000   1652901   1651383   1649633   1647718   1645746  
  7760.000000   1643857   1642206   1640928   1640112   1639779  
  7750.000000   1639879   1640308   1640935   1641630   1642283  
  7740.000000   1642812   1643153   1643256   1643079   1642607  
  7730.000000   1641859   1640910   1639880   1638913   1638127  
  7720.000000   1637575   1637220   1636931   1636541   1635888  
  7710.000000   1634888   1633559   1632016   1630434   1628992  
  7700.000000   1627819   1626966   1626411   1626081   1625891  
  7690.000000   1625773   1625689   1625628   1625586   1625555  
  7680.000000   1625523   1625465   1625368   1625221   1625029  
  7670.000000   1624785   1624485   1624099   1623606   1622993  
  7660.000000   1622287   1621549   1620876   1620365   1620090  
  7650.000000   1620070   1620268   1620603   1620979   1621318  
  7640.000000   1621580   1621770   1621923   1622086   1622294  
  7630.000000   1622562   1622879   1623216   1623540   1623817  
  7620.000000   1624019   1624121   1624099   1623935   1623615  
  7610.000000   1623139   1622525   1621811   1621047   1620299  
  7600.000000   1619632   1619108   1618776   1618663   1618769  
  7590.000000   1619054   1619447   1619852   1620175   1620343  
  7580.000000   1620337   1620188   1619979   1619812   1619786  
  7570.000000   1619961   1620357   1620943   1621672   1622482  
  7560.000000   1623333   1624194   1625045   1625858   1626607  
  7550.000000   1627258   1627800   1628245   1628652   1629094  
  7540.000000   1629657   1630391   1631307   1632354   1633449  
  7530.000000   1634491   1635410   1636178   1636823   1637408  
  7520.000000   1638014   1638705   1639523   1640474   1641550  
  7510.000000   1642726   1643989   1645327   1646736   1648200  
  7500.000000   1649696   1651177   1652600   1653915   1655103  
  7490.000000   1656165   1657140   1658086   1659087   1660217  
  7480.000000   1661547   1663115   1664937   1666997   1669262  
  7470.000000   1671672   1674161   1676645   1679052   1681304  
  7460.000000   1683353   1685168   1686772   1688220   1689616  
  7450.000000   1691072   1692698   1694567   1696708   1699093  
  7440.000000   1701650   1704290   1706929   1709512   1712014  
  7430.000000   1714434   1716785   1719077   1721315   1723491  
  7420.000000   1725608   1727673   1729712   1731756   1733832  
  7410.000000   1735955   1738115   1740286   1742429   1744518  
  7400.000000   1746538   1748497   1750418   1752326   1754247  
  7390.000000   1756197   1758188   1760229   1762327   1764490  
  7380.000000   1766715   1768987   1771275   1773538   1775742  
  7370.000000   1777866   1779918   1781922   1783920   1785936  
  7360.000000   1787980   1790023   1792022   1793931   1795726  
  7350.000000   1797431   1799120   1800910   1802923   1805254  
  7340.000000   1807927   1810893   1814022   1817146   1820092  
  7330.000000   1822726   1824979   1826867   1828468   1829906  
  7320.000000   1831297   1832727   1834224   1835776   1837329  
  7310.000000   1838836   1840259   1841595   1842857   1844073  
  7300.000000   1845247   1846376   1847429   1848384   1849226  
  7290.000000   1849981   1850695   1851435   1852261   1853207  
  7280.000000   1854269   1855408   1856559   1857659   1858657  
  7270.000000   1859530   1860295   1860995   1861698   1862470  
  7260.000000   1863370   1864419   1865609   1866889   1868189  
  7250.000000   1869428   1870553   1871544   1872436   1873294  
  7240.000000   1874214   1875265   1876495   1877894   1879435  
  7230.000000   1881064   1882754   1884487   1886283   1888149  
  7220.000000   1890101   1892114   1894170   1896236   1898325  
  7210.000000   1900474   1902774   1905308   1908162   1911348  
  7200.000000   1914834   1918513   1922273   1925994   1929615  
  7190.000000   1933098   1936477   1939789   1943100   1946452  
  7180.000000   1949891   1953435   1957107   1960912   1964858  
  7170.000000   1968935   1973138   1977438   1981826   1986273  
  7160.000000   1990769   1995274   1999760   2004165   2008460  
  7150.000000   2012611   2016660   2020681   2024828   2029250  
  7140.000000   2034096   2039424   2045234   2051424   2057876  
  7130.000000   2064452   2071071   2077676   2084278   2090880  
  7120.000000   2097519   2104192   2110924   2117713   2124596  
  7110.000000   2131588   2138723   2145986   2153351   2160741  
  7100.000000   2168098   2175366   2182553   2189701   2196903  
  7090.000000   2204237   2211771   2219514   2227450   2235529  
  7080.000000   2243710   2251958   2260269   2268630   2277034  
  7070.000000   2285442   2293810   2302078   2310215   2318201  
  7060.000000   2326060   2333832   2341572   2349336   2357173  
  7050.000000   2365122   2373206   2381430   2389765   2398157  
  7040.000000   2406523   2414776   2422845   2430702   2438364  
  7030.000000   2445889   2453343   2460784   2468225   2475654  
  7020.000000   2483027   2490317   2497504   2504615   2511669  
  7010.000000   2518695   2525674   2532579   2539351   2545962  
  7000.000000   2552401   2558702   2564896   2571016   2577037  
  6990.000000   2582913   2588560   2593936   2599030   2603920  
  6980.000000   2608708   2613535   2618484   2623601   2628837  
  6970.000000   2634124   2639345   2644418   2649263   2653843  
  6960.000000   2658120   2662088   2665739   2669108   2672238  
  6950.000000   2675212   2678094   2680940   2683750   2686502  
  6940.000000   2689139   2691643   2694015   2696320   2698625  
  6930.000000   2701002   2703461   2705973   2708455   2710838  
  6920.000000   2713076   2715194   2717248   2719314   2721427  
  6910.000000   2723569   2725660   2727606   2729332   2730827  
  6900.000000   2732143   2733389   2734671   2736070   2737603  
  6890.000000   2739241   2740916   2742572   2744168   2745699  
  6880.000000   2747172   2748598   2749974   2751287   2752516  
  6870.000000   2753652   2754699   2755673   2756598   2757493  
  6860.000000   2758369   2759236   2760099   2760969   2761852  
  6850.000000   2762753   2763663   2764567   2765446   2766304  
  6840.000000   2767158   2768056   2769042   2770152   2771376  
  6830.000000   2772672   2773966   2775186   2776282   2777250  
  6820.000000   2778108   2778892   2779614   2780261   2780787  
  6810.000000   2781152   2781328   2781345   2781261   2781167  
  6800.000000   2781133   2781198   2781341   2781507   2781616  
  6790.000000   2781614   2781469   2781194   2780824   2780416  
  6780.000000   2780014   2779665   2779398   2779237   2779189  
  6770.000000   2779245   2779370   2779510   2779596   2779570  
  6760.000000   2779390   2779054   2778583   2778019   2777402  
  6750.000000   2776763   2776112   2775457   2774798   2774146  
  6740.000000   2773507   2772888   2772266   2771609   2770865  
  6730.000000   2769993   2768975   2767832   2766615   2765397  
  6720.000000   2764236   2763171   2762204   2761317   2760480  
  6710.000000   2759672   2758885   2758123   2757384   2756660  
  6700.000000   2755921   2755131   2754253   2753271   2752185  
  6690.000000   2751019   2749805   2748570   2747326   2746071  
  6680.000000   2744785   2743445   2742028   2740524   2738930  
  6670.000000   2737269   2735568   2733875   2732230   2730681  
  6660.000000   2729244   2727925   2726694   2725516   2724338  
  6650.000000   2723123   2721837   2720465   2718994   2717417  
  6640.000000   2715721   2713902   2711967   2709941   2707864  
  6630.000000   2705786   2703744   2701758   2699818   2697902  
  6620.000000   2695980   2694043   2692097   2690173   2688294  
  6610.000000   2686475   2684705   2682950   2681174   2679350  
  6600.000000   2677474   2675558   2673622   2671672   2669697  
  6590.000000   2667676   2665592   2663455   2661304   2659201  
  6580.000000   2657203   2655338   2653585   2651887   2650170  
  6570.000000   2648381   2646515   2644615   2642758   2641017  
  6560.000000   2639431   2637986   2636631   2635292   2633918  
  6550.000000   2632487   2631019   2629550   2628115   2626727  
  6540.000000   2625377   2624045   2622722   2621416   2620158  
  6530.000000   2618979   2617901   2616915   2615987   2615064  
  6520.000000   2614099   2613061   2611949   2610777   2609573  
  6510.000000   2608360   2607159   2605986   2604861   2603807  
  6500.000000   2602846   2601987   2601216   2600495   2599771  
  6490.000000   2598992   2598123   2597155   2596108   2595011  
  6480.000000   2593893   2592770   2591644   2590511   2589376  
  6470.000000   2588254   2587172   2586162   2585242   2584415  
  6460.000000   2583665   2582966   2582294   2581628   2580959  
  6450.000000   2580277   2579571   2578827   2578034   2577186  
  6440.000000   2576302   2575407   2574539   2573721   2572959  
  6430.000000   2572232   2571509   2570758   2569967   2569146  
  6420.000000   2568327   2567545   2566823   2566159   2565535  
  6410.000000   2564923   2564304   2563675   2563055   2562465  
  6400.000000   2561927   2561442   2561000   2560580   2560165  
  6390.000000   2559751   2559343   2558953   2558591   2558253  
  6380.000000   2557928   2557597   2557246   2556868   2556465  
  6370.000000   2556042   2555602   2555140   2554648   2554123  
  6360.000000   2553568   2552995   2552422   2551861   2551314  
  6350.000000   2550776   2550231   2549674   2549103   2548536  
  6340.000000   2547983   2547454   2546935   2546401   2545819  
  6330.000000   2545169   2544448   2543685   2542914   2542170  
  6320.000000   2541461   2540766   2540033   2539206   2538233  
  6310.000000   2537101   2535820   2534438   2533004   2531576  
  6300.000000   2530186   2528859   2527588   2526365   2525153  
  6290.000000   2523914   2522596   2521160   2519572   2517834  
  6280.000000   2515963   2514010   2512018   2510028   2508049  
  6270.000000   2506070   2504056   2501982   2499830   2497609  
  6260.000000   2495337   2493041   2490731   2488409   2486059  
  6250.000000   2483676   2481260   2478837   2476438   2474094  
  6240.000000   2471813   2469585   2467372   2465139   2462852  
  6230.000000   2460501   2458090   2455635   2453147   2450632  
  6220.000000   2448086   2445508   2442907   2440306   2437740  
  6210.000000   2435244   2432838   2430521   2428272   2426058  
  6200.000000   2423843   2421608   2419347   2417066   2414779  
  6190.000000   2412496   2410225   2407970   2405732   2403514  
  6180.000000   2401313   2399125   2396937   2394734   2392503  
  6170.000000   2390239   2387953   2385666   2383404   2381187  
  6160.000000   2379024   2376912   2374844   2372814   2370831  
  6150.000000   2368910   2367069   2365316   2363641   2362012  
  6140.000000   2360387   2358726   2357008   2355232   2353424  
  6130.000000   2351616   2349842   2348122   2346467   2344871  
  6120.000000   2343331   2341835   2340380   2338954   2337547  
  6110.000000   2336140   2334725   2333297   2331876   2330488  
  6100.000000   2329177   2327976   2326914   2325991   2325198  
  6090.000000   2324505   2323885   2323303   2322739   2322167  
  6080.000000   2321579   2320966   2320340   2319720   2319148  
  6070.000000   2318658   2318287   2318040   2317914   2317870  
  6060.000000   2317876   2317899   2317934   2317987   2318091  
  6050.000000   2318265   2318530   2318880   2319308   2319795  
  6040.000000   2320342   2320951   2321643   2322423   2323297  
  6030.000000   2324243   2325235   2326240   2327246   2328252  
  6020.000000   2329283   2330364   2331523   2332767   2334091  
  6010.000000   2335469   2336876   2338280   2339660   2340992  
  6000.000000   2342260   2343444   2344539   2345547   2346494  
  5990.000000   2347417   2348373   2349407   2350554   2351822  
  5980.000000   2353198   2354651   2356152   2357679   2359232  
  5970.000000   2360821   2362472   2364199   2366018   2367923  
  5960.000000   2369906   2371936   2373990   2376034   2378047  
  5950.000000   2380013   2381937   2383835   2385744   2387703  
  5940.000000   2389750   2391899   2394147   2396465   2398812  
  5930.000000   2401152   2403459   2405733   2407990   2410252  
  5920.000000   2412541   2414859   2417196   2419522   2421811  
  5910.000000   2424034   2426178   2428233   2430207   2432108  
  5900.000000   2433958   2435783   2437620   2439510   2441491  
  5890.000000   2443594   2445827   2448180   2450622   2453113  
  5880.000000   2455609   2458072   2460471   2462784   2464999  
  5870.000000   2467104   2469108   2471019   2472867   2474685  
  5860.000000   2476514   2478381   2480311   2482309   2484377  
  5850.000000   2486516   2488733   2491038   2493444   2495955  
  5840.000000   2498564   2501247   2503977   2506726   2509480  
  5830.000000   2512235   2514996   2517768   2520543   2523304  
  5820.000000   2526019   2528658   2531200   2533642   2535987  
  5810.000000   2538255   2540445   2542563   2544585   2546507  
  5800.000000   2548304   2549995   2551577   2553082   2554499  
  5790.000000   2555834   2557041   2558086   2558899   2559441  
  5780.000000   2559656   2559528   2559037   2558208   2557069  
  5770.000000   2555692   2554149   2552537   2550932   2549401  
  5760.000000   2547972   2546658   2545447   2544333   2543315  
  5750.000000   2542406   2541620   2540962   2540425   2539979  
  5740.000000   2539592   2539231   2538891   2538578   2538324  
  5730.000000   2538149   2538073   2538082   2538162   2538279  
  5720.000000   2538423   2538588   2538795   2539057   2539393  
  5710.000000   2539793   2540246   2540723   2541211   2541702  
  5700.000000   2542209   2542747   2543333   2543969   2544648  
  5690.000000   2545357   2546080   2546809   2547536   2548257  
  5680.000000   2548957   2549618   2550212   2550724   2551138  
  5670.000000   2551457   2551680   2551809   2551826   2551709  
  5660.000000   2551425   2550963   2550330   2549569   2548735  
  5650.000000   2547898   2547099   2546364   2545679   2545026  
  5640.000000   2544375   2543718   2543052   2542387   2541725  
  5630.000000   2541065   2540391   2539688   2538951   2538193  
  5620.000000   2537438   2536720   2536059   2535459   2534903  
  5610.000000   2534365   2533812   2533231   2532615   2531978  
  5600.000000   2531331   2530684   2530036   2529384   2528719  
  5590.000000   2528039   2527340   2526623   2525875   2525080  
  5580.000000   2524213   2523258   2522208   2521078   2519893  
  5570.000000   2518689   2517493   2516325   2515183   2514062  
  5560.000000   2512948   2511834   2510710   2509570   2508403  
  5550.000000   2507201   2505958   2504682   2503393   2502130  
  5540.000000   2500931   2499823   2498811   2497870   2496960  
  5530.000000   2496037   2495070   2494054   2493003   2491946  
  5520.000000   2490910   2489908   2488938   2487988   2487039  
  5510.000000   2486079   2485094   2484079   2483022   2481918  
  5500.000000   2480762   2479567   2478358   2477175   2476048  
  5490.000000   2474996   2473993   2472989   2471911   2470699  
  5480.000000   2469314   2467769   2466105   2464390   2462679  
  5470.000000   2461010   2459377   2457761   2456120   2454429  
  5460.000000   2452666   2450830   2448919   2446935   2444872  
  5450.000000   2442733   2440524   2438271   2436003   2433755  
  5440.000000   2431549   2429392   2427282   2425214   2423188  
  5430.000000   2421209   2419290   2417424   2415600   2413781  
  5420.000000   2411949   2410090   2408242   2406460   2404836  
  5410.000000   2403433   2402291   2401386   2400674   2400081  
  5400.000000   2399569   2399107   2398717   2398409   2398214  
  5390.000000   2398121   2398129   2398210   2398376   2398637  
  5380.000000   2399053   2399655   2400489   2401533   2402771  
  5370.000000   2404130   2405586   2407091   2408674   2410336  
  5360.000000   2412142   2414101   2416276   2418665   2421340  
  5350.000000   2424309   2427659   2431393   2435574   2440155  
  5340.000000   2445159   2450514   2456254   2462339   2468846  
  5330.000000   2475751   2483135   2490950   2499250   2507975  
  5320.000000   2517200   2526897   2537185   2548056   2559633  
  5310.000000   2571872   2584856   2598500   2612870   2627897  
  5300.000000   2643680   2660190   2677564   2695797   2715023  
  5290.000000   2735208   2756420   2778547   2801555   2825266  
  5280.000000   2849627   2874513   2899973   2926015   2952776  
  5270.000000   2980290   3008587   3037529   3066917   3096477  
  5260.000000   3125972   3155260   3184303   3213179   3241954  
  5250.000000   3270686   3299279   3327601   3355371   3382421  
  5240.000000   3408538   3433743   3458013   3481521   3504293  
  5230.000000   3526467   3547962   3568789   3588764   3607868  
  5220.000000   3625955   3643106   3659292   3674701   3689360  
  5210.000000   3703448   3716918   3729830   3742015   3753452  
  5200.000000   3763967   3773606   3782305   3790212   3797327  
  5190.000000   3803790   3809557   3814701   3819133   3822920  
  5180.000000   3826006   3828502   3830390   3831776   3832612  
  5170.000000   3832952   3832720   3831972   3830670   3828915  
  5160.000000   3826711   3824159   3821236   3817988   3814355  
  5150.000000   3810363   3805975   3801254   3796202   3790895  
  5140.000000   3785334   3779565   3773565   3767366   3760956  
  5130.000000   3754383   3747660   3740843   3733939   3726988  
  5120.000000   3719982   3712945   3705869   3698774   3691648  
  5110.000000   3684496   3677293   3670032   3662695   3655294  
  5100.000000   3647844   3640383   3632937   3625528   3618152  
  5090.000000   3610794   3603424   3596030   3588605   3581174  
  5080.000000   3573761   3566398   3559094   3551849   3544634  
  5070.000000   3537419   3530169   3522870   3515509   3508096  
  5060.000000   3500637   3493146   3485629   3478095   3470549  
  5050.000000   3463004   3455466   3447949   3440456   3432992  
  5040.000000   3425554   3418139   3410747   3403378   3396039  
  5030.000000   3388733   3381468   3374245   3367075   3359960  
  5020.000000   3352923   3345975   3339147   3332447   3325897  
  5010.000000   3319490   3313238   3307124   3301167   3295362  
  5000.000000   3289750   3284334   3279162   3274229   3269567  
  4990.000000   3265151   3261006   3257099   3253464   3250076  
  4980.000000   3246978   3244150   3241637   3239417   3237541  
  4970.000000   3235988   3234817   3234011   3233622   3233621  
  4960.000000   3234047   3234855   3236076   3237667   3239670  
  4950.000000   3242052   3244857   3248049   3251659   3255629  
  4940.000000   3259974   3264631   3269618   3274882   3280450  
  4930.000000   3286281   3292403   3298780   3305442   3312358  
  4920.000000   3319563   3327032   3334792   3342811   3351099  
  4910.000000   3359611   3368346   3377265   3386374   3395646  
  4900.000000   3405090   3414680   3424410   3434243   3444158  
  4890.000000   3454117   3464096   3474073   3484032   3493961  
  4880.000000   3503848   3513685   3523454   3533145   3542730  
  4870.000000   3552195   3561502   3570637   3579565   3588287  
  4860.000000   3596784   3605080   3613168   3621075   3628786  
  4850.000000   3636315   3643636   3650765   3657688   3664441  
  4840.000000   3671027   3677492   3683831   3690069   3696174  
  4830.000000   3702147   3707943   3713561   3718967   3724170  
  4820.000000   3729146   3733908   3738435   3742741   3746816  
  4810.000000   3750686   3754359   3757875   3761247   3764516  
  4800.000000   3767687   3770790   3773822   3776806   3779737  
  4790.000000   3782631   3785477   3788281   3791023   3793704  
  4780.000000   3796306   3798837   3801286   3803671   3805983  
  4770.000000   3808235   3810408   3812503   3814487   3816353  
  4760.000000   3818065   3819618   3820983   3822165   3823145  
  4750.000000   3823939   3824533   3824949   3825170   3825210  
  4740.000000   3825048   3824696   3824136   3823386   3822440  
  4730.000000   3821323   3820031   3818585   3816974   3815213  
  4720.000000   3813294   3811238   3809052   3806772   3804416  
  4710.000000   3802024   3799611   3797204   3794805   3792428  
  4700.000000   3790063   3787714   3785365   3783009   3780628  
  4690.000000   3778216   3775761   3773268   3770739   3768182  
  4680.000000   3765602   3762994   3760347   3757640   3754856  
  4670.000000   3751979   3749016   3745981   3742914   3739855  
  4660.000000   3736856   3733956   3731196   3728601   3726198  
  4650.000000   3723998   3722014   3720244   3718684   3717309  
  4640.000000   3716101   3715023   3714056   3713169   3712355  
  4630.000000   3711593   3710882   3710202   3709547   3708894  
  4620.000000   3708233   3707547   3706831   3706073   3705271  
  4610.000000   3704416   3703507   3702542   3701534   3700503  
  4600.000000   3699481   3698501   3697589   3696761   3696013  
  4590.000000   3695330   3694684   3694049   3693404   3692738  
  4580.000000   3692044   3691322   3690568   3689781   3688949  
  4570.000000   3688071   3687138   3686155   3685118   3684029  
  4560.000000   3682883   3681675   3680395   3679041   3677615  
  4550.000000   3676128   3674596   3673032   3671448   3669850  
  4540.000000   3668240   3666618   3664997   3663385   3661810  
  4530.000000   3660284   3658842   3657483   3656239   3655101  
  4520.000000   3654110   3653263   3652617   3652176   3652008  
  4510.000000   3652109   3652549   3653321   3654503   3656093  
  4500.000000   3658184   3660775   3663961   3667726   3672154  
  4490.000000   3677216   3682987   3689431   3696616   3704494  
  4480.000000   3713113   3722401   3732380   3742963   3754155  
  4470.000000   3765870   3778109   3790789   3803904   3817369  
  4460.000000   3831167   3845215   3859486   3873902   3888425  
  4450.000000   3902981   3917524   3931994   3946357   3960593  
  4440.000000   3974692   3988673   4002536   4016308   4029963  
  4430.000000   4043517   4056914   4070164   4083194   4096018  
  4420.000000   4108543   4120771   4132580   4143948   4154725  
  4410.000000   4164880   4174265   4182859   4190538   4197306  
  4400.000000   4203073   4207876   4211671   4214540   4216493  
  4390.000000   4217656   4218088   4217936   4217282   4216270  
  4380.000000   4214986   4213559   4212084   4210685   4209471  
  4370.000000   4208560   4208061   4208065   4208656   4209874  
  4360.000000   4211756   4214283   4217441   4221158   4225371  
  4350.000000   4229984   4234918   4240104   4245509   4251131  
  4340.000000   4256988   4263096   4269429   4275884   4282264  
  4330.000000   4288284   4293609   4297918   4300971   4302684  
  4320.000000   4303139   4302602   4301426   4300035   4298768  
  4310.000000   4297905   4297546   4297719   4298309   4299205  
  4300.000000   4300240   4301315   4302316   4303193   4303891  
  4290.000000   4304391   4304682   4304774   4304689   4304467  
  4280.000000   4304149   4303789   4303419   4303099   4302855  
  4270.000000   4302749   4302792   4303000   4303308   4303617  
  4260.000000   4303744   4303494   4302657   4301089   4298722  
  4250.000000   4295612   4291901   4287817   4283595   4279470  
  4240.000000   4275599   4272088   4268944   4266141   4263592  
  4230.000000   4261217   4258917   4256616   4254249   4251767  
  4220.000000   4249150   4246386   4243507   4240538   4237547  
  4210.000000   4234583   4231723   4229013   4226515   4224257  
  4200.000000   4222277   4220579   4219172   4218028   4217134  
  4190.000000   4216432   4215905   4215489   4215189   4214960  
  4180.000000   4214839   4214809   4214935   4215221   4215762  
  4170.000000   4216589   4217827   4219525   4221807   4224695  
  4160.000000   4228266   4232475   4237335   4242749   4248710  
  4150.000000   4255121   4262002   4269283   4277016   4285155  
  4140.000000   4293766   4302816   4312381   4322435   4333053  
  4130.000000   4344203   4355936   4368200   4381019   4394327  
  4120.000000   4408144   4422414   4437163   4452347   4467988  
  4110.000000   4484036   4500496   4517305   4534455   4551877  
  4100.000000   4569552   4587416   4605451   4623609   4641883  
  4090.000000   4660256   4678734   4697322   4716030   4734871  
  4080.000000   4753843   4772959   4792202   4811574   4831023  
  4070.000000   4850519   4869968   4889320   4908466   4927387  
  4060.000000   4946008   4964359   4982382   5000109   5017449  
  4050.000000   5034403   5050847   5066792   5082125   5096899  
  4040.000000   5111012   5124523   5137305   5149401   5160665  
  4030.000000   5171143   5180693   5189355   5196983   5203580  
  4020.000000   5208955   5213125   5215999   5217667   5218075  
  4010.000000   5217429   5215853   5213463   5210089   5205902  
  4000.000000   5201310  
##END= 
