##TITLE= Sample 006 By ssteindl date Donnerstag, November 22 2018
##JCAMP-DX= 4.24
##DATA TYPE= INFRARED SPECTRUM
##ORIGIN= Exported PE Spectrum Data File
##OWNER= Sandra Steindl
##DATE= 18/11/22
##TIME= 10:14:24.00
##SPECTROMETER/DATA SYSTEM= PERKIN-ELMER Frontier FT-IR/NIR IR
##INSTRUMENT PARAMETERS=
  APODIZATION=stark
  DETECTOR=INGAAS
##RESOLUTION= 16.000000
##DELTAX= -2.000000
##XUNITS= 1/CM
##YUNITS= A
##XFACTOR= 1.00
##YFACTOR= 0.00000011920928955078
##FIRSTX= 10000.00
##LASTX= 4000.00
##NPOINTS= 3001
##FIRSTY= 0.221945
##MAXY= 0.658286
##MINY= 0.184255
##XYDATA= (X++(Y..Y))
 10000.000000   1861812   1863782   1866046   1868876   1871991  
  9990.000000   1874695   1876300   1876329   1874499   1870902  
  9980.000000   1866053   1860866   1856284   1853156   1851989  
  9970.000000   1852940   1855675   1859505   1863456   1866508  
  9960.000000   1867813   1866878   1863683   1858629   1852451  
  9950.000000   1845985   1840032   1835160   1831690   1829682  
  9940.000000   1828981   1829342   1830422   1831918   1833529  
  9930.000000   1835044   1836329   1837342   1838121   1838691  
  9920.000000   1839018   1838922   1838137   1836400   1833630  
  9910.000000   1830053   1826228   1822908   1820805   1820277  
  9900.000000   1821166   1822749   1823973   1823783   1821500  
  9890.000000   1817067   1811068   1804581   1798851   1794994  
  9880.000000   1793738   1795321   1799457   1805424   1812149  
  9870.000000   1818423   1823095   1825338   1824859   1821969  
  9860.000000   1817569   1812817   1808883   1806438   1805568  
  9850.000000   1805633   1805644   1804634   1802077   1798178  
  9840.000000   1793695   1789811   1787567   1787708   1790396  
  9830.000000   1795328   1801845   1809084   1816157   1822125  
  9820.000000   1826144   1827453   1825604   1820573   1812937  
  9810.000000   1803830   1794757   1787247   1782433   1780820  
  9800.000000   1782119   1785513   1789841   1794058   1797352  
  9790.000000   1799321   1799836   1798975   1796897   1793815  
  9780.000000   1790029   1785914   1781948   1778552   1776065  
  9770.000000   1774568   1773951   1773889   1773999   1773886  
  9760.000000   1773234   1771812   1769496   1766311   1762476  
  9750.000000   1758505   1755145   1753329   1753855   1757195  
  9740.000000   1763197   1771097   1779636   1787371   1793053  
  9730.000000   1795841   1795490   1792184   1786491   1779062  
  9720.000000   1770663   1762031   1753973   1747278   1742625  
  9710.000000   1740459   1740773   1743207   1747007   1751432  
  9700.000000   1755822   1759912   1763677   1767273   1770768  
  9690.000000   1774011   1776665   1778289   1778621   1777603  
  9680.000000   1775472   1772526   1769020   1764976   1760255  
  9670.000000   1754679   1748258   1741327   1734510   1728577  
  9660.000000   1724148   1721548   1720692   1721251   1722799  
  9650.000000   1725054   1727912   1731387   1735427   1739750  
  9640.000000   1743847   1747080   1748969   1749352   1748500  
  9630.000000   1746951   1745296   1743900   1742787   1741686  
  9620.000000   1740233   1738190   1735578   1732642   1729694  
  9610.000000   1726911   1724234   1721408   1718170   1714459  
  9600.000000   1710571   1707126   1704883   1704463   1706075  
  9590.000000   1709484   1714026   1718942   1723521   1727391  
  9580.000000   1730452   1732848   1734768   1736301   1737398  
  9570.000000   1737820   1737290   1735466   1732113   1727050  
  9560.000000   1720270   1711949   1702505   1692666   1683361  
  9550.000000   1675675   1670520   1668493   1669613   1673348  
  9540.000000   1678712   1684514   1689673   1693389   1695353  
  9530.000000   1695612   1694605   1692850   1690935   1689299  
  9520.000000   1688263   1687987   1688509   1689813   1691811  
  9510.000000   1694444   1697576   1701073   1704663   1707996  
  9500.000000   1710597   1711957   1711645   1709423   1705390  
  9490.000000   1699974   1693897   1687992   1682999   1679395  
  9480.000000   1677277   1676425   1676375   1676639   1676805  
  9470.000000   1676673   1676219   1675567   1674886   1674320  
  9460.000000   1673977   1673892   1674087   1674517   1675129  
  9450.000000   1675811   1676431   1676853   1676959   1676704  
  9440.000000   1676135   1675388   1674672   1674155   1673924  
  9430.000000   1673898   1673856   1673498   1672525   1670788  
  9420.000000   1668316   1665434   1662647   1660599   1659813  
  9410.000000   1660565   1662726   1665768   1668905   1671244  
  9400.000000   1672088   1671031   1668090   1663605   1658139  
  9390.000000   1652335   1646796   1642081   1638652   1636919  
  9380.000000   1637128   1639357   1643330   1648444   1653739  
  9370.000000   1658141   1660697   1660842   1658572   1654367  
  9360.000000   1649081   1643595   1638653   1634602   1631455  
  9350.000000   1628943   1626753   1624676   1622674   1620867  
  9340.000000   1619407   1618434   1617991   1618073   1618635  
  9330.000000   1619644   1621091   1622948   1625157   1627562  
  9320.000000   1629974   1632160   1633941   1635177   1635804  
  9310.000000   1635772   1635064   1633682   1631679   1629205  
  9300.000000   1626494   1623884   1621708   1620248   1619611  
  9290.000000   1619727   1620352   1621167   1621836   1622093  
  9280.000000   1621756   1620760   1619151   1617089   1614841  
  9270.000000   1612751   1611194   1610484   1610761   1611903  
  9260.000000   1613524   1615073   1616034   1616067   1615139  
  9250.000000   1613476   1611479   1609521   1607821   1606381  
  9240.000000   1605065   1603737   1602400   1601268   1600685  
  9230.000000   1600996   1602327   1604527   1607133   1609556  
  9220.000000   1611240   1611864   1611428   1610197   1608600  
  9210.000000   1607004   1605636   1604488   1603382   1602042  
  9200.000000   1600214   1597793   1594865   1591726   1588782  
  9190.000000   1586501   1585274   1585319   1586558   1588619  
  9180.000000   1590917   1592795   1593713   1593393   1591917  
  9170.000000   1589697   1587331   1585390   1584227   1583907  
  9160.000000   1584237   1584861   1585404   1585572   1585244  
  9150.000000   1584412   1583136   1581455   1579392   1576978  
  9140.000000   1574301   1571533   1568933   1566814   1565500  
  9130.000000   1565230   1566103   1568057   1570851   1574091  
  9120.000000   1577232   1579703   1581024   1580950   1579573  
  9110.000000   1577326   1574932   1573141   1572519   1573186  
  9100.000000   1574800   1576618   1577788   1577643   1575955  
  9090.000000   1573020   1569516   1566288   1564027   1563146  
  9080.000000   1563670   1565359   1567807   1570640   1573558  
  9070.000000   1576334   1578734   1580509   1581429   1581342  
  9060.000000   1580243   1578292   1575808   1573116   1570475  
  9050.000000   1567978   1565623   1563372   1561247   1559376  
  9040.000000   1557933   1557082   1556829   1557032   1557428  
  9030.000000   1557762   1557926   1558018   1558315   1559111  
  9020.000000   1560558   1562545   1564727   1566637   1567878  
  9010.000000   1568273   1567961   1567274   1566611   1566220  
  9000.000000   1566129   1566136   1565916   1565197   1563862  
  8990.000000   1562048   1560069   1558357   1557300   1557191  
  8980.000000   1558119   1559985   1562467   1565084   1567262  
  8970.000000   1568443   1568253   1566582   1563696   1560144  
  8960.000000   1556653   1553863   1552151   1551497   1551554  
  8950.000000   1551804   1551798   1551353   1550612   1549984  
  8940.000000   1549917   1550714   1552363   1554570   1556870  
  8930.000000   1558816   1560143   1560816   1561015   1560989  
  8920.000000   1560936   1560924   1560884   1560676   1560162  
  8910.000000   1559279   1558064   1556616   1555071   1553539  
  8900.000000   1552115   1550856   1549792   1548918   1548197  
  8890.000000   1547561   1546955   1546361   1545866   1545646  
  8880.000000   1545947   1546972   1548806   1551321   1554204  
  8870.000000   1557021   1559380   1561047   1562039   1562592  
  8860.000000   1563063   1563776   1564896   1566377   1567998  
  8850.000000   1569464   1570529   1571075   1571138   1570857  
  8840.000000   1570403   1569907   1569433   1568993   1568569  
  8830.000000   1568168   1567824   1567605   1567581   1567823  
  8820.000000   1568373   1569264   1570503   1572067   1573904  
  8810.000000   1575883   1577831   1579502   1580674   1581173  
  8800.000000   1580965   1580168   1579054   1578008   1577439  
  8790.000000   1577699   1578975   1581262   1584323   1587764  
  8780.000000   1591083   1593795   1595544   1596180   1595823  
  8770.000000   1594782   1593493   1592347   1591614   1591354  
  8760.000000   1591449   1591676   1591818   1591798   1591699  
  8750.000000   1591772   1592303   1593530   1595512   1598103  
  8740.000000   1600966   1603650   1605730   1606898   1607071  
  8730.000000   1606385   1605183   1603914   1603045   1602928  
  8720.000000   1603727   1605352   1607496   1609698   1611482  
  8710.000000   1612486   1612577   1611883   1610766   1609698  
  8700.000000   1609148   1609418   1610593   1612510   1614864  
  8690.000000   1617305   1619559   1621509   1623200   1624814  
  8680.000000   1626590   1628729   1631332   1634331   1637528  
  8670.000000   1640596   1643206   1645073   1646077   1646276  
  8660.000000   1645924   1645405   1645144   1645492   1646629  
  8650.000000   1648533   1650998   1653731   1656444   1658955  
  8640.000000   1661221   1663330   1665449   1667729   1670251  
  8630.000000   1672965   1675730   1678326   1680551   1682257  
  8620.000000   1683422   1684158   1684697   1685365   1686484  
  8610.000000   1688315   1690950   1694290   1698024   1701720  
  8600.000000   1704918   1707271   1708631   1709101   1708978  
  8590.000000   1708670   1708550   1708877   1709729   1711045  
  8580.000000   1712659   1714389   1716081   1717637   1718990  
  8570.000000   1720091   1720879   1721306   1721364   1721104  
  8560.000000   1720668   1720231   1719992   1720098   1720631  
  8550.000000   1721589   1722908   1724501   1726271   1728155  
  8540.000000   1730102   1732086   1734093   1736111   1738137  
  8530.000000   1740153   1742121   1743957   1745537   1746722  
  8520.000000   1747416   1747614   1747446   1747159   1747060  
  8510.000000   1747406   1748304   1749664   1751218   1752630  
  8500.000000   1753620   1754092   1754160   1754131   1754370  
  8490.000000   1755181   1756688   1758819   1761354   1763998  
  8480.000000   1766481   1768607   1770276   1771450   1772129  
  8470.000000   1772348   1772202   1771873   1771611   1771705  
  8460.000000   1772395   1773778   1775741   1777984   1780107  
  8450.000000   1781745   1782676   1782906   1782639   1782191  
  8440.000000   1781858   1781826   1782138   1782719   1783457  
  8430.000000   1784263   1785126   1786078   1787156   1788336  
  8420.000000   1789520   1790572   1791370   1791886   1792211  
  8410.000000   1792541   1793122   1794146   1795682   1797657  
  8400.000000   1799874   1802080   1804020   1805520   1806499  
  8390.000000   1806987   1807077   1806918   1806676   1806506  
  8380.000000   1806517   1806749   1807160   1807631   1807985  
  8370.000000   1808051   1807719   1807011   1806064   1805125  
  8360.000000   1804456   1804281   1804692   1805645   1806956  
  8350.000000   1808379   1809672   1810654   1811221   1811349  
  8340.000000   1811069   1810443   1809548   1808462   1807286  
  8330.000000   1806126   1805095   1804259   1803641   1803182  
  8320.000000   1802786   1802334   1801740   1800987   1800149  
  8310.000000   1799387   1798893   1798852   1799379   1800513  
  8300.000000   1802205   1804336   1806742   1809218   1811552  
  8290.000000   1813521   1814931   1815622   1815504   1814599  
  8280.000000   1813064   1811194   1809362   1807953   1807250  
  8270.000000   1807390   1808272   1809619   1810980   1811907  
  8260.000000   1812036   1811222   1809543   1807287   1804855  
  8250.000000   1802630   1800876   1799640   1798778   1798013  
  8240.000000   1797068   1795777   1794136   1792327   1790627  
  8230.000000   1789350   1788704   1788764   1789434   1790503  
  8220.000000   1791714   1792831   1793688   1794178   1794245  
  8210.000000   1793848   1792958   1791573   1789738   1787576  
  8200.000000   1785280   1783085   1781195   1779743   1778718  
  8190.000000   1778002   1777374   1776622   1775571   1774158  
  8180.000000   1772407   1770418   1768314   1766202   1764164  
  8170.000000   1762244   1760484   1758904   1757527   1756332  
  8160.000000   1755261   1754214   1753075   1751768   1750286  
  8150.000000   1748729   1747279   1746144   1745486   1745345  
  8140.000000   1745612   1746049   1746359   1746272   1745622  
  8130.000000   1744385   1742670   1740675   1738621   1736697  
  8120.000000   1735029   1733659   1732561   1731647   1730786  
  8110.000000   1729827   1728622   1727073   1725155   1722952  
  8100.000000   1720646   1718489   1716732   1715556   1715013  
  8090.000000   1714994   1715273   1715556   1715586   1715188  
  8080.000000   1714324   1713058   1711542   1709939   1708407  
  8070.000000   1707051   1705949   1705136   1704623   1704391  
  8060.000000   1704377   1704488   1704593   1704584   1704381  
  8050.000000   1703998   1703512   1703054   1702747   1702636  
  8040.000000   1702667   1702667   1702413   1701676   1700321  
  8030.000000   1698340   1695871   1693167   1690524   1688227  
  8020.000000   1686474   1685367   1684889   1684943   1685362  
  8010.000000   1685955   1686527   1686908   1686979   1686681  
  8000.000000   1686035   1685108   1684025   1682897   1681833  
  7990.000000   1680882   1680061   1679344   1678702   1678112  
  7980.000000   1677578   1677122   1676771   1676535   1676398  
  7970.000000   1676309   1676208   1676033   1675761   1675397  
  7960.000000   1674994   1674620   1674346   1674227   1674277  
  7950.000000   1674490   1674826   1675250   1675723   1676223  
  7940.000000   1676729   1677225   1677673   1678015   1678170  
  7930.000000   1678049   1677579   1676723   1675507   1674014  
  7920.000000   1672377   1670755   1669287   1668080   1667168  
  7910.000000   1666540   1666132   1665877   1665704   1665569  
  7900.000000   1665442   1665299   1665117   1664855   1664478  
  7890.000000   1663947   1663264   1662446   1661559   1660673  
  7880.000000   1659871   1659219   1658769   1658556   1658603  
  7870.000000   1658929   1659533   1660388   1661427   1662538  
  7860.000000   1663577   1664394   1664874   1664959   1664672  
  7850.000000   1664101   1663379   1662646   1662016   1661563  
  7840.000000   1661307   1661231   1661282   1661391   1661471  
  7830.000000   1661440   1661219   1660764   1660074   1659209  
  7820.000000   1658278   1657418   1656748   1656339   1656181  
  7810.000000   1656200   1656270   1656273   1656128   1655818  
  7800.000000   1655378   1654864   1654320   1653741   1653082  
  7790.000000   1652269   1651241   1649985   1648560   1647092  
  7780.000000   1645740   1644668   1643980   1643716   1643820  
  7770.000000   1644173   1644607   1644955   1645075   1644879  
  7760.000000   1644351   1643525   1642487   1641332   1640148  
  7750.000000   1638998   1637910   1636892   1635946   1635086  
  7740.000000   1634338   1633734   1633284   1632960   1632679  
  7730.000000   1632321   1631757   1630896   1629730   1628340  
  7720.000000   1626893   1625585   1624598   1624034   1623899  
  7710.000000   1624097   1624467   1624825   1625016   1624938  
  7700.000000   1624566   1623935   1623138   1622293   1621524  
  7690.000000   1620938   1620604   1620543   1620723   1621074  
  7680.000000   1621499   1621908   1622231   1622430   1622491  
  7670.000000   1622411   1622186   1621799   1621236   1620492  
  7660.000000   1619601   1618633   1617689   1616871   1616252  
  7650.000000   1615855   1615641   1615541   1615473   1615385  
  7640.000000   1615270   1615157   1615103   1615148   1615306  
  7630.000000   1615547   1615821   1616072   1616270   1616418  
  7620.000000   1616558   1616740   1617018   1617417   1617933  
  7610.000000   1618527   1619141   1619703   1620151   1620441  
  7600.000000   1620564   1620545   1620454   1620383   1620437  
  7590.000000   1620698   1621206   1621939   1622823   1623747  
  7580.000000   1624604   1625327   1625905   1626381   1626839  
  7570.000000   1627360   1628002   1628765   1629609   1630456  
  7560.000000   1631231   1631879   1632390   1632786   1633127  
  7550.000000   1633483   1633924   1634499   1635236   1636127  
  7540.000000   1637151   1638261   1639417   1640576   1641717  
  7530.000000   1642835   1643949   1645086   1646281   1647559  
  7520.000000   1648943   1650434   1652032   1653710   1655436  
  7510.000000   1657154   1658809   1660338   1661710   1662921  
  7500.000000   1664028   1665128   1666351   1667809   1669578  
  7490.000000   1671658   1673989   1676456   1678932   1681307  
  7480.000000   1683523   1685571   1687483   1689305   1691084  
  7470.000000   1692844   1694610   1696385   1698190   1700038  
  7460.000000   1701947   1703916   1705936   1707985   1710050  
  7450.000000   1712141   1714297   1716584   1719072   1721797  
  7440.000000   1724745   1727831   1730931   1733898   1736622  
  7430.000000   1739038   1741170   1743096   1744945   1746837  
  7420.000000   1748869   1751079   1753460   1755962   1758518  
  7410.000000   1761069   1763575   1766032   1768459   1770894  
  7400.000000   1773379   1775946   1778613   1781367   1784179  
  7390.000000   1786997   1789768   1792439   1794973   1797358  
  7380.000000   1799609   1801774   1803923   1806131   1808464  
  7370.000000   1810952   1813583   1816293   1818984   1821546  
  7360.000000   1823892   1825987   1827868   1829634   1831422  
  7350.000000   1833370   1835582   1838098   1840883   1843854  
  7340.000000   1846899   1849919   1852834   1855598   1858185  
  7330.000000   1860590   1862809   1864860   1866776   1868616  
  7320.000000   1870446   1872331   1874305   1876369   1878474  
  7310.000000   1880551   1882519   1884327   1885949   1887398  
  7300.000000   1888703   1889898   1891001   1892033   1893012  
  7290.000000   1893980   1894994   1896125   1897429   1898928  
  7280.000000   1900592   1902347   1904087   1905718   1907179  
  7270.000000   1908465   1909621   1910719   1911834   1913007  
  7260.000000   1914246   1915512   1916757   1917926   1918998  
  7250.000000   1919968   1920877   1921769   1922711   1923755  
  7240.000000   1924961   1926366   1928010   1929910   1932089  
  7230.000000   1934539   1937254   1940187   1943296   1946507  
  7220.000000   1949766   1953000   1956186   1959300   1962378  
  7210.000000   1965450   1968587   1971830   1975224   1978768  
  7200.000000   1982457   1986258   1990162   1994155   1998259  
  7190.000000   2002482   2006843   2011318   2015875   2020443  
  7180.000000   2024967   2029393   2033727   2037992   2042265  
  7170.000000   2046608   2051099   2055771   2060653   2065726  
  7160.000000   2070982   2076381   2081907   2087520   2093209  
  7150.000000   2098942   2104721   2110539   2116434   2122427  
  7140.000000   2128571   2134879   2141366   2147999   2154758  
  7130.000000   2161599   2168524   2175532   2182670   2189965  
  7120.000000   2197457   2205131   2212960   2220866   2228782  
  7110.000000   2236624   2244363   2251984   2259539   2267087  
  7100.000000   2274725   2282528   2290561   2298833   2307322  
  7090.000000   2315955   2324655   2333345   2341988   2350585  
  7080.000000   2359181   2367831   2376583   2385439   2394362  
  7070.000000   2403263   2412049   2420639   2429004   2437166  
  7060.000000   2445191   2453170   2461184   2469295   2477526  
  7050.000000   2485872   2494297   2502758   2511196   2519568  
  7040.000000   2527828   2535961   2543969   2551886   2559758  
  7030.000000   2567634   2575541   2583469   2591366   2599155  
  7020.000000   2606754   2614113   2621214   2628104   2634844  
  7010.000000   2641528   2648219   2654970   2661791   2668676  
  7000.000000   2675582   2682462   2689239   2695851   2702223  
  6990.000000   2708330   2714168   2719800   2725303   2730776  
  6980.000000   2736269   2741791   2747274   2752633   2757765  
  6970.000000   2762636   2767248   2771687   2776035   2780387  
  6960.000000   2784762   2789157   2793513   2797787   2801938  
  6950.000000   2805963   2809855   2813609   2817180   2820518  
  6940.000000   2823569   2826340   2828886   2831335   2833820  
  6930.000000   2836466   2839309   2842324   2845398   2848414  
  6920.000000   2851263   2853901   2856325   2858577   2860688  
  6910.000000   2862676   2864532   2866246   2867822   2869300  
  6900.000000   2870743   2872228   2873807   2875506   2877305  
  6890.000000   2879173   2881072   2882985   2884904   2886826  
  6880.000000   2888730   2890583   2892338   2893962   2895455  
  6870.000000   2896857   2898238   2899671   2901199   2902818  
  6860.000000   2904477   2906096   2907599   2908940   2910115  
  6850.000000   2911166   2912151   2913139   2914184   2915328  
  6840.000000   2916588   2917969   2919444   2920972   2922482  
  6830.000000   2923905   2925176   2926267   2927187   2927984  
  6820.000000   2928716   2929427   2930125   2930780   2931336  
  6810.000000   2931755   2932022   2932183   2932307   2932484  
  6800.000000   2932769   2933188   2933709   2934287   2934857  
  6790.000000   2935383   2935836   2936212   2936497   2936678  
  6780.000000   2936730   2936644   2936423   2936102   2935723  
  6770.000000   2935335   2934958   2934591   2934203   2933770  
  6760.000000   2933273   2932733   2932183   2931668   2931204  
  6750.000000   2930784   2930364   2929898   2929345   2928703  
  6740.000000   2927996   2927269   2926562   2925890   2925239  
  6730.000000   2924571   2923847   2923042   2922153   2921206  
  6720.000000   2920235   2919275   2918350   2917478   2916661  
  6710.000000   2915907   2915218   2914595   2914027   2913496  
  6700.000000   2912972   2912424   2911819   2911134   2910348  
  6690.000000   2909450   2908428   2907281   2906020   2904675  
  6680.000000   2903290   2901920   2900606   2899370   2898194  
  6670.000000   2897041   2895853   2894590   2893231   2891790  
  6660.000000   2890295   2888780   2887260   2885736   2884193  
  6650.000000   2882622   2881026   2879429   2877861   2876348  
  6640.000000   2874891   2873468   2872036   2870553   2868990  
  6630.000000   2867342   2865620   2863845   2862027   2860170  
  6620.000000   2858266   2856311   2854313   2852295   2850284  
  6610.000000   2848304   2846359   2844435   2842504   2840546  
  6600.000000   2838557   2836558   2834582   2832664   2830824  
  6590.000000   2829061   2827354   2825679   2824015   2822356  
  6580.000000   2820699   2819042   2817375   2815676   2813924  
  6570.000000   2812105   2810228   2808317   2806411   2804542  
  6560.000000   2802725   2800958   2799226   2797518   2795838  
  6550.000000   2794205   2792647   2791183   2789813   2788511  
  6540.000000   2787243   2785975   2784694   2783408   2782142  
  6530.000000   2780918   2779746   2778611   2777487   2776342  
  6520.000000   2775160   2773941   2772699   2771444   2770179  
  6510.000000   2768890   2767565   2766195   2764801   2763423  
  6500.000000   2762119   2760937   2759900   2758999   2758194  
  6490.000000   2757438   2756687   2755921   2755140   2754349  
  6480.000000   2753550   2752726   2751850   2750890   2749832  
  6470.000000   2748679   2747459   2746211   2744973   2743772  
  6460.000000   2742621   2741526   2740491   2739519   2738613  
  6450.000000   2737767   2736962   2736166   2735344   2734472  
  6440.000000   2733547   2732589   2731636   2730721   2729866  
  6430.000000   2729067   2728305   2727548   2726777   2725986  
  6420.000000   2725186   2724398   2723642   2722931   2722273  
  6410.000000   2721675   2721148   2720703   2720347   2720071  
  6400.000000   2719853   2719648   2719414   2719121   2718763  
  6390.000000   2718360   2717946   2717553   2717195   2716873  
  6380.000000   2716570   2716276   2715995   2715747   2715555  
  6370.000000   2715431   2715357   2715281   2715130   2714836  
  6360.000000   2714358   2713703   2712917   2712072   2711237  
  6350.000000   2710461   2709759   2709129   2708552   2708019  
  6340.000000   2707519   2707053   2706612   2706182   2705736  
  6330.000000   2705257   2704730   2704164   2703578   2702996  
  6320.000000   2702428   2701866   2701276   2700620   2699858  
  6310.000000   2698976   2697974   2696880   2695719   2694518  
  6300.000000   2693284   2692022   2690719   2689375   2687981  
  6290.000000   2686543   2685061   2683541   2681983   2680398  
  6280.000000   2678791   2677181   2675571   2673961   2672330  
  6270.000000   2670654   2668897   2667042   2665086   2663056  
  6260.000000   2660990   2658937   2656928   2654980   2653081  
  6250.000000   2651213   2649339   2647435   2645471   2643434  
  6240.000000   2641311   2639104   2636823   2634497   2632161  
  6230.000000   2629856   2627606   2625414   2623255   2621087  
  6220.000000   2618863   2616563   2614190   2611788   2609412  
  6210.000000   2607115   2604921   2602818   2600764   2598700  
  6200.000000   2596579   2594378   2592103   2589786   2587463  
  6190.000000   2585168   2582923   2580734   2578604   2576532  
  6180.000000   2574518   2572558   2570646   2568769   2566912  
  6170.000000   2565061   2563213   2561373   2559552   2557758  
  6160.000000   2555997   2554260   2552533   2550801   2549057  
  6150.000000   2547297   2545527   2543747   2541957   2540150  
  6140.000000   2538324   2536487   2534662   2532882   2531184  
  6130.000000   2529589   2528093   2526663   2525254   2523815  
  6120.000000   2522319   2520762   2519176   2517602   2516086  
  6110.000000   2514653   2513310   2512038   2510816   2509617  
  6100.000000   2508436   2507274   2506152   2505086   2504095  
  6090.000000   2503183   2502351   2501583   2500864   2500168  
  6080.000000   2499482   2498786   2498079   2497363   2496659  
  6070.000000   2495988   2495379   2494850   2494420   2494089  
  6060.000000   2493860   2493720   2493665   2493678   2493751  
  6050.000000   2493859   2493995   2494141   2494309   2494507  
  6040.000000   2494770   2495122   2495591   2496176   2496870  
  6030.000000   2497643   2498472   2499339   2500249   2501214  
  6020.000000   2502260   2503396   2504621   2505906   2507222  
  6010.000000   2508529   2509811   2511055   2512272   2513464  
  6000.000000   2514643   2515798   2516929   2518029   2519112  
  5990.000000   2520204   2521347   2522580   2523937   2525428  
  5980.000000   2527051   2528779   2530591   2532458   2534371  
  5970.000000   2536316   2538297   2540310   2542362   2544455  
  5960.000000   2546606   2548823   2551127   2553519   2556001  
  5950.000000   2558554   2561156   2563778   2566404   2569020  
  5940.000000   2571636   2574259   2576912   2579605   2582351  
  5930.000000   2585154   2588013   2590921   2593864   2596824  
  5920.000000   2599772   2602675   2605505   2608233   2610849  
  5910.000000   2613349   2615743   2618045   2620272   2622443  
  5900.000000   2624579   2626709   2628867   2631089   2633408  
  5890.000000   2635845   2638398   2641048   2643757   2646482  
  5880.000000   2649179   2651813   2654364   2656820   2659183  
  5870.000000   2661460   2663672   2665844   2668010   2670202  
  5860.000000   2672449   2674761   2677135   2679549   2681980  
  5850.000000   2684409   2686827   2689238   2691662   2694113  
  5840.000000   2696608   2699152   2701748   2704395   2707094  
  5830.000000   2709846   2712652   2715501   2718373   2721240  
  5820.000000   2724069   2726838   2729535   2732167   2734742  
  5810.000000   2737275   2739763   2742208   2744589   2746906  
  5800.000000   2749145   2751327   2753450   2755535   2757559  
  5790.000000   2759515   2761353   2763041   2764522   2765763  
  5780.000000   2766703   2767304   2767509   2767292   2766636  
  5770.000000   2765584   2764209   2762641   2761008   2759443  
  5760.000000   2758028   2756813   2755789   2754934   2754204  
  5750.000000   2753576   2753030   2752558   2752155   2751810  
  5740.000000   2751513   2751254   2751041   2750881   2750801  
  5730.000000   2750804   2750898   2751056   2751253   2751450  
  5720.000000   2751636   2751802   2751971   2752160   2752396  
  5710.000000   2752685   2753032   2753430   2753885   2754400  
  5700.000000   2754992   2755667   2756425   2757254   2758129  
  5690.000000   2759029   2759937   2760849   2761763   2762678  
  5680.000000   2763575   2764427   2765191   2765833   2766318  
  5670.000000   2766641   2766795   2766786   2766606   2766252  
  5660.000000   2765708   2764987   2764110   2763134   2762118  
  5650.000000   2761129   2760197   2759337   2758521   2757724  
  5640.000000   2756917   2756095   2755269   2754463   2753695  
  5630.000000   2752972   2752286   2751623   2750974   2750338  
  5620.000000   2749727   2749149   2748603   2748071   2747521  
  5610.000000   2746922   2746255   2745526   2744761   2744003  
  5600.000000   2743287   2742633   2742033   2741468   2740905  
  5590.000000   2740319   2739692   2739016   2738282   2737483  
  5580.000000   2736605   2735645   2734602   2733499   2732363  
  5570.000000   2731227   2730110   2729018   2727932   2726827  
  5560.000000   2725677   2724469   2723202   2721890   2720552  
  5550.000000   2719206   2717867   2716550   2715270   2714046  
  5540.000000   2712896   2711832   2710848   2709925   2709029  
  5530.000000   2708128   2707197   2706228   2705230   2704216  
  5520.000000   2703197   2702175   2701144   2700090   2699005  
  5510.000000   2697891   2696753   2695605   2694452   2693294  
  5500.000000   2692126   2690947   2689758   2688576   2687412  
  5490.000000   2686278   2685162   2684042   2682875   2681630  
  5480.000000   2680283   2678838   2677309   2675728   2674110  
  5470.000000   2672468   2670791   2669071   2667297   2665476  
  5460.000000   2663617   2661734   2659831   2657905   2655938  
  5450.000000   2653922   2651854   2649750   2647639   2645552  
  5440.000000   2643513   2641532   2639611   2637745   2635942  
  5430.000000   2634206   2632550   2630967   2629444   2627946  
  5420.000000   2626454   2624954   2623481   2622081   2620834  
  5410.000000   2619785   2618965   2618337   2617860   2617463  
  5400.000000   2617120   2616809   2616564   2616406   2616380  
  5390.000000   2616484   2616733   2617104   2617616   2618274  
  5380.000000   2619130   2620199   2621513   2623037   2624756  
  5370.000000   2626602   2628567   2630617   2632796   2635110  
  5360.000000   2637630   2640351   2643338   2646575   2650137  
  5350.000000   2654029   2658345   2663087   2668331   2674034  
  5340.000000   2680229   2686846   2693931   2701434   2709430  
  5330.000000   2717874   2726831   2736229   2746115   2756421  
  5320.000000   2767238   2778552   2790514   2803132   2816555  
  5310.000000   2830743   2845785   2861588   2878215   2895585  
  5300.000000   2913795   2932811   2952770   2973660   2995606  
  5290.000000   3018555   3042551   3067453   3093203   3119603  
  5280.000000   3146594   3174060   3202064   3230640   3259939  
  5270.000000   3290005   3320865   3352374   3384319   3416420  
  5260.000000   3448437   3480237   3511788   3543171   3574442  
  5250.000000   3605650   3636672   3667365   3697436   3726729  
  5240.000000   3755042   3782424   3808864   3834557   3859530  
  5230.000000   3883930   3907667   3930754   3952998   3974374  
  5220.000000   3994718   4014100   4032467   4049990   4066679  
  5210.000000   4082705   4098017   4112686   4126555   4139630  
  5200.000000   4151761   4163029   4173391   4183024   4191933  
  5190.000000   4200265   4207953   4215049   4221424   4227115  
  5180.000000   4232033   4236276   4239813   4242758   4245068  
  5170.000000   4246813   4247927   4248471   4248408   4247835  
  5160.000000   4246740   4245218   4243233   4240842   4237993  
  5150.000000   4234746   4231086   4227107   4222816   4218290  
  5140.000000   4213502   4208480   4203173   4197607   4191768  
  5130.000000   4185717   4179471   4173088   4166562   4159911  
  5120.000000   4153104   4146155   4139057   4131856   4124571  
  5110.000000   4117251   4109899   4102532   4095133   4087710  
  5100.000000   4080258   4072804   4065354   4057927   4050508  
  5090.000000   4043089   4035640   4028152   4020615   4013050  
  5080.000000   4005464   3997876   3990273   3982648   3974968  
  5070.000000   3967222   3959396   3951504   3943555   3935570  
  5060.000000   3927547   3919488   3911372   3903198   3894960  
  5050.000000   3886682   3878385   3870102   3861849   3853633  
  5040.000000   3845447   3837277   3829112   3820945   3812782  
  5030.000000   3804629   3796500   3788397   3780331   3772305  
  5020.000000   3764340   3756452   3748679   3741042   3733568  
  5010.000000   3726255   3719101   3712072   3705155   3698318  
  5000.000000   3691572   3684916   3678399   3672047   3665925  
  4990.000000   3660052   3654479   3649193   3644217   3639511  
  4980.000000   3635084   3630889   3626949   3623239   3619814  
  4970.000000   3616675   3613894   3611468   3609456   3607825  
  4960.000000   3606602   3605732   3605234   3605058   3605238  
  4950.000000   3605740   3606609   3607815   3609398   3611318  
  4940.000000   3613611   3616235   3619223   3622536   3626201  
  4930.000000   3630174   3634474   3639052   3643933   3649082  
  4920.000000   3654538   3660277   3666339   3672695   3679364  
  4910.000000   3686300   3693508   3700943   3708611   3716479  
  4900.000000   3724562   3732836   3741309   3749955   3758768  
  4890.000000   3767715   3776776   3785909   3795078   3804241  
  4880.000000   3813358   3822399   3831338   3840163   3848855  
  4870.000000   3857404   3865773   3873939   3881850   3889487  
  4860.000000   3896821   3903867   3910631   3917160   3923471  
  4850.000000   3929611   3935583   3941419   3947112   3952693  
  4840.000000   3958157   3963534   3968814   3974017   3979116  
  4830.000000   3984116   3988984   3993725   3998310   4002746  
  4820.000000   4007008   4011102   4015008   4018735   4022273  
  4810.000000   4025645   4028854   4031929   4034880   4037734  
  4800.000000   4040497   4043196   4045837   4048446   4051024  
  4790.000000   4053587   4056122   4058634   4061104   4063544  
  4780.000000   4065949   4068345   4070737   4073138   4075529  
  4770.000000   4077887   4080161   4082311   4084289   4086087  
  4760.000000   4087693   4089140   4090445   4091650   4092762  
  4750.000000   4093801   4094746   4095592   4096298   4096851  
  4740.000000   4097207   4097358   4097275   4096968   4096431  
  4730.000000   4095690   4094754   4093655   4092400   4091013  
  4720.000000   4089495   4087868   4086136   4084329   4082460  
  4710.000000   4080563   4078652   4076754   4074876   4073033  
  4700.000000   4071221   4069447   4067699   4065974   4064254  
  4690.000000   4062528   4060783   4059013   4057218   4055403  
  4680.000000   4053574   4051732   4049875   4047987   4046055  
  4670.000000   4044059   4041998   4039873   4037710   4035533  
  4660.000000   4033387   4031303   4029324   4027475   4025787  
  4650.000000   4024272   4022948   4021812   4020861   4020074  
  4640.000000   4019437   4018924   4018524   4018223   4018023  
  4630.000000   4017913   4017888   4017926   4018002   4018079  
  4620.000000   4018130   4018126   4018058   4017917   4017706  
  4610.000000   4017428   4017084   4016679   4016217   4015710  
  4600.000000   4015173   4014631   4014100   4013597   4013117  
  4590.000000   4012658   4012194   4011712   4011188   4010614  
  4580.000000   4009978   4009282   4008522   4007703   4006821  
  4570.000000   4005883   4004886   4003837   4002727   4001556  
  4560.000000   4000306   3998970   3997532   3995994   3994359  
  4550.000000   3992642   3990861   3989033   3987172   3985285  
  4540.000000   3983378   3981457   3979534   3977622   3975744  
  4530.000000   3973909   3972142   3970441   3968829   3967301  
  4520.000000   3965890   3964597   3963470   3962508   3961765  
  4510.000000   3961229   3960957   3960940   3961252   3961893  
  4500.000000   3962954   3964439   3966439   3968946   3972048  
  4490.000000   3975731   3980086   3985100   3990855   3997317  
  4480.000000   4004534   4012431   4021016   4030192   4039960  
  4470.000000   4050235   4061031   4072278   4083990   4096094  
  4460.000000   4108586   4121381   4134456   4147725   4161154  
  4450.000000   4174662   4188210   4201734   4215208   4228606  
  4440.000000   4241927   4255187   4268396   4281581   4294732  
  4430.000000   4307863   4320926   4333926   4346792   4359527  
  4420.000000   4372044   4384334   4396283   4407862   4418930  
  4410.000000   4429444   4439259   4448341   4456561   4463911  
  4400.000000   4470301   4475762   4480258   4483871   4486629  
  4390.000000   4488661   4490037   4490907   4491349   4491495  
  4380.000000   4491415   4491217   4490969   4490774   4490717  
  4370.000000   4490902   4491422   4492361   4493790   4495743  
  4360.000000   4498243   4501270   4504798   4508768   4513123  
  4350.000000   4517797   4522732   4527891   4533252   4538823  
  4340.000000   4544604   4550591   4556719   4562858   4568781  
  4330.000000   4574197   4578772   4582209   4584296   4584991  
  4320.000000   4584412   4582865   4580737   4578476   4576445  
  4310.000000   4574936   4574060   4573845   4574177   4574939  
  4300.000000   4575961   4577130   4578327   4579482   4580532  
  4290.000000   4581435   4582173   4582744   4583180   4583533  
  4280.000000   4583862   4584236   4584696   4585283   4585996  
  4270.000000   4586845   4587786   4588788   4589753   4590571  
  4260.000000   4591075   4591098   4590468   4589081   4586898  
  4250.000000   4583999   4580533   4576738   4572843   4569083  
  4240.000000   4565606   4562509   4559784   4557390   4555223  
  4230.000000   4553187   4551169   4549087   4546869   4544467  
  4220.000000   4541869   4539072   4536124   4533073   4530015  
  4210.000000   4527022   4524194   4521584   4519255   4517217  
  4200.000000   4515489   4514043   4512873   4511934   4511219  
  4190.000000   4510679   4510323   4510114   4510088   4510229  
  4180.000000   4510599   4511197   4512097   4513300   4514882  
  4170.000000   4516841   4519253   4522109   4525479   4529335  
  4160.000000   4533723   4538586   4543951   4549747   4556005  
  4150.000000   4562667   4569784   4577315   4585323   4593769  
  4140.000000   4602714   4612121   4622047   4632455   4643398  
  4130.000000   4654834   4666802   4679251   4692212   4705634  
  4120.000000   4719550   4733918   4748769   4764059   4779805  
  4110.000000   4795954   4812514   4829433   4846713   4864307  
  4100.000000   4882206   4900353   4918721   4937247   4955902  
  4090.000000   4974643   4993454   5012324   5031247   5050234  
  4080.000000   5069283   5088415   5107621   5126915   5146255  
  4070.000000   5165622   5184920   5204100   5223043   5241721  
  4060.000000   5260048   5278047   5295659   5312927   5329771  
  4050.000000   5346218   5362166   5377646   5392559   5406954  
  4040.000000   5420716   5433873   5446268   5457908   5468632  
  4030.000000   5478479   5487334   5495275   5502213   5508204  
  4020.000000   5513108   5516973   5519733   5521468   5522106  
  4010.000000   5521828   5520739   5518906   5516104   5512459  
  4000.000000   5508392  
##END= 
