##TITLE= Sample 019 By ssteindl date Dienstag, November 20 2018
##JCAMP-DX= 4.24
##DATA TYPE= INFRARED SPECTRUM
##ORIGIN= Exported PE Spectrum Data File
##OWNER= Sandra Steindl
##DATE= 18/11/20
##TIME= 16:26:44.00
##SPECTROMETER/DATA SYSTEM= PERKIN-ELMER Frontier FT-IR/NIR IR
##INSTRUMENT PARAMETERS=
  APODIZATION=stark
  DETECTOR=INGAAS
##RESOLUTION= 16.000000
##DELTAX= -2.000000
##XUNITS= 1/CM
##YUNITS= A
##XFACTOR= 1.00
##YFACTOR= 0.00000011920928955078
##FIRSTX= 10000.00
##LASTX= 4000.00
##NPOINTS= 3001
##FIRSTY= 0.208568
##MAXY= 0.651292
##MINY= 0.179577
##XYDATA= (X++(Y..Y))
 10000.000000   1749598   1745987   1742341   1738719   1735469  
  9990.000000   1732944   1731343   1730575   1730497   1730902  
  9980.000000   1731643   1732610   1733791   1735198   1736805  
  9970.000000   1738556   1740403   1742394   1744667   1747431  
  9960.000000   1750819   1754760   1758887   1762546   1764973  
  9950.000000   1765483   1763754   1759879   1754388   1748014  
  9940.000000   1741490   1735354   1729875   1725174   1721303  
  9930.000000   1718456   1716880   1716895   1718596   1721827  
  9920.000000   1726052   1730527   1734488   1737347   1738857  
  9910.000000   1739019   1738045   1736110   1733377   1729923  
  9900.000000   1725936   1721753   1717902   1714982   1713411  
  9890.000000   1713285   1714201   1715482   1716336   1716307  
  9880.000000   1715379   1714051   1713007   1712800   1713521  
  9870.000000   1714715   1715583   1715262   1713272   1709600  
  9860.000000   1704779   1699525   1694513   1690053   1686106  
  9850.000000   1682423   1678825   1675427   1672648   1671091  
  9840.000000   1671229   1673238   1676869   1681596   1686780  
  9830.000000   1691872   1696492   1700372   1703311   1705045  
  9820.000000   1705364   1704147   1701589   1698189   1694708  
  9810.000000   1691892   1690179   1689532   1689402   1689064  
  9800.000000   1687897   1685792   1683129   1680697   1679222  
  9790.000000   1679086   1680078   1681514   1682543   1682500  
  9780.000000   1681211   1678961   1676351   1673929   1671973  
  9770.000000   1670371   1668790   1666890   1664605   1662187  
  9760.000000   1660134   1658925   1658792   1659619   1661008  
  9750.000000   1662492   1663760   1664766   1665726   1666915  
  9740.000000   1668503   1670413   1672342   1673921   1674861  
  9730.000000   1675129   1674921   1674608   1674565   1675029  
  9720.000000   1676012   1677292   1678469   1679061   1678628  
  9710.000000   1676850   1673625   1669113   1663739   1658175  
  9700.000000   1653189   1649527   1647667   1647741   1649448  
  9690.000000   1652209   1655318   1658181   1660420   1661894  
  9680.000000   1662607   1662580   1661817   1660259   1657942  
  9670.000000   1655003   1651791   1648728   1646233   1644533  
  9660.000000   1643618   1643258   1643117   1642929   1642579  
  9650.000000   1642157   1641858   1641879   1642319   1643145  
  9640.000000   1644257   1645556   1647001   1648585   1650284  
  9630.000000   1651965   1653439   1654470   1654946   1654893  
  9620.000000   1654498   1653987   1653478   1652935   1652142  
  9610.000000   1650928   1649279   1647544   1646329   1646340  
  9600.000000   1648022   1651292   1655430   1659221   1661351  
  9590.000000   1660843   1657419   1651600   1644519   1637571  
  9580.000000   1631963   1628475   1627301   1628213   1630648  
  9570.000000   1633953   1637413   1640359   1642177   1642411  
  9560.000000   1640863   1637656   1633245   1628271   1623393  
  9550.000000   1619065   1615455   1612467   1609910   1607690  
  9540.000000   1605896   1604786   1604570   1605234   1606395  
  9530.000000   1607360   1607364   1605864   1602827   1598744  
  9520.000000   1594501   1591000   1588884   1588300   1588960  
  9510.000000   1590294   1591725   1592836   1593450   1593554  
  9500.000000   1593198   1592394   1591154   1589525   1587720  
  9490.000000   1586073   1584988   1584728   1585304   1586435  
  9480.000000   1587655   1588551   1588920   1588895   1588863  
  9470.000000   1589288   1590491   1592468   1594871   1597117  
  9460.000000   1598596   1598892   1597910   1595884   1593298  
  9450.000000   1590720   1588688   1587587   1587564   1588495  
  9440.000000   1589949   1591307   1591895   1591260   1589322  
  9430.000000   1586508   1583603   1581545   1581054   1582367  
  9420.000000   1585099   1588339   1590990   1592138   1591395  
  9410.000000   1588965   1585498   1581789   1578462   1575811  
  9400.000000   1573810   1572272   1571064   1570210   1569862  
  9390.000000   1570147   1570981   1572034   1572790   1572793  
  9380.000000   1571826   1570037   1567881   1565931   1564671  
  9370.000000   1564282   1564643   1565395   1566153   1566615  
  9360.000000   1566638   1566156   1565135   1563506   1561254  
  9350.000000   1558489   1555544   1552938   1551242   1550876  
  9340.000000   1551919   1554078   1556769   1559378   1561475  
  9330.000000   1562975   1564075   1565076   1566144   1567183  
  9320.000000   1567866   1567783   1566679   1564606   1561957  
  9310.000000   1559289   1557098   1555613   1554745   1554180  
  9300.000000   1553522   1552511   1551072   1549354   1547596  
  9290.000000   1546038   1544848   1544122   1543964   1544464  
  9280.000000   1545699   1547540   1549660   1551488   1552437  
  9270.000000   1552078   1550369   1547742   1545015   1543183  
  9260.000000   1543039   1544924   1548609   1553442   1558601  
  9250.000000   1563346   1567146   1569719   1570939   1570789  
  9240.000000   1569275   1566515   1562805   1558727   1555073  
  9230.000000   1552621   1551824   1552602   1554296   1555903  
  9220.000000   1556365   1554964   1551546   1546603   1541087  
  9210.000000   1536033   1532224   1529979   1529195   1529461  
  9200.000000   1530273   1531210   1532057   1532796   1533510  
  9190.000000   1534320   1535295   1536475   1537834   1539284  
  9180.000000   1540694   1541860   1542611   1542767   1542255  
  9170.000000   1541071   1539324   1537160   1534717   1532061  
  9160.000000   1529211   1526225   1523286   1520742   1519023  
  9150.000000   1518555   1519545   1521901   1525149   1528617  
  9140.000000   1531619   1533694   1534719   1534898   1534663  
  9130.000000   1534417   1534385   1534486   1534453   1533919  
  9120.000000   1532649   1530610   1528018   1525238   1522640  
  9110.000000   1520509   1518965   1518041   1517679   1517847  
  9100.000000   1518496   1519602   1521091   1522840   1524657  
  9090.000000   1526320   1527636   1528449   1528698   1528334  
  9080.000000   1527384   1525855   1523835   1521430   1518847  
  9070.000000   1516358   1514281   1512904   1512390   1512786  
  9060.000000   1513989   1515851   1518157   1520743   1523468  
  9050.000000   1526244   1528969   1531497   1533632   1535138  
  9040.000000   1535814   1535527   1534295   1532273   1529764  
  9030.000000   1527123   1524680   1522682   1521218   1520253  
  9020.000000   1519604   1519068   1518451   1517685   1516800  
  9010.000000   1515938   1515267   1514928   1514974   1515325  
  9000.000000   1515794   1516124   1516096   1515550   1514472  
  8990.000000   1512957   1511236   1509555   1508145   1507143  
  8980.000000   1506586   1506404   1506454   1506584   1506696  
  8970.000000   1506804   1507031   1507572   1508614   1510234  
  8960.000000   1512342   1514658   1516804   1518381   1519138  
  8950.000000   1519032   1518271   1517214   1516251   1515679  
  8940.000000   1515617   1516016   1516700   1517495   1518272  
  8930.000000   1518997   1519653   1520230   1520667   1520878  
  8920.000000   1520789   1520383   1519766   1519090   1518513  
  8910.000000   1518074   1517683   1517125   1516184   1514782  
  8900.000000   1513068   1511427   1510342   1510249   1511347  
  8890.000000   1513524   1516362   1519313   1521883   1523778  
  8880.000000   1524955   1525556   1525818   1525922   1525951  
  8870.000000   1525863   1525598   1525113   1524461   1523746  
  8860.000000   1523083   1522546   1522132   1521824   1521608  
  8850.000000   1521557   1521797   1522470   1523648   1525248  
  8840.000000   1527040   1528674   1529833   1530312   1530136  
  8830.000000   1529507   1528760   1528220   1528117   1528538  
  8820.000000   1529441   1530723   1532275   1534046   1536024  
  8810.000000   1538212   1540556   1542935   1545148   1546979  
  8800.000000   1548240   1548837   1548802   1548276   1547488  
  8790.000000   1546685   1546074   1545767   1545752   1545903  
  8780.000000   1546022   1545899   1545411   1544555   1543486  
  8770.000000   1542463   1541783   1541677   1542241   1543423  
  8760.000000   1545076   1547025   1549171   1551508   1554129  
  8750.000000   1557115   1560471   1564026   1567482   1570463  
  8740.000000   1572678   1573996   1574539   1574622   1574674  
  8730.000000   1575098   1576146   1577883   1580161   1582733  
  8720.000000   1585295   1587608   1589508   1590941   1591929  
  8710.000000   1592562   1592958   1593236   1593492   1593764  
  8700.000000   1594054   1594299   1594443   1594450   1594363  
  8690.000000   1594312   1594471   1595028   1596100   1597718  
  8680.000000   1599809   1602243   1604893   1607655   1610482  
  8670.000000   1613323   1616105   1618668   1620814   1622330  
  8660.000000   1623120   1623248   1622994   1622764   1622992  
  8650.000000   1623986   1625834   1628386   1631300   1634182  
  8640.000000   1636707   1638729   1640297   1641608   1642912  
  8630.000000   1644406   1646188   1648234   1650441   1652662  
  8620.000000   1654763   1656654   1658301   1659744   1661057  
  8610.000000   1662364   1663778   1665401   1667258   1669291  
  8600.000000   1671345   1673202   1674640   1675504   1675778  
  8590.000000   1675585   1675170   1674821   1674784   1675191  
  8580.000000   1676017   1677130   1678348   1679546   1680695  
  8570.000000   1681882   1683267   1685001   1687139   1689592  
  8560.000000   1692137   1694468   1696314   1697522   1698131  
  8550.000000   1698356   1698525   1698964   1699885   1701326  
  8540.000000   1703131   1705021   1706687   1707905   1708591  
  8530.000000   1708828   1708804   1708748   1708850   1709219  
  8520.000000   1709885   1710802   1711904   1713102   1714315  
  8510.000000   1715456   1716436   1717193   1717723   1718122  
  8500.000000   1718593   1719411   1720843   1723046   1725982  
  8490.000000   1729398   1732875   1735946   1738251   1739627  
  8480.000000   1740180   1740197   1740066   1740107   1740499  
  8470.000000   1741248   1742233   1743306   1744371   1745449  
  8460.000000   1746655   1748153   1750047   1752347   1754936  
  8450.000000   1757610   1760128   1762277   1763933   1765067  
  8440.000000   1765743   1766092   1766281   1766497   1766904  
  8430.000000   1767636   1768757   1770258   1772043   1773930  
  8420.000000   1775689   1777086   1777948   1778194   1777850  
  8410.000000   1777061   1776061   1775142   1774575   1774591  
  8400.000000   1775312   1776769   1778856   1781379   1784064  
  8390.000000   1786643   1788874   1790588   1791693   1792171  
  8380.000000   1792069   1791459   1790446   1789145   1787706  
  8370.000000   1786309   1785139   1784365   1784078   1784291  
  8360.000000   1784895   1785714   1786526   1787152   1787490  
  8350.000000   1787540   1787380   1787124   1786878   1786717  
  8340.000000   1786673   1786747   1786938   1787248   1787694  
  8330.000000   1788268   1788925   1789559   1790028   1790189  
  8320.000000   1789951   1789313   1788382   1787356   1786476  
  8310.000000   1785956   1785923   1786394   1787273   1788403  
  8300.000000   1789598   1790713   1791665   1792447   1793097  
  8290.000000   1793663   1794164   1794568   1794793   1794727  
  8280.000000   1794274   1793396   1792137   1790635   1789070  
  8270.000000   1787643   1786496   1785709   1785251   1785031  
  8260.000000   1784900   1784725   1784393   1783856   1783106  
  8250.000000   1782182   1781146   1780079   1779067   1778174  
  8240.000000   1777447   1776875   1776408   1775932   1775320  
  8230.000000   1774455   1773283   1771846   1770283   1768802  
  8220.000000   1767611   1766872   1766644   1766889   1767472  
  8210.000000   1768216   1768938   1769487   1769757   1769682  
  8200.000000   1769230   1768395   1767209   1765737   1764080  
  8190.000000   1762359   1760689   1759165   1757837   1756726  
  8180.000000   1755818   1755101   1754549   1754137   1753797  
  8170.000000   1753425   1752863   1751955   1750602   1748820  
  8160.000000   1746773   1744730   1742994   1741785   1741160  
  8150.000000   1740975   1740930   1740670   1739916   1738567  
  8140.000000   1736723   1734642   1732622   1730915   1729636  
  8130.000000   1728771   1728207   1727809   1727471   1727131  
  8120.000000   1726757   1726301   1725676   1724771   1723481  
  8110.000000   1721779   1719745   1717561   1715466   1713672  
  8100.000000   1712299   1711332   1710643   1710037   1709325  
  8090.000000   1708383   1707172   1705718   1704095   1702375  
  8080.000000   1700634   1698944   1697392   1696074   1695081  
  8070.000000   1694469   1694228   1694283   1694504   1694753  
  8060.000000   1694923   1694963   1694878   1694686   1694399  
  8050.000000   1693974   1693341   1692418   1691173   1689651  
  8040.000000   1687989   1686378   1685011   1684025   1683462  
  8030.000000   1683273   1683332   1683501   1683650   1683697  
  8020.000000   1683599   1683347   1682952   1682438   1681844  
  8010.000000   1681221   1680628   1680102   1679652   1679229  
  8000.000000   1678746   1678109   1677247   1676168   1674951  
  7990.000000   1673754   1672737   1672038   1671694   1671650  
  7980.000000   1671757   1671825   1671680   1671199   1670349  
  7970.000000   1669157   1667718   1666128   1664489   1662874  
  7960.000000   1661340   1659925   1658663   1657594   1656765  
  7950.000000   1656234   1656048   1656241   1656799   1657653  
  7940.000000   1658674   1659681   1660492   1660946   1660971  
  7930.000000   1660580   1659892   1659072   1658301   1657707  
  7920.000000   1657345   1657186   1657148   1657143   1657102  
  7910.000000   1657017   1656918   1656869   1656923   1657109  
  7900.000000   1657410   1657780   1658154   1658462   1658652  
  7890.000000   1658686   1658551   1658253   1657816   1657283  
  7880.000000   1656702   1656124   1655585   1655103   1654674  
  7870.000000   1654283   1653914   1653562   1653234   1652946  
  7860.000000   1652702   1652492   1652282   1652033   1651721  
  7850.000000   1651359   1651004   1650743   1650659   1650796  
  7840.000000   1651126   1651554   1651940   1652150   1652096  
  7830.000000   1651771   1651246   1650644   1650098   1649701  
  7820.000000   1649490   1649428   1649434   1649400   1649226  
  7810.000000   1648847   1648236   1647426   1646486   1645534  
  7800.000000   1644692   1644089   1643808   1643879   1644252  
  7790.000000   1644809   1645384   1645793   1645880   1645540  
  7780.000000   1644743   1643529   1641997   1640282   1638534  
  7770.000000   1636901   1635509   1634448   1633758   1633426  
  7760.000000   1633374   1633488   1633624   1633656   1633490  
  7750.000000   1633090   1632478   1631720   1630902   1630097  
  7740.000000   1629360   1628703   1628115   1627561   1627005  
  7730.000000   1626417   1625778   1625090   1624373   1623661  
  7720.000000   1623001   1622437   1622003   1621706   1621525  
  7710.000000   1621407   1621286   1621095   1620789   1620354  
  7700.000000   1619816   1619228   1618656   1618163   1617793  
  7690.000000   1617562   1617462   1617467   1617541   1617649  
  7680.000000   1617757   1617839   1617870   1617826   1617683  
  7670.000000   1617420   1617024   1616493   1615847   1615124  
  7660.000000   1614382   1613681   1613078   1612606   1612271  
  7650.000000   1612051   1611907   1611798   1611703   1611621  
  7640.000000   1611577   1611604   1611729   1611953   1612252  
  7630.000000   1612581   1612895   1613164   1613392   1613607  
  7620.000000   1613856   1614174   1614576   1615038   1615513  
  7610.000000   1615935   1616254   1616439   1616502   1616479  
  7600.000000   1616431   1616419   1616496   1616696   1617029  
  7590.000000   1617484   1618030   1618626   1619232   1619811  
  7580.000000   1620347   1620836   1621298   1621751   1622216  
  7570.000000   1622693   1623175   1623638   1624071   1624476  
  7560.000000   1624886   1625354   1625947   1626715   1627681  
  7550.000000   1628826   1630099   1631425   1632738   1633991  
  7540.000000   1635175   1636303   1637414   1638539   1639705  
  7530.000000   1640912   1642153   1643402   1644647   1645878  
  7520.000000   1647109   1648353   1649642   1650995   1652434  
  7510.000000   1653964   1655589   1657304   1659109   1661006  
  7500.000000   1663003   1665103   1667306   1669591   1671925  
  7490.000000   1674249   1676503   1678619   1680556   1682289  
  7480.000000   1683839   1685251   1686597   1687951   1689387  
  7470.000000   1690957   1692693   1694604   1696684   1698914  
  7460.000000   1701276   1703750   1706319   1708957   1711640  
  7450.000000   1714325   1716977   1719549   1722019   1724382  
  7440.000000   1726680   1728977   1731360   1733909   1736678  
  7430.000000   1739678   1742869   1746173   1749492   1752736  
  7420.000000   1755839   1758766   1761507   1764066   1766455  
  7410.000000   1768687   1770784   1772780   1774729   1776696  
  7400.000000   1778742   1780901   1783175   1785527   1787898  
  7390.000000   1790236   1792515   1794753   1797000   1799330  
  7380.000000   1801807   1804468   1807311   1810308   1813411  
  7370.000000   1816572   1819746   1822885   1825940   1828856  
  7360.000000   1831579   1834071   1836330   1838388   1840316  
  7350.000000   1842196   1844101   1846079   1848137   1850261  
  7340.000000   1852427   1854624   1856857   1859147   1861505  
  7330.000000   1863932   1866399   1868871   1871306   1873686  
  7320.000000   1876005   1878278   1880514   1882708   1884829  
  7310.000000   1886844   1888723   1890466   1892102   1893687  
  7300.000000   1895264   1896854   1898432   1899941   1901308  
  7290.000000   1902488   1903469   1904300   1905055   1905825  
  7280.000000   1906673   1907639   1908724   1909914   1911184  
  7270.000000   1912516   1913894   1915298   1916698   1918049  
  7260.000000   1919306   1920428   1921413   1922276   1923082  
  7250.000000   1923891   1924772   1925755   1926857   1928051  
  7240.000000   1929321   1930646   1932043   1933543   1935212  
  7230.000000   1937101   1939267   1941717   1944447   1947398  
  7220.000000   1950509   1953693   1956895   1960063   1963206  
  7210.000000   1966336   1969517   1972785   1976186   1979705  
  7200.000000   1983317   1986956   1990585   1994178   1997774  
  7190.000000   2001437   2005273   2009357   2013746   2018405  
  7180.000000   2023264   2028190   2033072   2037808   2042384  
  7170.000000   2046825   2051239   2055739   2060461   2065484  
  7160.000000   2070855   2076542   2082494   2088613   2094828  
  7150.000000   2101057   2107276   2113457   2119630   2125807  
  7140.000000   2132033   2138328   2144736   2151281   2158014  
  7130.000000   2164969   2172197   2179708   2187504   2195523  
  7120.000000   2203695   2211904   2220072   2228116   2236020  
  7110.000000   2243777   2251434   2259026   2266621   2274268  
  7100.000000   2282050   2290041   2298333   2306979   2316006  
  7090.000000   2325370   2334978   2344688   2354368   2363903  
  7080.000000   2373251   2382413   2391454   2400435   2409425  
  7070.000000   2418450   2427520   2436621   2445750   2454916  
  7060.000000   2464142   2473453   2482863   2492365   2501921  
  7050.000000   2511482   2520984   2530379   2539624   2548705  
  7040.000000   2557620   2566392   2575053   2583646   2592203  
  7030.000000   2600744   2609249   2617673   2625939   2633984  
  7020.000000   2641765   2649307   2656672   2663975   2671312  
  7010.000000   2678760   2686322   2693962   2701593   2709140  
  7000.000000   2716532   2723752   2730791   2737670   2744386  
  6990.000000   2750949   2757345   2763594   2769705   2775722  
  6980.000000   2781661   2787541   2793325   2798972   2804417  
  6970.000000   2809634   2814603   2819359   2823930   2828362  
  6960.000000   2832661   2836843   2840902   2844877   2848805  
  6950.000000   2852766   2856800   2860930   2865099   2869221  
  6940.000000   2873168   2876852   2880216   2883281   2886095  
  6930.000000   2888739   2891265   2893708   2896066   2898342  
  6920.000000   2900535   2902673   2904779   2906886   2908993  
  6910.000000   2911097   2913172   2915213   2917215   2919200  
  6900.000000   2921179   2923156   2925109   2927007   2928827  
  6890.000000   2930573   2932275   2933982   2935716   2937465  
  6880.000000   2939162   2940722   2942066   2943186   2944144  
  6870.000000   2945073   2946111   2947359   2948821   2950415  
  6860.000000   2951993   2953415   2954590   2955513   2956246  
  6850.000000   2956888   2957520   2958187   2958889   2959617  
  6840.000000   2960370   2961183   2962098   2963155   2964344  
  6830.000000   2965611   2966851   2967969   2968894   2969626  
  6820.000000   2970209   2970714   2971195   2971669   2972105  
  6810.000000   2972460   2972695   2972812   2972838   2972826  
  6800.000000   2972812   2972813   2972812   2972789   2972726  
  6790.000000   2972633   2972533   2972452   2972390   2972321  
  6780.000000   2972196   2971978   2971652   2971257   2970853  
  6770.000000   2970510   2970255   2970076   2969909   2969679  
  6760.000000   2969319   2968810   2968164   2967425   2966621  
  6750.000000   2965766   2964839   2963827   2962724   2961572  
  6740.000000   2960429   2959366   2958415   2957565   2956746  
  6730.000000   2955867   2954841   2953629   2952245   2950757  
  6720.000000   2949247   2947795   2946447   2945222   2944111  
  6710.000000   2943102   2942174   2941308   2940468   2939607  
  6700.000000   2938664   2937587   2936340   2934933   2933402  
  6690.000000   2931810   2930214   2928657   2927145   2925670  
  6680.000000   2924207   2922739   2921255   2919751   2918219  
  6670.000000   2916644   2915002   2913273   2911449   2909548  
  6660.000000   2907601   2905655   2903746   2901902   2900127  
  6650.000000   2898426   2896793   2895228   2893718   2892241  
  6640.000000   2890745   2889163   2887419   2885468   2883301  
  6630.000000   2880970   2878565   2876191   2873933   2871832  
  6620.000000   2869869   2867990   2866119   2864196   2862186  
  6610.000000   2860090   2857930   2855735   2853530   2851327  
  6600.000000   2849128   2846930   2844731   2842533   2840343  
  6590.000000   2838175   2836047   2833986   2832020   2830169  
  6580.000000   2828440   2826812   2825246   2823679   2822060  
  6570.000000   2820353   2818563   2816731   2814921   2813198  
  6560.000000   2811603   2810142   2808787   2807479   2806163  
  6550.000000   2804788   2803329   2801781   2800162   2798496  
  6540.000000   2796820   2795169   2793578   2792071   2790659  
  6530.000000   2789329   2788057   2786806   2785549   2784276  
  6520.000000   2782998   2781743   2780539   2779398   2778316  
  6510.000000   2777269   2776235   2775202   2774185   2773211  
  6500.000000   2772313   2771503   2770760   2770033   2769262  
  6490.000000   2768392   2767405   2766321   2765192   2764078  
  6480.000000   2763028   2762062   2761174   2760339   2759529  
  6470.000000   2758723   2757909   2757077   2756217   2755315  
  6460.000000   2754361   2753357   2752324   2751297   2750318  
  6450.000000   2749414   2748593   2747837   2747115   2746398  
  6440.000000   2745676   2744957   2744269   2743635   2743068  
  6430.000000   2742557   2742077   2741596   2741090   2740549  
  6420.000000   2739978   2739384   2738777   2738158   2737534  
  6410.000000   2736910   2736307   2735746   2735245   2734806  
  6400.000000   2734409   2734026   2733625   2733197   2732757  
  6390.000000   2732340   2731981   2731700   2731479   2731271  
  6380.000000   2731014   2730651   2730158   2729541   2728833  
  6370.000000   2728075   2727291   2726493   2725675   2724841  
  6360.000000   2724010   2723225   2722534   2721975   2721546  
  6350.000000   2721209   2720894   2720527   2720048   2719434  
  6340.000000   2718690   2717851   2716952   2716031   2715112  
  6330.000000   2714223   2713389   2712639   2711983   2711416  
  6320.000000   2710887   2710327   2709646   2708784   2707713  
  6310.000000   2706463   2705096   2703696   2702317   2700986  
  6300.000000   2699680   2698361   2696982   2695522   2693974  
  6290.000000   2692362   2690702   2689015   2687300   2685564  
  6280.000000   2683800   2682021   2680233   2678444   2676637  
  6270.000000   2674790   2672863   2670826   2668666   2666400  
  6260.000000   2664058   2661690   2659325   2656990   2654686  
  6250.000000   2652421   2650197   2648038   2645956   2643959  
  6240.000000   2642022   2640095   2638106   2635989   2633700  
  6230.000000   2631240   2628644   2625978   2623308   2620688  
  6220.000000   2618147   2615690   2613307   2610979   2608681  
  6210.000000   2606390   2604073   2601700   2599245   2596701  
  6200.000000   2594085   2591434   2588797   2586216   2583715  
  6190.000000   2581286   2578907   2576553   2574207   2571876  
  6180.000000   2569580   2567346   2565188   2563101   2561067  
  6170.000000   2559058   2557058   2555059   2553068   2551092  
  6160.000000   2549128   2547160   2545166   2543125   2541037  
  6150.000000   2538923   2536823   2534776   2532808   2530915  
  6140.000000   2529073   2527241   2525388   2523499   2521589  
  6130.000000   2519684   2517813   2515997   2514241   2512538  
  6120.000000   2510882   2509272   2507717   2506226   2504808  
  6110.000000   2503452   2502141   2500847   2499550   2498238  
  6100.000000   2496921   2495614   2494342   2493113   2491935  
  6090.000000   2490801   2489709   2488652   2487639   2486673  
  6080.000000   2485766   2484915   2484120   2483369   2482663  
  6070.000000   2481995   2481375   2480804   2480291   2479830  
  6060.000000   2479426   2479070   2478774   2478544   2478402  
  6050.000000   2478352   2478402   2478538   2478747   2479003  
  6040.000000   2479301   2479631   2480008   2480438   2480934  
  6030.000000   2481494   2482118   2482795   2483524   2484300  
  6020.000000   2485129   2486004   2486921   2487856   2488793  
  6010.000000   2489709   2490601   2491467   2492325   2493186  
  6000.000000   2494064   2494954   2495854   2496753   2497657  
  5990.000000   2498571   2499520   2500519   2501591   2502738  
  5980.000000   2503966   2505268   2506654   2508128   2509708  
  5970.000000   2511396   2513194   2515078   2517024   2518997  
  5960.000000   2520983   2522968   2524967   2526987   2529046  
  5950.000000   2531136   2533253   2535379   2537510   2539647  
  5940.000000   2541812   2544030   2546331   2548728   2551225  
  5930.000000   2553802   2556432   2559082   2561720   2564317  
  5920.000000   2566852   2569310   2571686   2573979   2576202  
  5910.000000   2578372   2580507   2582618   2584712   2586785  
  5900.000000   2588832   2590856   2592864   2594877   2596917  
  5890.000000   2599005   2601145   2603329   2605536   2607740  
  5880.000000   2609922   2612069   2614179   2616252   2618290  
  5870.000000   2620287   2622241   2624149   2626027   2627891  
  5860.000000   2629773   2631694   2633673   2635710   2637801  
  5850.000000   2639937   2642119   2644354   2646654   2649029  
  5840.000000   2651479   2653987   2656534   2659098   2661665  
  5830.000000   2664238   2666822   2669427   2672045   2674660  
  5820.000000   2677236   2679743   2682154   2684462   2686667  
  5810.000000   2688788   2690828   2692796   2694679   2696487  
  5800.000000   2698211   2699883   2701508   2703114   2704676  
  5790.000000   2706175   2707541   2708722   2709648   2710292  
  5780.000000   2710627   2710666   2710410   2709877   2709073  
  5770.000000   2708026   2706765   2705355   2703863   2702376  
  5760.000000   2700961   2699678   2698551   2697597   2696809  
  5750.000000   2696183   2695707   2695361   2695122   2694952  
  5740.000000   2694823   2694707   2694607   2694534   2694523  
  5730.000000   2694591   2694752   2694981   2695247   2695501  
  5720.000000   2695721   2695900   2696073   2696280   2696571  
  5710.000000   2696969   2697477   2698072   2698722   2699399  
  5700.000000   2700087   2700782   2701490   2702212   2702946  
  5690.000000   2703684   2704415   2705143   2705870   2706611  
  5680.000000   2707369   2708146   2708919   2709661   2710329  
  5670.000000   2710889   2711302   2711544   2711588   2711428  
  5660.000000   2711056   2710493   2709771   2708949   2708084  
  5650.000000   2707241   2706449   2705725   2705049   2704400  
  5640.000000   2703746   2703078   2702393   2701706   2701023  
  5630.000000   2700353   2699688   2699023   2698354   2697686  
  5620.000000   2697036   2696417   2695837   2695286   2694737  
  5610.000000   2694160   2693524   2692817   2692044   2691229  
  5600.000000   2690395   2689564   2688741   2687924   2687099  
  5590.000000   2686255   2685381   2684474   2683529   2682544  
  5580.000000   2681515   2680443   2679332   2678197   2677051  
  5570.000000   2675905   2674757   2673596   2672399   2671146  
  5560.000000   2669822   2668434   2666996   2665535   2664075  
  5550.000000   2662633   2661215   2659823   2658452   2657103  
  5540.000000   2655774   2654462   2653161   2651859   2650545  
  5530.000000   2649216   2647881   2646559   2645272   2644036  
  5520.000000   2642852   2641706   2640573   2639428   2638257  
  5510.000000   2637059   2635844   2634622   2633397   2632164  
  5500.000000   2630909   2629629   2628323   2627013   2625718  
  5490.000000   2624454   2623213   2621971   2620685   2619322  
  5480.000000   2617857   2616300   2614673   2613012   2611338  
  5470.000000   2609658   2607951   2606199   2604378   2602493  
  5460.000000   2600552   2598581   2596588   2594576   2592529  
  5450.000000   2590428   2588259   2586027   2583752   2581463  
  5440.000000   2579187   2576943   2574741   2572587   2570496  
  5430.000000   2568480   2566560   2564736   2563000   2561316  
  5420.000000   2559661   2558012   2556394   2554846   2553447  
  5410.000000   2552250   2551297   2550563   2550016   2549582  
  5400.000000   2549227   2548915   2548667   2548494   2548436  
  5390.000000   2548495   2548687   2548993   2549434   2550017  
  5380.000000   2550796   2551792   2553048   2554540   2556260  
  5370.000000   2558138   2560157   2562264   2564483   2566803  
  5360.000000   2569284   2571923   2574790   2577882   2581279  
  5350.000000   2584993   2589118   2593658   2598687   2604168  
  5340.000000   2610137   2616528   2623383   2630647   2638384  
  5330.000000   2646548   2655201   2664281   2673843   2683831  
  5320.000000   2694334   2705335   2716968   2729226   2742238  
  5310.000000   2755960   2770480   2785716   2801743   2818490  
  5300.000000   2836061   2854426   2873721   2893938   2915211  
  5290.000000   2937500   2960870   2985197   3010444   3036423  
  5280.000000   3063081   3090296   3118120   3146560   3175745  
  5270.000000   3205685   3236385   3267678   3299352   3331139  
  5260.000000   3362828   3394319   3425612   3456809   3487973  
  5250.000000   3519144   3550183   3580922   3611052   3640400  
  5240.000000   3668764   3696193   3722685   3748439   3773485  
  5230.000000   3797966   3821787   3844955   3867272   3888715  
  5220.000000   3909127   3928584   3947046   3964693   3981536  
  5210.000000   3997748   4013270   4028164   4042263   4055561  
  5200.000000   4067898   4079343   4089843   4099564   4108497  
  5190.000000   4116782   4124349   4131254   4137381   4142789  
  5180.000000   4147410   4151362   4154626   4157315   4159375  
  5170.000000   4160864   4161694   4161920   4161498   4160533  
  5160.000000   4159031   4157107   4154745   4152015   4148869  
  5150.000000   4145359   4141450   4137211   4132625   4127748  
  5140.000000   4122544   4117045   4111212   4105097   4098707  
  5130.000000   4092128   4085386   4078545   4071589   4064529  
  5120.000000   4057318   4049965   4042459   4034847   4027152  
  5110.000000   4019422   4011658   4003864   3996011   3988094  
  5100.000000   3980099   3972050   3963964   3955873   3947783  
  5090.000000   3939705   3931624   3923544   3915464   3907405  
  5080.000000   3899376   3891392   3883440   3875503   3867546  
  5070.000000   3859547   3851489   3843383   3835241   3827089  
  5060.000000   3818939   3810800   3802663   3794525   3786377  
  5050.000000   3778224   3770066   3761909   3753745   3745562  
  5040.000000   3737343   3729074   3720751   3712385   3704003  
  5030.000000   3695631   3687303   3679041   3670868   3662794  
  5020.000000   3654840   3647011   3639328   3631787   3624399  
  5010.000000   3617147   3610035   3603044   3596196   3589492  
  5000.000000   3582978   3576659   3570580   3564730   3559135  
  4990.000000   3553766   3548651   3543770   3539173   3534854  
  4980.000000   3530874   3527220   3523940   3521003   3518441  
  4970.000000   3516216   3514362   3512842   3511694   3510880  
  4960.000000   3510438   3510330   3510602   3511228   3512264  
  4950.000000   3513687   3515548   3517807   3520492   3523544  
  4940.000000   3526979   3530740   3534854   3539278   3544049  
  4930.000000   3549127   3554542   3560253   3566285   3572601  
  4920.000000   3579232   3586145   3593367   3600862   3608639  
  4910.000000   3616655   3624915   3633381   3642062   3650928  
  4900.000000   3659983   3669191   3678541   3687994   3697531  
  4890.000000   3707127   3716771   3726445   3736134   3745816  
  4880.000000   3755461   3765042   3774525   3783894   3793120  
  4870.000000   3802198   3811096   3819803   3828285   3836540  
  4860.000000   3844551   3852346   3859935   3867364   3874636  
  4850.000000   3881778   3888765   3895599   3902244   3908711  
  4840.000000   3914982   3921095   3927049   3932884   3938588  
  4830.000000   3944182   3949636   3954954   3960099   3965072  
  4820.000000   3969840   3974406   3978748   3982881   3986801  
  4810.000000   3990539   3994104   3997531   4000826   4004012  
  4800.000000   4007082   4010056   4012928   4015724   4018449  
  4790.000000   4021135   4023784   4026415   4029017   4031597  
  4780.000000   4034133   4036627   4039054   4041412   4043665  
  4770.000000   4045800   4047774   4049576   4051177   4052586  
  4760.000000   4053795   4054831   4055691   4056396   4056930  
  4750.000000   4057307   4057504   4057540   4057403   4057119  
  4740.000000   4056678   4056102   4055370   4054489   4053431  
  4730.000000   4052198   4050768   4049152   4047338   4045349  
  4720.000000   4043186   4040879   4038436   4035894   4033266  
  4710.000000   4030581   4027851   4025098   4022325   4019552  
  4700.000000   4016779   4014024   4011288   4008580   4005893  
  4690.000000   4003224   4000558   3997889   3995206   3992507  
  4680.000000   3989789   3987051   3984286   3981477   3978613  
  4670.000000   3975671   3972648   3969546   3966394   3963225  
  4660.000000   3960097   3957059   3954167   3951460   3948973  
  4650.000000   3946716   3944697   3942898   3941302   3939870  
  4640.000000   3938569   3937357   3936211   3935103   3934033  
  4630.000000   3932994   3931998   3931040   3930124   3929235  
  4620.000000   3928362   3927481   3926580   3925637   3924643  
  4610.000000   3923585   3922463   3921278   3920046   3918790  
  4600.000000   3917544   3916346   3915228   3914213   3913305  
  4590.000000   3912498   3911765   3911083   3910418   3909748  
  4580.000000   3909050   3908308   3907502   3906622   3905652  
  4570.000000   3904589   3903428   3902178   3900843   3899434  
  4560.000000   3897950   3896396   3894766   3893060   3891278  
  4550.000000   3889428   3887517   3885556   3883553   3881514  
  4540.000000   3879447   3877363   3875287   3873244   3871274  
  4530.000000   3869401   3867663   3866058   3864608   3863291  
  4520.000000   3862122   3861076   3860188   3859442   3858897  
  4510.000000   3858552   3858491   3858727   3859364   3860421  
  4500.000000   3862003   3864106   3866811   3870080   3873975  
  4490.000000   3878447   3883571   3889320   3895792   3902970  
  4480.000000   3910940   3919659   3929169   3939389   3950327  
  4470.000000   3961884   3974054   3986743   3999937   4013540  
  4460.000000   4027524   4041790   4056293   4070932   4085653  
  4450.000000   4100363   4115009   4129525   4143881   4158059  
  4440.000000   4172058   4185904   4199603   4213195   4226664  
  4430.000000   4240039   4253271   4266381   4279296   4292031  
  4420.000000   4304490   4316669   4328436   4339760   4350480  
  4410.000000   4360550   4369808   4378222   4385659   4392128  
  4400.000000   4397546   4401973   4405382   4407875   4409467  
  4390.000000   4410284   4410370   4409859   4408820   4407392  
  4380.000000   4405667   4403789   4401864   4400026   4398383  
  4370.000000   4397044   4396101   4395626   4395688   4396321  
  4360.000000   4397564   4399412   4401871   4404896   4408453  
  4350.000000   4412473   4416902   4421679   4426770   4432152  
  4340.000000   4437815   4443736   4449859   4456065   4462163  
  4330.000000   4467893   4472954   4477060   4479991   4481667  
  4320.000000   4482154   4481686   4480590   4479265   4478038  
  4310.000000   4477188   4476821   4476968   4477519   4478367  
  4300.000000   4479355   4480391   4481382   4482293   4483081  
  4290.000000   4483726   4484197   4484475   4484556   4484455  
  4280.000000   4484210   4483884   4483535   4483245   4483063  
  4270.000000   4483053   4483224   4483584   4484063   4484566  
  4260.000000   4484924   4484959   4484478   4483345   4481492  
  4250.000000   4478959   4475871   4472431   4468855   4465356  
  4240.000000   4462078   4459112   4456463   4454104   4451963  
  4230.000000   4449977   4448076   4446208   4444326   4442391  
  4220.000000   4440384   4438286   4436122   4433912   4431725  
  4210.000000   4429611   4427649   4425878   4424357   4423097  
  4200.000000   4422126   4421433   4421026   4420869   4420953  
  4190.000000   4421219   4421657   4422209   4422888   4423665  
  4180.000000   4424591   4425663   4426952   4428460   4430267  
  4170.000000   4432379   4434889   4437817   4441262   4445227  
  4160.000000   4449782   4454882   4460549   4466705   4473362  
  4150.000000   4480454   4488027   4496045   4504576   4513595  
  4140.000000   4523163   4533241   4543875   4555010   4566675  
  4130.000000   4578799   4591391   4604368   4617734   4631423  
  4120.000000   4645468   4659849   4674636   4689837   4705521  
  4110.000000   4721675   4738317   4755387   4772853   4790624  
  4100.000000   4808652   4826861   4845221   4863695   4882287  
  4090.000000   4900996   4919838   4938816   4957924   4977153  
  4080.000000   4996474   5015873   5035316   5054800   5074284  
  4070.000000   5093761   5113162   5132466   5151588   5170516  
  4060.000000   5189176   5207582   5225659   5243419   5260755  
  4050.000000   5277667   5294037   5309891   5325139   5339849  
  4040.000000   5353938   5367464   5380301   5392472   5403822  
  4030.000000   5414377   5423991   5432705   5440389   5447067  
  4020.000000   5452581   5456974   5460187   5462323   5463337  
  4010.000000   5463430   5462722   5461300   5458950   5455802  
  4000.000000   5452251  
##END= 
