##TITLE= Sample 030 By ssteindl date Dienstag, November 20 2018
##JCAMP-DX= 4.24
##DATA TYPE= INFRARED SPECTRUM
##ORIGIN= Exported PE Spectrum Data File
##OWNER= Sandra Steindl
##DATE= 18/11/20
##TIME= 16:40:05.00
##SPECTROMETER/DATA SYSTEM= PERKIN-ELMER Frontier FT-IR/NIR IR
##INSTRUMENT PARAMETERS=
  APODIZATION=stark
  DETECTOR=INGAAS
##RESOLUTION= 16.000000
##DELTAX= -2.000000
##XUNITS= 1/CM
##YUNITS= A
##XFACTOR= 1.00
##YFACTOR= 0.00000011920928955078
##FIRSTX= 10000.00
##LASTX= 4000.00
##NPOINTS= 3001
##FIRSTY= 0.192068
##MAXY= 0.637920
##MINY= 0.162138
##XYDATA= (X++(Y..Y))
 10000.000000   1611185   1606067   1602327   1601412   1602781  
  9990.000000   1604586   1605481   1605003   1603012   1599624  
  9980.000000   1595548   1591779   1589116   1587897   1588151  
  9970.000000   1589528   1591419   1593043   1593692   1592824  
  9960.000000   1590245   1586198   1581353   1576690   1573264  
  9950.000000   1571850   1572770   1575684   1579790   1583977  
  9940.000000   1587206   1588731   1588285   1586118   1582927  
  9930.000000   1579700   1577507   1577272   1579551   1584396  
  9920.000000   1591241   1599034   1606390   1611999   1614954  
  9910.000000   1615061   1612899   1609584   1606383   1604168  
  9900.000000   1603123   1602660   1601736   1599357   1595032  
  9890.000000   1589119   1582664   1577169   1573934   1573741  
  9880.000000   1576469   1581269   1586787   1591625   1594691  
  9870.000000   1595385   1593675   1589945   1584899   1579337  
  9860.000000   1574062   1569682   1566551   1564651   1563647  
  9850.000000   1562983   1562089   1560619   1558550   1556248  
  9840.000000   1554262   1553114   1553069   1553996   1555493  
  9830.000000   1556979   1558013   1558334   1557981   1557146  
  9820.000000   1556095   1555049   1554159   1553564   1553430  
  9810.000000   1553995   1555473   1557958   1561271   1564965  
  9800.000000   1568370   1570841   1571906   1571468   1569741  
  9790.000000   1567180   1564260   1561346   1558631   1556158  
  9780.000000   1553899   1551803   1549790   1547732   1545404  
  9770.000000   1542551   1538966   1534661   1529926   1525332  
  9760.000000   1521574   1519223   1518538   1519307   1520983  
  9750.000000   1522823   1524229   1524878   1524822   1524347  
  9740.000000   1523803   1523444   1523367   1523579   1524100  
  9730.000000   1525043   1526608   1528958   1532087   1535698  
  9720.000000   1539191   1541808   1542817   1541772   1538649  
  9710.000000   1533877   1528257   1522718   1518120   1515029  
  9700.000000   1513592   1513537   1514223   1514869   1514767  
  9690.000000   1513550   1511338   1508717   1506556   1505659  
  9680.000000   1506461   1508805   1511992   1515032   1517048  
  9670.000000   1517644   1517030   1515973   1515403   1516070  
  9660.000000   1518209   1521448   1525019   1527970   1529574  
  9650.000000   1529395   1527365   1523614   1518361   1511910  
  9640.000000   1504697   1497486   1491337   1487518   1487046  
  9630.000000   1490337   1496820   1505055   1513043   1518919  
  9620.000000   1521504   1520634   1517107   1512234   1507361  
  9610.000000   1503339   1500427   1498311   1496481   1494524  
  9600.000000   1492332   1490113   1488143   1486648   1485572  
  9590.000000   1484755   1483998   1483278   1482765   1482658  
  9580.000000   1483054   1483705   1484120   1483674   1481932  
  9570.000000   1478860   1474894   1470816   1467477   1465513  
  9560.000000   1465167   1466276   1468393   1470966   1473464  
  9550.000000   1475443   1476539   1476459   1475047   1472335  
  9540.000000   1468687   1464720   1461245   1458941   1458162  
  9530.000000   1458730   1459996   1461108   1461347   1460505  
  9520.000000   1458935   1457485   1457078   1458362   1461399  
  9510.000000   1465637   1470107   1473753   1475786   1475850  
  9500.000000   1474090   1470981   1467177   1463292   1459795  
  9490.000000   1456967   1454881   1453466   1452508   1451759  
  9480.000000   1450969   1450016   1448933   1447950   1447388  
  9470.000000   1447521   1448401   1449745   1451004   1451529  
  9460.000000   1450861   1448940   1446163   1443284   1441104  
  9450.000000   1440235   1440837   1442625   1444974   1447145  
  9440.000000   1448538   1448780   1447784   1445602   1442378  
  9430.000000   1438258   1433444   1428245   1423106   1418593  
  9420.000000   1415258   1413544   1413617   1415364   1418386  
  9410.000000   1422126   1425965   1429323   1431734   1432833  
  9400.000000   1432435   1430493   1427219   1423027   1418585  
  9390.000000   1414634   1411872   1410721   1411237   1413102  
  9380.000000   1415708   1418375   1420478   1421652   1421806  
  9370.000000   1421133   1420011   1418869   1418099   1417949  
  9360.000000   1418511   1419666   1421121   1422470   1423322  
  9350.000000   1423436   1422816   1421722   1420567   1419777  
  9340.000000   1419588   1419962   1420547   1420841   1420398  
  9330.000000   1419083   1417157   1415190   1413820   1413468  
  9320.000000   1414165   1415487   1416713   1417066   1416046  
  9310.000000   1413621   1410242   1406701   1403806   1402197  
  9300.000000   1402126   1403520   1406009   1409121   1412377  
  9290.000000   1415357   1417708   1419090   1419221   1417868  
  9280.000000   1414990   1410744   1405584   1400112   1395003  
  9270.000000   1390803   1387830   1386153   1385607   1385974  
  9260.000000   1387031   1388687   1390890   1393605   1396672  
  9250.000000   1399790   1402539   1404483   1405341   1405051  
  9240.000000   1403851   1402141   1400388   1398930   1397876  
  9230.000000   1397081   1396226   1394984   1393173   1390834  
  9220.000000   1388194   1385578   1383260   1381394   1379955  
  9210.000000   1378806   1377804   1376881   1376144   1375786  
  9200.000000   1376054   1377045   1378681   1380652   1382541  
  9190.000000   1383908   1384485   1384261   1383572   1382964  
  9180.000000   1383058   1384336   1387006   1390908   1395518  
  9170.000000   1400100   1403904   1406393   1407376   1407050  
  9160.000000   1405905   1404580   1403624   1403353   1403722  
  9150.000000   1404420   1404975   1404992   1404241   1402796  
  9140.000000   1400908   1398974   1397292   1396035   1395147  
  9130.000000   1394430   1393609   1392445   1390804   1388658  
  9120.000000   1386067   1383143   1380027   1376879   1373878  
  9110.000000   1371202   1369015   1367398   1366340   1365712  
  9100.000000   1365326   1364989   1364582   1364094   1363625  
  9090.000000   1363311   1363272   1363526   1364020   1364618  
  9080.000000   1365204   1365685   1366055   1366320   1366498  
  9070.000000   1366554   1366435   1366093   1365544   1364903  
  9060.000000   1364358   1364137   1364403   1365212   1366475  
  9050.000000   1368022   1369652   1371196   1372533   1373576  
  9040.000000   1374257   1374474   1374118   1373120   1371531  
  9030.000000   1369551   1367492   1365727   1364571   1364198  
  9020.000000   1364576   1365513   1366742   1367984   1368996  
  9010.000000   1369593   1369654   1369088   1367869   1366078  
  9000.000000   1363974   1361968   1360540   1360111   1360902  
  8990.000000   1362835   1365525   1368411   1370945   1372762  
  8980.000000   1373744   1374022   1373847   1373459   1372981  
  8970.000000   1372410   1371721   1370916   1370111   1369463  
  8960.000000   1369108   1369045   1369089   1368935   1368274  
  8950.000000   1366995   1365253   1363482   1362212   1361924  
  8940.000000   1362835   1364848   1367578   1370510   1373189  
  8930.000000   1375300   1376709   1377371   1377308   1376505  
  8920.000000   1374971   1372767   1370103   1367341   1364926  
  8910.000000   1363279   1362640   1363054   1364330   1366192  
  8900.000000   1368326   1370506   1372561   1374341   1375650  
  8890.000000   1376230   1375845   1374351   1371848   1368676  
  8880.000000   1365410   1362643   1360831   1360124   1360360  
  8870.000000   1361143   1362002   1362583   1362751   1362607  
  8860.000000   1362390   1362357   1362687   1363419   1364501  
  8850.000000   1365819   1367304   1368899   1370583   1372293  
  8840.000000   1373925   1375331   1376365   1376955   1377151  
  8830.000000   1377112   1377084   1377276   1377836   1378746  
  8820.000000   1379868   1380961   1381771   1382120   1381951  
  8810.000000   1381397   1380733   1380379   1380773   1382280  
  8800.000000   1385063   1389009   1393727   1398576   1402826  
  8790.000000   1405797   1407086   1406632   1404781   1402150  
  8780.000000   1399509   1397559   1396797   1397410   1399270  
  8770.000000   1402035   1405247   1408497   1411469   1414031  
  8760.000000   1416184   1418053   1419790   1421516   1423288  
  8750.000000   1425057   1426738   1428188   1429317   1430068  
  8740.000000   1430476   1430640   1430680   1430734   1430899  
  8730.000000   1431277   1431946   1433000   1434518   1436544  
  8720.000000   1439049   1441878   1444783   1447421   1449483  
  8710.000000   1450734   1451135   1450826   1450126   1449437  
  8700.000000   1449172   1449661   1451099   1453536   1456871  
  8690.000000   1460896   1465297   1469710   1473756   1477125  
  8680.000000   1479637   1481287   1482248   1482818   1483349  
  8670.000000   1484107   1485214   1486593   1488046   1489329  
  8660.000000   1490266   1490821   1491098   1491308   1491657  
  8650.000000   1492309   1493313   1494649   1496249   1498063  
  8640.000000   1500078   1502312   1504781   1507444   1510196  
  8630.000000   1512862   1515266   1517252   1518755   1519789  
  8620.000000   1520474   1520963   1521430   1522019   1522837  
  8610.000000   1523947   1525359   1527052   1528970   1531053  
  8600.000000   1533235   1535479   1537767   1540103   1542480  
  8590.000000   1544859   1547163   1549273   1551080   1552510  
  8580.000000   1553577   1554383   1555089   1555870   1556839  
  8570.000000   1558045   1559438   1560936   1562436   1563882  
  8560.000000   1565259   1566580   1567844   1568997   1569945  
  8550.000000   1570561   1570759   1570528   1569990   1569359  
  8540.000000   1568903   1568874   1569443   1570675   1572508  
  8530.000000   1574819   1577440   1580233   1583082   1585902  
  8520.000000   1588628   1591181   1593485   1595435   1596962  
  8510.000000   1598012   1598602   1598795   1598722   1598554  
  8500.000000   1598472   1598655   1599209   1600199   1601603  
  8490.000000   1603355   1605337   1607419   1609475   1611369  
  8480.000000   1612975   1614160   1614829   1614925   1614479  
  8470.000000   1613630   1612646   1611878   1611673   1612312  
  8460.000000   1613910   1616408   1619533   1622908   1626124  
  8450.000000   1628855   1630903   1632221   1632896   1633075  
  8440.000000   1632923   1632549   1632028   1631392   1630679  
  8430.000000   1629944   1629288   1628839   1628728   1629041  
  8420.000000   1629776   1630841   1632070   1633270   1634284  
  8410.000000   1635037   1635592   1636114   1636834   1637953  
  8400.000000   1639579   1641674   1644062   1646493   1648724  
  8390.000000   1650613   1652156   1653484   1654778   1656186  
  8380.000000   1657727   1659277   1660596   1661417   1661546  
  8370.000000   1660953   1659795   1658380   1657056   1656129  
  8360.000000   1655758   1655945   1656523   1657250   1657868  
  8350.000000   1658202   1658174   1657835   1657327   1656856  
  8340.000000   1656630   1656799   1657417   1658412   1659607  
  8330.000000   1660746   1661564   1661862   1661574   1660798  
  8320.000000   1659764   1658778   1658132   1658018   1658466  
  8310.000000   1659340   1660388   1661329   1661928   1662074  
  8300.000000   1661778   1661176   1660461   1659830   1659412  
  8290.000000   1659243   1659277   1659395   1659466   1659364  
  8280.000000   1659020   1658431   1657651   1656796   1655978  
  8270.000000   1655316   1654880   1654726   1654872   1655319  
  8260.000000   1656033   1656952   1657965   1658910   1659585  
  8250.000000   1659764   1659267   1658007   1656054   1653625  
  8240.000000   1651061   1648734   1646956   1645908   1645576  
  8230.000000   1645802   1646313   1646858   1647251   1647446  
  8220.000000   1647492   1647489   1647514   1647555   1647513  
  8210.000000   1647203   1646452   1645151   1643329   1641143  
  8200.000000   1638844   1636708   1634940   1633657   1632835  
  8190.000000   1632373   1632117   1631923   1631676   1631303  
  8180.000000   1630749   1629971   1628926   1627591   1625985  
  8170.000000   1624189   1622361   1620688   1619344   1618411  
  8160.000000   1617846   1617483   1617079   1616402   1615306  
  8150.000000   1613790   1611997   1610164   1608531   1607257  
  8140.000000   1606371   1605784   1605337   1604879   1604321  
  8130.000000   1603657   1602945   1602250   1601596   1600935  
  8120.000000   1600163   1599157   1597846   1596243   1594466  
  8110.000000   1592700   1591137   1589924   1589112   1588657  
  8100.000000   1588430   1588273   1588026   1587570   1586829  
  8090.000000   1585780   1584438   1582863   1581143   1579392  
  8080.000000   1577734   1576269   1575056   1574081   1573264  
  8070.000000   1572475   1571577   1570470   1569121   1567578  
  8060.000000   1565954   1564391   1563027   1561947   1561180  
  8050.000000   1560673   1560331   1560019   1559612   1559003  
  8040.000000   1558142   1557040   1555784   1554513   1553405  
  8030.000000   1552618   1552262   1552349   1552787   1553396  
  8020.000000   1553951   1554250   1554164   1553676   1552885  
  8010.000000   1551959   1551091   1550422   1550012   1549815  
  8000.000000   1549708   1549539   1549178   1548565   1547721  
  7990.000000   1546741   1545754   1544887   1544215   1543760  
  7980.000000   1543482   1543312   1543186   1543063   1542945  
  7970.000000   1542857   1542821   1542827   1542819   1542696  
  7960.000000   1542353   1541720   1540811   1539731   1538660  
  7950.000000   1537804   1537319   1537262   1537560   1538038  
  7940.000000   1538472   1538665   1538516   1538033   1537324  
  7930.000000   1536533   1535785   1535131   1534553   1533984  
  7920.000000   1533368   1532707   1532077   1531612   1531443  
  7910.000000   1531657   1532230   1533055   1533953   1534745  
  7900.000000   1535308   1535587   1535613   1535440   1535126  
  7890.000000   1534686   1534108   1533367   1532473   1531491  
  7880.000000   1530544   1529783   1529337   1529274   1529566  
  7870.000000   1530109   1530749   1531339   1531779   1532038  
  7860.000000   1532148   1532181   1532207   1532284   1532434  
  7850.000000   1532657   1532936   1533253   1533586   1533901  
  7840.000000   1534147   1534244   1534096   1533605   1532699  
  7830.000000   1531368   1529670   1527755   1525825   1524130  
  7820.000000   1522887   1522260   1522292   1522908   1523898  
  7810.000000   1524973   1525816   1526154   1525824   1524801  
  7800.000000   1523210   1521269   1519255   1517414   1515932  
  7790.000000   1514889   1514280   1514031   1514029   1514168  
  7780.000000   1514348   1514508   1514596   1514597   1514504  
  7770.000000   1514332   1514099   1513828   1513533   1513204  
  7760.000000   1512817   1512326   1511684   1510855   1509832  
  7750.000000   1508636   1507314   1505920   1504507   1503108  
  7740.000000   1501742   1500418   1499145   1497948   1496868  
  7730.000000   1495958   1495270   1494842   1494678   1494736  
  7720.000000   1494936   1495164   1495301   1495243   1494943  
  7710.000000   1494411   1493730   1493021   1492421   1492032  
  7700.000000   1491895   1491973   1492163   1492325   1492334  
  7690.000000   1492104   1491621   1490933   1490132   1489318  
  7680.000000   1488572   1487947   1487466   1487138   1486970  
  7670.000000   1486971   1487140   1487458   1487868   1488286  
  7660.000000   1488612   1488761   1488693   1488421   1488019  
  7650.000000   1487582   1487209   1486954   1486829   1486793  
  7640.000000   1486789   1486763   1486695   1486609   1486564  
  7630.000000   1486630   1486866   1487291   1487880   1488566  
  7620.000000   1489267   1489898   1490407   1490768   1490996  
  7610.000000   1491126   1491211   1491296   1491423   1491612  
  7600.000000   1491880   1492226   1492647   1493128   1493648  
  7590.000000   1494179   1494689   1495149   1495552   1495907  
  7580.000000   1496256   1496649   1497142   1497768   1498536  
  7570.000000   1499410   1500331   1501224   1502032   1502722  
  7560.000000   1503309   1503840   1504392   1505034   1505826  
  7550.000000   1506776   1507858   1508992   1510088   1511052  
  7540.000000   1511840   1512450   1512960   1513492   1514205  
  7530.000000   1515239   1516686   1518555   1520779   1523228  
  7520.000000   1525757   1528234   1530580   1532765   1534806  
  7510.000000   1536734   1538586   1540377   1542129   1543858  
  7500.000000   1545611   1547429   1549352   1551374   1553446  
  7490.000000   1555470   1557339   1558974   1560374   1561627  
  7480.000000   1562897   1564371   1566195   1568427   1571026  
  7470.000000   1573864   1576787   1579652   1582395   1585012  
  7460.000000   1587557   1590082   1592626   1595179   1597712  
  7450.000000   1600186   1602600   1604990   1607438   1610034  
  7440.000000   1612850   1615911   1619178   1622565   1625959  
  7430.000000   1629252   1632360   1635242   1637906   1640392  
  7420.000000   1642763   1645079   1647390   1649722   1652076  
  7410.000000   1654443   1656811   1659187   1661595   1664076  
  7400.000000   1666664   1669373   1672177   1675010   1677786  
  7390.000000   1680428   1682903   1685229   1687480   1689745  
  7380.000000   1692106   1694599   1697208   1699879   1702560  
  7370.000000   1705222   1707880   1710581   1713377   1716293  
  7360.000000   1719310   1722368   1725396   1728339   1731184  
  7350.000000   1733966   1736740   1739551   1742405   1745261  
  7340.000000   1748047   1750697   1753178   1755511   1757751  
  7330.000000   1759971   1762217   1764507   1766809   1769079  
  7320.000000   1771273   1773373   1775384   1777327   1779208  
  7310.000000   1781020   1782727   1784301   1785726   1787038  
  7300.000000   1788304   1789628   1791097   1792771   1794634  
  7290.000000   1796625   1798636   1800561   1802314   1803852  
  7280.000000   1805174   1806307   1807287   1808145   1808902  
  7270.000000   1809572   1810169   1810723   1811281   1811905  
  7260.000000   1812661   1813598   1814738   1816065   1817530  
  7250.000000   1819052   1820562   1821999   1823359   1824664  
  7240.000000   1825996   1827426   1829035   1830841   1832845  
  7230.000000   1834986   1837221   1839496   1841814   1844193  
  7220.000000   1846689   1849343   1852190   1855219   1858412  
  7210.000000   1861718   1865119   1868589   1872151   1875807  
  7200.000000   1879583   1883452   1887394   1891348   1895284  
  7190.000000   1899169   1903029   1906902   1910868   1914995  
  7180.000000   1919352   1923964   1928844   1933961   1939290  
  7170.000000   1944773   1950374   1956026   1961685   1967285  
  7160.000000   1972802   1978209   1983542   1988846   1994224  
  7150.000000   1999767   2005586   2011730   2018222   2025000  
  7140.000000   2031976   2039023   2046056   2053020   2059949  
  7130.000000   2066906   2074001   2081304   2088867   2096653  
  7120.000000   2104607   2112620   2120630   2128592   2136537  
  7110.000000   2144512   2152594   2160826   2169235   2177801  
  7100.000000   2186501   2195292   2204160   2213077   2222037  
  7090.000000   2231004   2239952   2248839   2257659   2266424  
  7080.000000   2275194   2284035   2293023   2302187   2311521  
  7070.000000   2320965   2330445   2339884   2349239   2358492  
  7060.000000   2367656   2376748   2385787   2394787   2403770  
  7050.000000   2412769   2421828   2430993   2440277   2449658  
  7040.000000   2459059   2468385   2477539   2486478   2495206  
  7030.000000   2503793   2512315   2520837   2529358   2537837  
  7020.000000   2546184   2554330   2562233   2569920   2577440  
  7010.000000   2584869   2592241   2599569   2606815   2613953  
  7000.000000   2620948   2627823   2634595   2641309   2647968  
  6990.000000   2654576   2661093   2667513   2673822   2680052  
  6980.000000   2686211   2692309   2698288   2704076   2709570  
  6970.000000   2714722   2719528   2724078   2728483   2732877  
  6960.000000   2737313   2741790   2746212   2750474   2754469  
  6950.000000   2758175   2761615   2764885   2768071   2771257  
  6940.000000   2774462   2777688   2780897   2784071   2787185  
  6930.000000   2790237   2793202   2796057   2798758   2801278  
  6920.000000   2803606   2805775   2807841   2809876   2811931  
  6910.000000   2814030   2816156   2818284   2820380   2822440  
  6900.000000   2824466   2826481   2828486   2830474   2832414  
  6890.000000   2834281   2836061   2837774   2839449   2841128  
  6880.000000   2842821   2844519   2846174   2847739   2849171  
  6870.000000   2850462   2851624   2852684   2853660   2854550  
  6860.000000   2855333   2855992   2856527   2856973   2857392  
  6850.000000   2857863   2858450   2859195   2860098   2861144  
  6840.000000   2862301   2863543   2864839   2866157   2867451  
  6830.000000   2868658   2869717   2870583   2871246   2871740  
  6820.000000   2872127   2872478   2872842   2873244   2873672  
  6810.000000   2874115   2874556   2875009   2875489   2876009  
  6800.000000   2876543   2877035   2877390   2877520   2877365  
  6790.000000   2876931   2876276   2875510   2874743   2874067  
  6780.000000   2873528   2873138   2872870   2872700   2872587  
  6770.000000   2872506   2872420   2872297   2872098   2871801  
  6760.000000   2871394   2870893   2870322   2869706   2869050  
  6750.000000   2868337   2867528   2866596   2865528   2864357  
  6740.000000   2863137   2861946   2860838   2859847   2858959  
  6730.000000   2858142   2857343   2856523   2855654   2854728  
  6720.000000   2853738   2852686   2851566   2850389   2849168  
  6710.000000   2847940   2846739   2845596   2844515   2843479  
  6700.000000   2842442   2841359   2840189   2838919   2837554  
  6690.000000   2836115   2834619   2833081   2831503   2829901  
  6680.000000   2828291   2826715   2825207   2823801   2822492  
  6670.000000   2821254   2820024   2818741   2817356   2815849  
  6660.000000   2814229   2812522   2810753   2808938   2807078  
  6650.000000   2805170   2803219   2801246   2799280   2797351  
  6640.000000   2795471   2793638   2791825   2790009   2788173  
  6630.000000   2786326   2784486   2782681   2780921   2779199  
  6620.000000   2777483   2775738   2773935   2772066   2770139  
  6610.000000   2768176   2766190   2764185   2762149   2760066  
  6600.000000   2757932   2755758   2753573   2751413   2749307  
  6590.000000   2747271   2745309   2743414   2741583   2739818  
  6580.000000   2738127   2736511   2734959   2733445   2731936  
  6570.000000   2730404   2728844   2727277   2725745   2724293  
  6560.000000   2722953   2721722   2720570   2719441   2718275  
  6550.000000   2717021   2715652   2714162   2712565   2710884  
  6540.000000   2709156   2707420   2705723   2704114   2702632  
  6530.000000   2701298   2700111   2699043   2698051   2697090  
  6520.000000   2696123   2695127   2694095   2693028   2691929  
  6510.000000   2690798   2689645   2688483   2687343   2686259  
  6500.000000   2685266   2684373   2683566   2682799   2682015  
  6490.000000   2681163   2680220   2679198   2678140   2677101  
  6480.000000   2676129   2675253   2674476   2673783   2673152  
  6470.000000   2672560   2671990   2671420   2670828   2670181  
  6460.000000   2669452   2668620   2667685   2666667   2665604  
  6450.000000   2664534   2663495   2662510   2661594   2660762  
  6440.000000   2660028   2659404   2658893   2658474   2658102  
  6430.000000   2657711   2657236   2656635   2655912   2655111  
  6420.000000   2654313   2653592   2653003   2652549   2652194  
  6410.000000   2651872   2651524   2651115   2650644   2650140  
  6400.000000   2649644   2649194   2648807   2648488   2648224  
  6390.000000   2647998   2647789   2647578   2647340   2647048  
  6380.000000   2646677   2646211   2645647   2645005   2644310  
  6370.000000   2643593   2642871   2642151   2641422   2640679  
  6360.000000   2639922   2639170   2638452   2637799   2637225  
  6350.000000   2636724   2636265   2635806   2635307   2634740  
  6340.000000   2634097   2633386   2632627   2631845   2631060  
  6330.000000   2630295   2629562   2628876   2628233   2627625  
  6320.000000   2627019   2626378   2625656   2624825   2623866  
  6310.000000   2622791   2621615   2620367   2619062   2617712  
  6300.000000   2616319   2614894   2613450   2612016   2610605  
  6290.000000   2609228   2607859   2606463   2604981   2603376  
  6280.000000   2601625   2599749   2597783   2595784   2593784  
  6270.000000   2591802   2589824   2587823   2585764   2583630  
  6260.000000   2581415   2579135   2576804   2574444   2572064  
  6250.000000   2569674   2567273   2564871   2562470   2560078  
  6240.000000   2557696   2555330   2552981   2550656   2548363  
  6230.000000   2546108   2543888   2541685   2539468   2537200  
  6220.000000   2534853   2532421   2529925   2527409   2524925  
  6210.000000   2522511   2520181   2517916   2515675   2513414  
  6200.000000   2511097   2508714   2506272   2503790   2501287  
  6190.000000   2498776   2496266   2493767   2491300   2488894  
  6180.000000   2486582   2484385   2482306   2480321   2478389  
  6170.000000   2476458   2474491   2472465   2470382   2468253  
  6160.000000   2466102   2463946   2461802   2459678   2457587  
  6150.000000   2455540   2453550   2451620   2449747   2447915  
  6140.000000   2446108   2444310   2442516   2440729   2438961  
  6130.000000   2437220   2435513   2433832   2432175   2430535  
  6120.000000   2428923   2427347   2425823   2424351   2422924  
  6110.000000   2421516   2420106   2418677   2417240   2415816  
  6100.000000   2414448   2413166   2411990   2410910   2409899  
  6090.000000   2408919   2407943   2406952   2405956   2404972  
  6080.000000   2404029   2403145   2402337   2401607   2400959  
  6070.000000   2400382   2399874   2399417   2399000   2398603  
  6060.000000   2398222   2397854   2397522   2397242   2397046  
  6050.000000   2396940   2396929   2396991   2397110   2397265  
  6040.000000   2397463   2397714   2398050   2398490   2399047  
  6030.000000   2399707   2400450   2401241   2402058   2402879  
  6020.000000   2403704   2404528   2405353   2406172   2406986  
  6010.000000   2407792   2408604   2409432   2410295   2411196  
  6000.000000   2412126   2413057   2413961   2414810   2415607  
  5990.000000   2416369   2417144   2417974   2418904   2419951  
  5980.000000   2421122   2422400   2423776   2425240   2426797  
  5970.000000   2428449   2430201   2432041   2433957   2435922  
  5960.000000   2437926   2439952   2442010   2444101   2446237  
  5950.000000   2448408   2450609   2452819   2455030   2457233  
  5940.000000   2459439   2461660   2463919   2466227   2468595  
  5930.000000   2471024   2473511   2476045   2478616   2481208  
  5920.000000   2483799   2486367   2488889   2491346   2493730  
  5910.000000   2496040   2498279   2500453   2502565   2504619  
  5900.000000   2506626   2508608   2510600   2512645   2514782  
  5890.000000   2517036   2519399   2521842   2524313   2526765  
  5880.000000   2529159   2531486   2533756   2535988   2538201  
  5870.000000   2540392   2542548   2544638   2546641   2548545  
  5860.000000   2550368   2552138   2553901   2555695   2557553  
  5850.000000   2559495   2561530   2563658   2565879   2568186  
  5840.000000   2570573   2573031   2575551   2578126   2580754  
  5830.000000   2583431   2586151   2588896   2591635   2594326  
  5820.000000   2596921   2599386   2601698   2603862   2605896  
  5810.000000   2607831   2609686   2611483   2613213   2614884  
  5800.000000   2616480   2618018   2619492   2620922   2622290  
  5790.000000   2623594   2624790   2625859   2626754   2627457  
  5780.000000   2627935   2628173   2628138   2627818   2627191  
  5770.000000   2626275   2625104   2623753   2622307   2620864  
  5760.000000   2619495   2618252   2617149   2616188   2615357  
  5750.000000   2614654   2614078   2613631   2613309   2613091  
  5740.000000   2612948   2612843   2612756   2612670   2612604  
  5730.000000   2612570   2612598   2612694   2612869   2613106  
  5720.000000   2613402   2613742   2614130   2614562   2615039  
  5710.000000   2615548   2616082   2616622   2617170   2617732  
  5700.000000   2618330   2618986   2619718   2620527   2621397  
  5690.000000   2622302   2623211   2624103   2624960   2625780  
  5680.000000   2626555   2627280   2627936   2628510   2628984  
  5670.000000   2629354   2629612   2629765   2629805   2629730  
  5660.000000   2629523   2629183   2628705   2628113   2627434  
  5650.000000   2626711   2625971   2625242   2624524   2623816  
  5640.000000   2623104   2622385   2621655   2620922   2620185  
  5630.000000   2619449   2618707   2617960   2617207   2616461  
  5620.000000   2615735   2615049   2614410   2613817   2613255  
  5610.000000   2612704   2612139   2611546   2610914   2610243  
  5600.000000   2609531   2608779   2607985   2607148   2606268  
  5590.000000   2605352   2604407   2603443   2602462   2601466  
  5580.000000   2600449   2599409   2598339   2597243   2596115  
  5570.000000   2594950   2593738   2592466   2591128   2589730  
  5560.000000   2588292   2586848   2585433   2584073   2582775  
  5550.000000   2581529   2580312   2579100   2577877   2576642  
  5540.000000   2575400   2574158   2572917   2571672   2570413  
  5530.000000   2569137   2567857   2566592   2565369   2564207  
  5520.000000   2563105   2562047   2561001   2559937   2558835  
  5510.000000   2557696   2556532   2555359   2554187   2553013  
  5500.000000   2551823   2550608   2549358   2548083   2546794  
  5490.000000   2545506   2544211   2542896   2541525   2540077  
  5480.000000   2538533   2536906   2535218   2533507   2531797  
  5470.000000   2530101   2528410   2526712   2524986   2523228  
  5460.000000   2521430   2519599   2517725   2515802   2513813  
  5450.000000   2511753   2509626   2507453   2505264   2503091  
  5440.000000   2500953   2498854   2496789   2494750   2492743  
  5430.000000   2490779   2488878   2487050   2485298   2483601  
  5420.000000   2481948   2480322   2478744   2477238   2475855  
  5410.000000   2474619   2473548   2472615   2471801   2471064  
  5400.000000   2470409   2469836   2469389   2469082   2468946  
  5390.000000   2468957   2469112   2469379   2469774   2470307  
  5380.000000   2471035   2471977   2473166   2474564   2476153  
  5370.000000   2477863   2479684   2481585   2483611   2485764  
  5360.000000   2488106   2490629   2493383   2496350   2499595  
  5350.000000   2503125   2507037   2511343   2516127   2521357  
  5340.000000   2527074   2533213   2539818   2546834   2554325  
  5330.000000   2562240   2570632   2579432   2588692   2598357  
  5320.000000   2608533   2619222   2630585   2642633   2655504  
  5310.000000   2669146   2683621   2698812   2714753   2731344  
  5300.000000   2748669   2766696   2785569   2805303   2826055  
  5290.000000   2847811   2870651   2894458   2919184   2944624  
  5280.000000   2970696   2997256   3024340   3051962   3080269  
  5270.000000   3109309   3139125   3169586   3200498   3231589  
  5260.000000   3262625   3293472   3324096   3354572   3384953  
  5250.000000   3415275   3445404   3475181   3504303   3532607  
  5240.000000   3559899   3586240   3611648   3636337   3660357  
  5230.000000   3683857   3706747   3729023   3750475   3771061  
  5220.000000   3790612   3809200   3826790   3843572   3859579  
  5210.000000   3875002   3889802   3904051   3917579   3930365  
  5200.000000   3942222   3953189   3963189   3972372   3980731  
  5190.000000   3988419   3995390   4001722   4007315   4012226  
  5180.000000   4016380   4019874   4022675   4024888   4026466  
  5170.000000   4027477   4027855   4027673   4026899   4025643  
  5160.000000   4023907   4021791   4019262   4016368   4013041  
  5150.000000   4009315   4005153   4000630   3995750   3990598  
  5140.000000   3985172   3979525   3973631   3967530   3961211  
  5130.000000   3954729   3948088   3941334   3934449   3927445  
  5120.000000   3920283   3912974   3905503   3897915   3890229  
  5110.000000   3882497   3874728   3866944   3859129   3851289  
  5100.000000   3843414   3835528   3827640   3819780   3811949  
  5090.000000   3804153   3796369   3788585   3780778   3772943  
  5080.000000   3765070   3757166   3749224   3741246   3733225  
  5070.000000   3725166   3717073   3708964   3700850   3692748  
  5060.000000   3684657   3676576   3668489   3660392   3652276  
  5050.000000   3644151   3636024   3627908   3619808   3611718  
  5040.000000   3603631   3595536   3587433   3579330   3571251  
  5030.000000   3563222   3555276   3547430   3539703   3532091  
  5020.000000   3524601   3517223   3509967   3502830   3495832  
  5010.000000   3488973   3482278   3475741   3469389   3463209  
  5000.000000   3457229   3451432   3445846   3440453   3435284  
  4990.000000   3430326   3425625   3421177   3417039   3413209  
  4980.000000   3409736   3406600   3403836   3401406   3399341  
  4970.000000   3397604   3396237   3395205   3394552   3394238  
  4960.000000   3394296   3394679   3395422   3396487   3397925  
  4950.000000   3399713   3401906   3404474   3407456   3410806  
  4940.000000   3414547   3418630   3423081   3427854   3432977  
  4930.000000   3438401   3444140   3450137   3456404   3462894  
  4920.000000   3469635   3476606   3483847   3491342   3499118  
  4910.000000   3507144   3515423   3523909   3532594   3541438  
  4900.000000   3550434   3559555   3568798   3578146   3587597  
  4890.000000   3597137   3606759   3616443   3626162   3635883  
  4880.000000   3645564   3655170   3664662   3674025   3683234  
  4870.000000   3692288   3701167   3709868   3718363   3726649  
  4860.000000   3734703   3742539   3750148   3757565   3764786  
  4850.000000   3771845   3778732   3785469   3792039   3798462  
  4840.000000   3804718   3810828   3816771   3822566   3828190  
  4830.000000   3833660   3838956   3844097   3849066   3853877  
  4820.000000   3858507   3862966   3867229   3871313   3875211  
  4810.000000   3878953   3882546   3886020   3889371   3892615  
  4800.000000   3895734   3898738   3901616   3904395   3907079  
  4790.000000   3909704   3912278   3914823   3917331   3919809  
  4780.000000   3922235   3924610   3926905   3929112   3931189  
  4770.000000   3933122   3934865   3936414   3937750   3938900  
  4760.000000   3939872   3940711   3941419   3942017   3942473  
  4750.000000   3942777   3942880   3942772   3942423   3941855  
  4740.000000   3941067   3940104   3938976   3937728   3936360  
  4730.000000   3934899   3933327   3931650   3929837   3927883  
  4720.000000   3925757   3923461   3920986   3918355   3915584  
  4710.000000   3912712   3909763   3906773   3903755   3900730  
  4700.000000   3897703   3894688   3891690   3888725   3885798  
  4690.000000   3882924   3880101   3877331   3874604   3871908  
  4680.000000   3869226   3866540   3863832   3861085   3858290  
  4670.000000   3855437   3852535   3849593   3846637   3843687  
  4660.000000   3840775   3837919   3835146   3832469   3829915  
  4650.000000   3827499   3825249   3823179   3821307   3819630  
  4640.000000   3818143   3816821   3815643   3814578   3813609  
  4630.000000   3812713   3811886   3811108   3810374   3809664  
  4620.000000   3808965   3808256   3807528   3806764   3805963  
  4610.000000   3805114   3804223   3803290   3802332   3801367  
  4600.000000   3800428   3799545   3798747   3798051   3797456  
  4590.000000   3796947   3796494   3796066   3795629   3795163  
  4580.000000   3794650   3794086   3793462   3792774   3792014  
  4570.000000   3791176   3790253   3789248   3788161   3787006  
  4560.000000   3785785   3784512   3783186   3781816   3780398  
  4550.000000   3778936   3777427   3775870   3774264   3772610  
  4540.000000   3770915   3769189   3767455   3765729   3764042  
  4530.000000   3762398   3760822   3759302   3757860   3756490  
  4520.000000   3755235   3754107   3753177   3752464   3752043  
  4510.000000   3751916   3752151   3752737   3753744   3755160  
  4500.000000   3757063   3759434   3762343   3765754   3769729  
  4490.000000   3774230   3779334   3785024   3791399   3798447  
  4480.000000   3806255   3814782   3824070   3834037   3844691  
  4470.000000   3855937   3867771   3880106   3892934   3906168  
  4460.000000   3919790   3933710   3947895   3962255   3976746  
  4450.000000   3991280   4005806   4020253   4034579   4048747  
  4440.000000   4062741   4076569   4090233   4103768   4117163  
  4430.000000   4130451   4143589   4156593   4169386   4181969  
  4420.000000   4194237   4206180   4217672   4228701   4239133  
  4410.000000   4248955   4258037   4266368   4273820   4280388  
  4400.000000   4285960   4290555   4294106   4296682   4298283  
  4390.000000   4299032   4298989   4298309   4297081   4295463  
  4380.000000   4293549   4291484   4289367   4287330   4285475  
  4370.000000   4283917   4282749   4282047   4281878   4282269  
  4360.000000   4283251   4284811   4286953   4289639   4292846  
  4350.000000   4296525   4300642   4305154   4310038   4315275  
  4340.000000   4320854   4326744   4332880   4339130   4345296  
  4330.000000   4351110   4356276   4360514   4363623   4365534  
  4320.000000   4366323   4366227   4365561   4364698   4363942  
  4310.000000   4363541   4363578   4364073   4364912   4365993  
  4300.000000   4367164   4368341   4369433   4370410   4371235  
  4290.000000   4371898   4372384   4372695   4372839   4372841  
  4280.000000   4372730   4372552   4372336   4372134   4371963  
  4270.000000   4371870   4371857   4371935   4372052   4372140  
  4260.000000   4372066   4371691   4370863   4369479   4367493  
  4250.000000   4364948   4361959   4358702   4355359   4352112  
  4240.000000   4349087   4346370   4343979   4341906   4340099  
  4230.000000   4338500   4337031   4335611   4334159   4332595  
  4220.000000   4330874   4328963   4326887   4324684   4322442  
  4210.000000   4320234   4318155   4316258   4314604   4313213  
  4200.000000   4312115   4311304   4310794   4310551   4310567  
  4190.000000   4310781   4311174   4311680   4312309   4313027  
  4180.000000   4313891   4314903   4316146   4317633   4319453  
  4170.000000   4321621   4324234   4327315   4330959   4335170  
  4160.000000   4340010   4345432   4351448   4357967   4364987  
  4150.000000   4372423   4380301   4388564   4397263   4406358  
  4140.000000   4415908   4425877   4436325   4447217   4458606  
  4130.000000   4470446   4482769   4495508   4508673   4522200  
  4120.000000   4536109   4550365   4565020   4580065   4595554  
  4110.000000   4611472   4627841   4644607   4661753   4679197  
  4100.000000   4696898   4714779   4732810   4750947   4769193  
  4090.000000   4787548   4806036   4824675   4843476   4862442  
  4080.000000   4881557   4900810   4920164   4939610   4959093  
  4070.000000   4978595   4998040   5017398   5036579   5055572  
  4060.000000   5074303   5092787   5110949   5128797   5146223  
  4050.000000   5163217   5179654   5195554   5210825   5225538  
  4040.000000   5239616   5253129   5265960   5278140   5289515  
  4030.000000   5300114   5309792   5318594   5326395   5333230  
  4020.000000   5338946   5343588   5347091   5349542   5350871  
  4010.000000   5351259   5350814   5349611   5347437   5344429  
  4000.000000   5341005  
##END= 
