##TITLE= Sample 025 By ssteindl date Dienstag, November 20 2018
##JCAMP-DX= 4.24
##DATA TYPE= INFRARED SPECTRUM
##ORIGIN= Exported PE Spectrum Data File
##OWNER= Sandra Steindl
##DATE= 18/11/20
##TIME= 16:34:17.00
##SPECTROMETER/DATA SYSTEM= PERKIN-ELMER Frontier FT-IR/NIR IR
##INSTRUMENT PARAMETERS=
  APODIZATION=stark
  DETECTOR=INGAAS
##RESOLUTION= 16.000000
##DELTAX= -2.000000
##XUNITS= 1/CM
##YUNITS= A
##XFACTOR= 1.00
##YFACTOR= 0.00000011920928955078
##FIRSTX= 10000.00
##LASTX= 4000.00
##NPOINTS= 3001
##FIRSTY= 0.199284
##MAXY= 0.584809
##MINY= 0.172361
##XYDATA= (X++(Y..Y))
 10000.000000   1671713   1668412   1664998   1661588   1658870  
  9990.000000   1657713   1658719   1661938   1666915   1672655  
  9980.000000   1677726   1680672   1680592   1677536   1672561  
  9970.000000   1667435   1664049   1663710   1666655   1671924  
  9960.000000   1677736   1682109   1683538   1681458   1676284  
  9950.000000   1669212   1661652   1654888   1649707   1646469  
  9940.000000   1645180   1645649   1647530   1650261   1653046  
  9930.000000   1654906   1654898   1652421   1647443   1640605  
  9920.000000   1633054   1626080   1620754   1617592   1616558  
  9910.000000   1617188   1618874   1621065   1623338   1625334  
  9900.000000   1626689   1626999   1625974   1623559   1620126  
  9890.000000   1616400   1613280   1611498   1611324   1612495  
  9880.000000   1614366   1616296   1617937   1619400   1621063  
  9870.000000   1623215   1625728   1627856   1628555   1626801  
  9860.000000   1622261   1615402   1607522   1600230   1594892  
  9850.000000   1592231   1592113   1593926   1596900   1600669  
  9840.000000   1605300   1611195   1618575   1627088   1635650  
  9830.000000   1642657   1646596   1646523   1642572   1635781  
  9820.000000   1627854   1620473   1614824   1611360   1609779  
  9810.000000   1609491   1609840   1610561   1611665   1613430  
  9800.000000   1616001   1619279   1622757   1625689   1627299  
  9790.000000   1626995   1624625   1620402   1614977   1609155  
  9780.000000   1603800   1599563   1596762   1595316   1594800  
  9770.000000   1594646   1594348   1593690   1592777   1592013  
  9760.000000   1591849   1592613   1594321   1596670   1599201  
  9750.000000   1601446   1603170   1604363   1605168   1605701  
  9740.000000   1605880   1605445   1604104   1601766   1598759  
  9730.000000   1595749   1593571   1592765   1593320   1594520  
  9720.000000   1595219   1594286   1591122   1586016   1580083  
  9710.000000   1574978   1572231   1572818   1576759   1583286  
  9700.000000   1591097   1598866   1605548   1610516   1613504  
  9690.000000   1614403   1613190   1609865   1604617   1597853  
  9680.000000   1590299   1582789   1576115   1570768   1566847  
  9670.000000   1564153   1562302   1561034   1560235   1560027  
  9660.000000   1560560   1561906   1563929   1566301   1568647  
  9650.000000   1570644   1572194   1573325   1574212   1574950  
  9640.000000   1575597   1576086   1576350   1576366   1576155  
  9630.000000   1575801   1575333   1574770   1574092   1573369  
  9620.000000   1572774   1572600   1573121   1574416   1576216  
  9610.000000   1577869   1578516   1577379   1574112   1569007  
  9600.000000   1562964   1557251   1553059   1551138   1551564  
  9590.000000   1553808   1556987   1560216   1562838   1564525  
  9580.000000   1565193   1564884   1563671   1561659   1559062  
  9570.000000   1556237   1553694   1551917   1551215   1551516  
  9560.000000   1552383   1553150   1553192   1552203   1550288  
  9550.000000   1547926   1545698   1544063   1543151   1542797  
  9540.000000   1542685   1542565   1542394   1542322   1542553  
  9530.000000   1543133   1543849   1544228   1543775   1542173  
  9520.000000   1539518   1536249   1532997   1530281   1528312  
  9510.000000   1526983   1525996   1525149   1524485   1524374  
  9500.000000   1525293   1527603   1531231   1535602   1539739  
  9490.000000   1542588   1543431   1542091   1539039   1535078  
  9480.000000   1531099   1527678   1525013   1522920   1521064  
  9470.000000   1519186   1517231   1515407   1514025   1513422  
  9460.000000   1513774   1515129   1517385   1520368   1523863  
  9450.000000   1527583   1531176   1534177   1536100   1536535  
  9440.000000   1535348   1532779   1529466   1526270   1523997  
  9430.000000   1523140   1523676   1525126   1526692   1527578  
  9420.000000   1527241   1525582   1522957   1519988   1517321  
  9410.000000   1515346   1514108   1513314   1512534   1511392  
  9400.000000   1509778   1507908   1506283   1505533   1506150  
  9390.000000   1508333   1511840   1516093   1520334   1523846  
  9380.000000   1526169   1527155   1527007   1526112   1524895  
  9370.000000   1523635   1522380   1521028   1519411   1517483  
  9360.000000   1515330   1513235   1511538   1510576   1510498  
  9350.000000   1511194   1512282   1513171   1513268   1512087  
  9340.000000   1509441   1505423   1500447   1495143   1490282  
  9330.000000   1486643   1484845   1485243   1487808   1492163  
  9320.000000   1497631   1503398   1508666   1512803   1515463  
  9310.000000   1516560   1516276   1514879   1512721   1510098  
  9300.000000   1507313   1504642   1502359   1500751   1499996  
  9290.000000   1500222   1501305   1503037   1505045   1507027  
  9280.000000   1508760   1510150   1511166   1511706   1511565  
  9270.000000   1510377   1507797   1503576   1497828   1491064  
  9260.000000   1484199   1478294   1474241   1472525   1473062  
  9250.000000   1475291   1478346   1481379   1483834   1485555  
  9240.000000   1486732   1487679   1488646   1489651   1490554  
  9230.000000   1491131   1491308   1491214   1491205   1491690  
  9220.000000   1492925   1494881   1497169   1499245   1500571  
  9210.000000   1500877   1500210   1498901   1497366   1495914  
  9200.000000   1494596   1493229   1491521   1489279   1486532  
  9190.000000   1483584   1480862   1478760   1477436   1476782  
  9180.000000   1476490   1476207   1475712   1474945   1474004  
  9170.000000   1472999   1471971   1470826   1469405   1467629  
  9160.000000   1465651   1463903   1462993   1463456   1465514  
  9150.000000   1468936   1473070   1476998   1479826   1480965  
  9140.000000   1480325   1478257   1475392   1472422   1469940  
  9130.000000   1468311   1467635   1467816   1468641   1469859  
  9120.000000   1471184   1472321   1472991   1473013   1472354  
  9110.000000   1471139   1469609   1468039   1466664   1465580  
  9100.000000   1464747   1464050   1463423   1462932   1462770  
  9090.000000   1463180   1464326   1466174   1468439   1470635  
  9080.000000   1472243   1472877   1472445   1471141   1469381  
  9070.000000   1467657   1466395   1465852   1466059   1466906  
  9060.000000   1468187   1469697   1471219   1472570   1473584  
  9050.000000   1474131   1474104   1473468   1472260   1470595  
  9040.000000   1468632   1466541   1464501   1462659   1461137  
  9030.000000   1460017   1459326   1459009   1458902   1458767  
  9020.000000   1458364   1457536   1456291   1454816   1453453  
  9010.000000   1452552   1452361   1452904   1453999   1455304  
  9000.000000   1456471   1457271   1457673   1457845   1458045  
  8990.000000   1458526   1459406   1460670   1462170   1463711  
  8980.000000   1465098   1466181   1466863   1467067   1466734  
  8970.000000   1465815   1464311   1462286   1459884   1457295  
  8960.000000   1454729   1452351   1450272   1448551   1447220  
  8950.000000   1446316   1445871   1445905   1446398   1447270  
  8940.000000   1448426   1449750   1451200   1452754   1454444  
  8930.000000   1456250   1458111   1459870   1461369   1462517  
  8920.000000   1463401   1464280   1465509   1467408   1470084  
  8910.000000   1473378   1476844   1479940   1482210   1483472  
  8900.000000   1483843   1483670   1483322   1483023   1482732  
  8890.000000   1482208   1481148   1479405   1477074   1474538  
  8880.000000   1472277   1470736   1470093   1470268   1470942  
  8870.000000   1471737   1472339   1472585   1472451   1471967  
  8860.000000   1471146   1469939   1468308   1466286   1464097  
  8850.000000   1462100   1460734   1460309   1460902   1462274  
  8840.000000   1463959   1465414   1466234   1466292   1465788  
  8830.000000   1465143   1464858   1465301   1466637   1468758  
  8820.000000   1471388   1474149   1476700   1478789   1480319  
  8810.000000   1481326   1481957   1482440   1483018   1483910  
  8800.000000   1485237   1487001   1489074   1491239   1493241  
  8790.000000   1494886   1496064   1496790   1497140   1497209  
  8780.000000   1497071   1496750   1496258   1495607   1494861  
  8770.000000   1494118   1493489   1493060   1492860   1492889  
  8760.000000   1493145   1493683   1494603   1496032   1498044  
  8750.000000   1500579   1503422   1506216   1508598   1510285  
  8740.000000   1511224   1511552   1511578   1511608   1511879  
  8730.000000   1512454   1513274   1514212   1515178   1516180  
  8720.000000   1517309   1518699   1520419   1522449   1524666  
  8710.000000   1526907   1529038   1530994   1532794   1534472  
  8700.000000   1536043   1537451   1538599   1539401   1539853  
  8690.000000   1540077   1540291   1540756   1541664   1543082  
  8680.000000   1544912   1546954   1548956   1550714   1552109  
  8670.000000   1553108   1553754   1554106   1554253   1554264  
  8660.000000   1554235   1554253   1554417   1554796   1555424  
  8650.000000   1556303   1557416   1558789   1560472   1562572  
  8640.000000   1565165   1568265   1571747   1575353   1578739  
  8630.000000   1581569   1583631   1584865   1585387   1585397  
  8620.000000   1585136   1584772   1584395   1584022   1583659  
  8610.000000   1583345   1583160   1583223   1583632   1584447  
  8600.000000   1585646   1587172   1588951   1590932   1593094  
  8590.000000   1595408   1597840   1600287   1602621   1604686  
  8580.000000   1606373   1607650   1608576   1609291   1609968  
  8570.000000   1610793   1611930   1613505   1615580   1618138  
  8560.000000   1621048   1624043   1626743   1628718   1629622  
  8550.000000   1629299   1627883   1625803   1623693   1622219  
  8540.000000   1621862   1622832   1625000   1628009   1631370  
  8530.000000   1634658   1637593   1640079   1642124   1643765  
  8520.000000   1645014   1645814   1646103   1645847   1645147  
  8510.000000   1644204   1643301   1642718   1642660   1643219  
  8500.000000   1644349   1645934   1647799   1649780   1651708  
  8490.000000   1653442   1654866   1655917   1656603   1657016  
  8480.000000   1657337   1657770   1658496   1659586   1661002  
  8470.000000   1662581   1664110   1665394   1666335   1666955  
  8460.000000   1667364   1667734   1668219   1668936   1669925  
  8450.000000   1671198   1672742   1674550   1676590   1678796  
  8440.000000   1681045   1683161   1684940   1686202   1686847  
  8430.000000   1686885   1686438   1685690   1684840   1684056  
  8420.000000   1683433   1683013   1682788   1682761   1682933  
  8410.000000   1683338   1683981   1684852   1685885   1686982  
  8400.000000   1688020   1688888   1689513   1689879   1690025  
  8390.000000   1690020   1689951   1689887   1689881   1689940  
  8380.000000   1690046   1690150   1690206   1690160   1689985  
  8370.000000   1689679   1689283   1688880   1688589   1688541  
  8360.000000   1688870   1689675   1690998   1692794   1694930  
  8350.000000   1697210   1699400   1701291   1702731   1703691  
  8340.000000   1704256   1704620   1705002   1705588   1706469  
  8330.000000   1707604   1708817   1709846   1710419   1710337  
  8320.000000   1709523   1708052   1706104   1703946   1701844  
  8310.000000   1700040   1698684   1697865   1697581   1697800  
  8300.000000   1698433   1699375   1700480   1701582   1702498  
  8290.000000   1703060   1703143   1702690   1701736   1700400  
  8280.000000   1698878   1697396   1696158   1695307   1694889  
  8270.000000   1694850   1695044   1695264   1695285   1694908  
  8260.000000   1694014   1692580   1690691   1688520   1686309  
  8250.000000   1684317   1682782   1681870   1681649   1682071  
  8240.000000   1682981   1684166   1685379   1686412   1687115  
  8230.000000   1687432   1687393   1687090   1686644   1686154  
  8220.000000   1685685   1685240   1684782   1684239   1683525  
  8210.000000   1682572   1681344   1679874   1678243   1676598  
  8200.000000   1675096   1673888   1673062   1672623   1672465  
  8190.000000   1672404   1672219   1671726   1670835   1669586  
  8180.000000   1668129   1666684   1665459   1664587   1664082  
  8170.000000   1663842   1663686   1663408   1662839   1661893  
  8160.000000   1660565   1658932   1657107   1655220   1653394  
  8150.000000   1651727   1650294   1649128   1648220   1647512  
  8140.000000   1646900   1646265   1645497   1644542   1643410  
  8130.000000   1642185   1640994   1639960   1639162   1638598  
  8120.000000   1638192   1637805   1637294   1636544   1635512  
  8110.000000   1634229   1632788   1631318   1629944   1628762  
  8100.000000   1627817   1627106   1626580   1626161   1625767  
  8090.000000   1625312   1624741   1624010   1623109   1622034  
  8080.000000   1620806   1619455   1618036   1616628   1615328  
  8070.000000   1614254   1613502   1613146   1613184   1613559  
  8060.000000   1614134   1614739   1615199   1615367   1615154  
  8050.000000   1614518   1613473   1612046   1610292   1608268  
  8040.000000   1606066   1603803   1601631   1599711   1598176  
  8030.000000   1597106   1596490   1596256   1596276   1596428  
  8020.000000   1596622   1596822   1597032   1597257   1597488  
  8010.000000   1597658   1597687   1597475   1596981   1596215  
  8000.000000   1595272   1594283   1593390   1592698   1592246  
  7990.000000   1592021   1591954   1591972   1591997   1591979  
  7980.000000   1591875   1591661   1591312   1590819   1590190  
  7970.000000   1589458   1588684   1587940   1587297   1586798  
  7960.000000   1586455   1586240   1586096   1585950   1585727  
  7950.000000   1585365   1584822   1584095   1583225   1582301  
  7940.000000   1581458   1580839   1580565   1580677   1581118  
  7930.000000   1581716   1582237   1582441   1582173   1581412  
  7920.000000   1580288   1579041   1577945   1577217   1576951  
  7910.000000   1577103   1577523   1578028   1578470   1578786  
  7900.000000   1578996   1579166   1579361   1579585   1579784  
  7890.000000   1579847   1579672   1579196   1578440   1577499  
  7880.000000   1576515   1575645   1575004   1574670   1574652  
  7870.000000   1574925   1575422   1576056   1576718   1577274  
  7860.000000   1577597   1577560   1577096   1576193   1574927  
  7850.000000   1573434   1571893   1570486   1569358   1568616  
  7840.000000   1568305   1568439   1568991   1569910   1571104  
  7830.000000   1572441   1573747   1574821   1575477   1575577  
  7820.000000   1575080   1574044   1572631   1571058   1569556  
  7810.000000   1568326   1567491   1567101   1567114   1567432  
  7800.000000   1567898   1568349   1568610   1568550   1568089  
  7790.000000   1567230   1566060   1564727   1563407   1562248  
  7780.000000   1561335   1560658   1560133   1559635   1559048  
  7770.000000   1558322   1557473   1556595   1555800   1555188  
  7760.000000   1554797   1554598   1554502   1554391   1554160  
  7750.000000   1553732   1553086   1552234   1551227   1550128  
  7740.000000   1549012   1547952   1547022   1546278   1545751  
  7730.000000   1545434   1545282   1545224   1545183   1545105  
  7720.000000   1544971   1544801   1544634   1544508   1544433  
  7710.000000   1544384   1544309   1544152   1543878   1543483  
  7700.000000   1543000   1542470   1541937   1541411   1540878  
  7690.000000   1540302   1539648   1538902   1538087   1537256  
  7680.000000   1536483   1535846   1535404   1535193   1535221  
  7670.000000   1535468   1535897   1536442   1537026   1537555  
  7660.000000   1537942   1538115   1538051   1537770   1537352  
  7650.000000   1536896   1536510   1536267   1536189   1536249  
  7640.000000   1536381   1536517   1536608   1536653   1536688  
  7630.000000   1536779   1536982   1537325   1537783   1538294  
  7620.000000   1538772   1539142   1539367   1539445   1539420  
  7610.000000   1539336   1539231   1539101   1538917   1538635  
  7600.000000   1538231   1537727   1537204   1536784   1536601  
  7590.000000   1536761   1537299   1538175   1539275   1540451  
  7580.000000   1541568   1542525   1543291   1543875   1544326  
  7570.000000   1544685   1544992   1545256   1545492   1545713  
  7560.000000   1545957   1546274   1546721   1547346   1548169  
  7550.000000   1549187   1550368   1551669   1553040   1554436  
  7540.000000   1555812   1557125   1558339   1559425   1560378  
  7530.000000   1561210   1561968   1562698   1563451   1564244  
  7520.000000   1565077   1565919   1566743   1567539   1568338  
  7510.000000   1569206   1570226   1571475   1572997   1574788  
  7500.000000   1576798   1578944   1581133   1583275   1585309  
  7490.000000   1587186   1588887   1590402   1591754   1592979  
  7480.000000   1594145   1595321   1596583   1597973   1599507  
  7470.000000   1601152   1602855   1604548   1606195   1607782  
  7460.000000   1609340   1610920   1612580   1614369   1616311  
  7450.000000   1618413   1620674   1623091   1625665   1628396  
  7440.000000   1631265   1634224   1637200   1640088   1642786  
  7430.000000   1645200   1647284   1649038   1650523   1651834  
  7420.000000   1653084   1654377   1655793   1657375   1659128  
  7410.000000   1661032   1663057   1665175   1667371   1669637  
  7400.000000   1671972   1674361   1676780   1679183   1681523  
  7390.000000   1683763   1685905   1687983   1690073   1692261  
  7380.000000   1694620   1697182   1699920   1702757   1705592  
  7370.000000   1708331   1710909   1713303   1715528   1717616  
  7360.000000   1719595   1721481   1723269   1724960   1726567  
  7350.000000   1728135   1729741   1731472   1733397   1735541  
  7340.000000   1737862   1740266   1742621   1744809   1746753  
  7330.000000   1748449   1749960   1751406   1752922   1754612  
  7320.000000   1756511   1758574   1760680   1762675   1764411  
  7310.000000   1765808   1766869   1767702   1768469   1769352  
  7300.000000   1770471   1771872   1773499   1775235   1776930  
  7290.000000   1778458   1779746   1780784   1781605   1782264  
  7280.000000   1782808   1783266   1783661   1784013   1784360  
  7270.000000   1784752   1785241   1785864   1786626   1787500  
  7260.000000   1788441   1789405   1790378   1791373   1792440  
  7250.000000   1793618   1794942   1796390   1797923   1799463  
  7240.000000   1800959   1802370   1803725   1805065   1806472  
  7230.000000   1807997   1809689   1811548   1813573   1815736  
  7220.000000   1818026   1820424   1822934   1825550   1828282  
  7210.000000   1831127   1834100   1837200   1840441   1843813  
  7200.000000   1847311   1850896   1854546   1858215   1861890  
  7190.000000   1865540   1869167   1872748   1876283   1879752  
  7180.000000   1883172   1886569   1890019   1893614   1897466  
  7170.000000   1901650   1906197   1911049   1916106   1921213  
  7160.000000   1926254   1931145   1935892   1940538   1945180  
  7150.000000   1949888   1954728   1959710   1964842   1970099  
  7140.000000   1975488   1981008   1986685   1992520   1998513  
  7130.000000   2004629   2010838   2017095   2023397   2029733  
  7120.000000   2036135   2042610   2049178   2055811   2062489  
  7110.000000   2069168   2075841   2082515   2089246   2096101  
  7100.000000   2103165   2110488   2118095   2125946   2133968  
  7090.000000   2142051   2150093   2158007   2165761   2173355  
  7080.000000   2180838   2188258   2195666   2203072   2210470  
  7070.000000   2217825   2225121   2232355   2239570   2246832  
  7060.000000   2254207   2261745   2269449   2277286   2285197  
  7050.000000   2293126   2301041   2308943   2316849   2324773  
  7040.000000   2332692   2340543   2348229   2355656   2362759  
  7030.000000   2369537   2376051   2382413   2388735   2395118  
  7020.000000   2401603   2408195   2414852   2421533   2428189  
  7010.000000   2434801   2441344   2447816   2454195   2460474  
  7000.000000   2466632   2472665   2478562   2484327   2489947  
  6990.000000   2495420   2500729   2505884   2510890   2515792  
  6980.000000   2520622   2525435   2530239   2535034   2539770  
  6970.000000   2544402   2548861   2553119   2557148   2560963  
  6960.000000   2564573   2568012   2571290   2574437   2577460  
  6950.000000   2580390   2583236   2586027   2588766   2591471  
  6940.000000   2594136   2596773   2599375   2601944   2604456  
  6930.000000   2606883   2609169   2611271   2613159   2614848  
  6920.000000   2616393   2617890   2619436   2621113   2622943  
  6910.000000   2624902   2626916   2628910   2630815   2632605  
  6900.000000   2634284   2635882   2637423   2638924   2640382  
  6890.000000   2641792   2643153   2644482   2645801   2647139  
  6880.000000   2648499   2649875   2651233   2652545   2653788  
  6870.000000   2654963   2656083   2657165   2658212   2659209  
  6860.000000   2660128   2660940   2661637   2662238   2662784  
  6850.000000   2663332   2663924   2664587   2665320   2666118  
  6840.000000   2666968   2667878   2668852   2669906   2671029  
  6830.000000   2672196   2673350   2674424   2675357   2676102  
  6820.000000   2676634   2676952   2677070   2677017   2676835  
  6810.000000   2676586   2676339   2676179   2676167   2676347  
  6800.000000   2676706   2677197   2677730   2678223   2678598  
  6790.000000   2678826   2678902   2678855   2678712   2678505  
  6780.000000   2678245   2677948   2677619   2677276   2676927  
  6770.000000   2676579   2676213   2675807   2675323   2674742  
  6760.000000   2674056   2673287   2672464   2671618   2670761  
  6750.000000   2669893   2669002   2668088   2667164   2666262  
  6740.000000   2665414   2664637   2663914   2663197   2662421  
  6730.000000   2661537   2660534   2659450   2658359   2657342  
  6720.000000   2656453   2655698   2655035   2654396   2653709  
  6710.000000   2652936   2652063   2651109   2650091   2649022  
  6700.000000   2647893   2646696   2645426   2644107   2642780  
  6690.000000   2641496   2640285   2639146   2638029   2636860  
  6680.000000   2635556   2634066   2632378   2630536   2628612  
  6670.000000   2626702   2624886   2623223   2621734   2620414  
  6660.000000   2619224   2618112   2617012   2615862   2614608  
  6650.000000   2613219   2611687   2610035   2608301   2606535  
  6640.000000   2604779   2603064   2601403   2599799   2598238  
  6630.000000   2596706   2595175   2593620   2592003   2590299  
  6620.000000   2588492   2586591   2584624   2582641   2580688  
  6610.000000   2578795   2576964   2575170   2573376   2571549  
  6600.000000   2569675   2567771   2565869   2564002   2562190  
  6590.000000   2560433   2558714   2557012   2555321   2553649  
  6580.000000   2552019   2550450   2548948   2547494   2546050  
  6570.000000   2544577   2543048   2541461   2539842   2538226  
  6560.000000   2536651   2535136   2533681   2532269   2530880  
  6550.000000   2529495   2528106   2526707   2525298   2523873  
  6540.000000   2522433   2520977   2519525   2518104   2516752  
  6530.000000   2515501   2514371   2513360   2512450   2511610  
  6520.000000   2510811   2510031   2509255   2508473   2507673  
  6510.000000   2506844   2505979   2505077   2504155   2503239  
  6500.000000   2502361   2501543   2500785   2500061   2499326  
  6490.000000   2498531   2497639   2496641   2495553   2494417  
  6480.000000   2493285   2492205   2491217   2490343   2489587  
  6470.000000   2488939   2488371   2487845   2487316   2486743  
  6460.000000   2486099   2485377   2484595   2483784   2482982  
  6450.000000   2482214   2481491   2480806   2480149   2479515  
  6440.000000   2478908   2478342   2477826   2477348   2476875  
  6430.000000   2476354   2475737   2474994   2474142   2473233  
  6420.000000   2472349   2471562   2470914   2470395   2469952  
  6410.000000   2469510   2469001   2468392   2467694   2466953  
  6400.000000   2466236   2465607   2465104   2464736   2464482  
  6390.000000   2464297   2464130   2463924   2463632   2463222  
  6380.000000   2462686   2462038   2461320   2460588   2459903  
  6370.000000   2459311   2458837   2458476   2458203   2457983  
  6360.000000   2457780   2457565   2457318   2457020   2456655  
  6350.000000   2456204   2455656   2455011   2454285   2453510  
  6340.000000   2452724   2451964   2451251   2450602   2450015  
  6330.000000   2449498   2449050   2448673   2448354   2448061  
  6320.000000   2447732   2447291   2446664   2445807   2444714  
  6310.000000   2443439   2442063   2440686   2439385   2438206  
  6300.000000   2437147   2436183   2435260   2434336   2433365  
  6290.000000   2432317   2431163   2429888   2428472   2426919  
  6280.000000   2425243   2423483   2421681   2419886   2418125  
  6270.000000   2416414   2414743   2413097   2411454   2409803  
  6260.000000   2408130   2406429   2404688   2402893   2401026  
  6250.000000   2399083   2397065   2394996   2392901   2390814  
  6240.000000   2388753   2386728   2384736   2382772   2380826  
  6230.000000   2378894   2376964   2375025   2373057   2371042  
  6220.000000   2368966   2366837   2364677   2362525   2360416  
  6210.000000   2358371   2356386   2354431   2352464   2350450  
  6200.000000   2348370   2346228   2344048   2341858   2339678  
  6190.000000   2337519   2335385   2333278   2331213   2329209  
  6180.000000   2327287   2325456   2323705   2322002   2320309  
  6170.000000   2318592   2316840   2315061   2313280   2311522  
  6160.000000   2309798   2308096   2306396   2304674   2302925  
  6150.000000   2301164   2299424   2297738   2296126   2294587  
  6140.000000   2293099   2291629   2290155   2288666   2287174  
  6130.000000   2285692   2284234   2282796   2281366   2279921  
  6120.000000   2278455   2276967   2275483   2274026   2272623  
  6110.000000   2271281   2269997   2268755   2267545   2266363  
  6100.000000   2265223   2264140   2263131   2262199   2261339  
  6090.000000   2260531   2259760   2259016   2258301   2257616  
  6080.000000   2256972   2256360   2255771   2255181   2254577  
  6070.000000   2253941   2253279   2252596   2251912   2251240  
  6060.000000   2250605   2250020   2249510   2249087   2248773  
  6050.000000   2248572   2248484   2248491   2248578   2248721  
  6040.000000   2248915   2249153   2249449   2249808   2250240  
  6030.000000   2250736   2251292   2251890   2252529   2253206  
  6020.000000   2253934   2254713   2255548   2256422   2257317  
  6010.000000   2258207   2259077   2259916   2260733   2261535  
  6000.000000   2262335   2263132   2263932   2264726   2265521  
  5990.000000   2266324   2267160   2268046   2269006   2270046  
  5980.000000   2271169   2272366   2273634   2274970   2276385  
  5970.000000   2277883   2279476   2281158   2282924   2284751  
  5960.000000   2286626   2288530   2290455   2292389   2294327  
  5950.000000   2296252   2298155   2300023   2301856   2303665  
  5940.000000   2305478   2307321   2309227   2311210   2313269  
  5930.000000   2315385   2317527   2319658   2321753   2323793  
  5920.000000   2325780   2327726   2329656   2331594   2333564  
  5910.000000   2335573   2337619   2339679   2341722   2343713  
  5900.000000   2345626   2347451   2349199   2350899   2352588  
  5890.000000   2354305   2356077   2357916   2359819   2361776  
  5880.000000   2363773   2365798   2367841   2369892   2371939  
  5870.000000   2373962   2375946   2377873   2379739   2381544  
  5860.000000   2383305   2385036   2386762   2388499   2390272  
  5850.000000   2392098   2394006   2396015   2398143   2400391  
  5840.000000   2402747   2405180   2407655   2410139   2412607  
  5830.000000   2415055   2417485   2419911   2422339   2424768  
  5820.000000   2427184   2429571   2431905   2434170   2436343  
  5810.000000   2438415   2440363   2442184   2443865   2445425  
  5800.000000   2446879   2448278   2449655   2451058   2452487  
  5790.000000   2453944   2455374   2456733   2457938   2458935  
  5780.000000   2459652   2460055   2460107   2459811   2459179  
  5770.000000   2458267   2457140   2455891   2454596   2453331  
  5760.000000   2452133   2451025   2450004   2449070   2448223  
  5750.000000   2447480   2446854   2446356   2445980   2445701  
  5740.000000   2445489   2445308   2445147   2444999   2444886  
  5730.000000   2444820   2444823   2444889   2445014   2445181  
  5720.000000   2445386   2445628   2445921   2446272   2446693  
  5710.000000   2447176   2447717   2448301   2448926   2449588  
  5700.000000   2450293   2451040   2451821   2452617   2453408  
  5690.000000   2454181   2454937   2455696   2456477   2457300  
  5680.000000   2458159   2459032   2459869   2460626   2461258  
  5670.000000   2461748   2462086   2462283   2462337   2462250  
  5660.000000   2462011   2461622   2461090   2460454   2459757  
  5650.000000   2459056   2458386   2457771   2457196   2456643  
  5640.000000   2456081   2455496   2454879   2454245   2453606  
  5630.000000   2452982   2452384   2451822   2451303   2450831  
  5620.000000   2450404   2450009   2449620   2449206   2448730  
  5610.000000   2448175   2447540   2446850   2446143   2445452  
  5600.000000   2444795   2444163   2443528   2442856   2442121  
  5590.000000   2441320   2440466   2439590   2438712   2437847  
  5580.000000   2436987   2436120   2435233   2434321   2433390  
  5570.000000   2432450   2431503   2430546   2429561   2428531  
  5560.000000   2427443   2426303   2425125   2423935   2422752  
  5550.000000   2421586   2420435   2419294   2418161   2417047  
  5540.000000   2415967   2414940   2413972   2413056   2412166  
  5530.000000   2411273   2410352   2409393   2408402   2407396  
  5520.000000   2406392   2405401   2404418   2403435   2402438  
  5510.000000   2401421   2400382   2399324   2398247   2397150  
  5500.000000   2396028   2394881   2393716   2392553   2391410  
  5490.000000   2390307   2389241   2388199   2387148   2386060  
  5480.000000   2384912   2383706   2382448   2381158   2379842  
  5470.000000   2378498   2377104   2375643   2374098   2372472  
  5460.000000   2370776   2369028   2367237   2365405   2363520  
  5450.000000   2361578   2359586   2357571   2355578   2353652  
  5440.000000   2351825   2350105   2348476   2346904   2345359  
  5430.000000   2343816   2342271   2340719   2339169   2337617  
  5420.000000   2336075   2334549   2333079   2331704   2330485  
  5410.000000   2329450   2328618   2327953   2327421   2326963  
  5400.000000   2326561   2326203   2325926   2325753   2325730  
  5390.000000   2325854   2326131   2326528   2327047   2327675  
  5380.000000   2328445   2329365   2330471   2331745   2333190  
  5370.000000   2334761   2336460   2338254   2340177   2342223  
  5360.000000   2344442   2346827   2349427   2352232   2355308  
  5350.000000   2358660   2362371   2366441   2370934   2375808  
  5340.000000   2381090   2386715   2392719   2399059   2405799  
  5330.000000   2412905   2420441   2428354   2436698   2445425  
  5320.000000   2454624   2464286   2474541   2485392   2496955  
  5310.000000   2509184   2522137   2535717   2549965   2564802  
  5300.000000   2580311   2596469   2613408   2631134   2649777  
  5290.000000   2669310   2689793   2711115   2733240   2756002  
  5280.000000   2779351   2803179   2827530   2852405   2877917  
  5270.000000   2904077   2930893   2958228   2985910   3013709  
  5260.000000   3041446   3069025   3096434   3123745   3151002  
  5250.000000   3178228   3205303   3232086   3258318   3283859  
  5240.000000   3308545   3332423   3355498   3377943   3399785  
  5230.000000   3421141   3441919   3462112   3481535   3500156  
  5220.000000   3517834   3534643   3550559   3565755   3580259  
  5210.000000   3594230   3607621   3620475   3632630   3644066  
  5200.000000   3654626   3664367   3673249   3681427   3688920  
  5190.000000   3695875   3702255   3708131   3713412   3718142  
  5180.000000   3722245   3725791   3728727   3731118   3732893  
  5170.000000   3734095   3734656   3734649   3734070   3733044  
  5160.000000   3731596   3729835   3727737   3725341   3722579  
  5150.000000   3719472   3715978   3712160   3708013   3703607  
  5140.000000   3698931   3694024   3688860   3683478   3677874  
  5130.000000   3672108   3666194   3660178   3654047   3647813  
  5120.000000   3641444   3634959   3628355   3621683   3614966  
  5110.000000   3608244   3601511   3594759   3587944   3581045  
  5100.000000   3574039   3566939   3559764   3552555   3545335  
  5090.000000   3538133   3530956   3523821   3516733   3509709  
  5080.000000   3502752   3495865   3489021   3482190   3475326  
  5070.000000   3468399   3461383   3454288   3447132   3439946  
  5060.000000   3432751   3425562   3418371   3411167   3403928  
  5050.000000   3396647   3389319   3381954   3374561   3367154  
  5040.000000   3359744   3352342   3344957   3337599   3330278  
  5030.000000   3323000   3315768   3308579   3301434   3294328  
  5020.000000   3287279   3280299   3273422   3266667   3260061  
  5010.000000   3253603   3247297   3241117   3235061   3229104  
  5000.000000   3223263   3217536   3211965   3206557   3201361  
  4990.000000   3196379   3191651   3187168   3182962   3179009  
  4980.000000   3175335   3171905   3168740   3165804   3163129  
  4970.000000   3160691   3158539   3156661   3155107   3153859  
  4960.000000   3152955   3152362   3152116   3152184   3152606  
  4950.000000   3153357   3154474   3155919   3157710   3159793  
  4940.000000   3162177   3164812   3167725   3170888   3174346  
  4930.000000   3178076   3182116   3186430   3191038   3195898  
  4920.000000   3201027   3206392   3212017   3217878   3223995  
  4910.000000   3230340   3236919   3243696   3250669   3257797  
  4900.000000   3265079   3272479   3279998   3287611   3295323  
  4890.000000   3303124   3311018   3318995   3327044   3335141  
  4880.000000   3343257   3351359   3359413   3367393   3375270  
  4870.000000   3383030   3390644   3398100   3405370   3412452  
  4860.000000   3419336   3426049   3432604   3439042   3445373  
  4850.000000   3451623   3457771   3463818   3469726   3475494  
  4840.000000   3481093   3486540   3491824   3496970   3501967  
  4830.000000   3506835   3511560   3516154   3520597   3524898  
  4820.000000   3529032   3532999   3536775   3540366   3543762  
  4810.000000   3546990   3550062   3553020   3555877   3558665  
  4800.000000   3561382   3564040   3566625   3569148   3571601  
  4790.000000   3574003   3576350   3578657   3580913   3583119  
  4780.000000   3585254   3587320   3589297   3591194   3592998  
  4770.000000   3594715   3596325   3597830   3599205   3600452  
  4760.000000   3601555   3602527   3603357   3604059   3604612  
  4750.000000   3605019   3605249   3605304   3605161   3604842  
  4740.000000   3604342   3603695   3602903   3601990   3600943  
  4730.000000   3599765   3598432   3596944   3595284   3593464  
  4720.000000   3591485   3589372   3587133   3584799   3582384  
  4710.000000   3579919   3577424   3574931   3572456   3570020  
  4700.000000   3567624   3565269   3562939   3560628   3558325  
  4690.000000   3556032   3553751   3551486   3549236   3546989  
  4680.000000   3544729   3542430   3540076   3537654   3535172  
  4670.000000   3532644   3530104   3527578   3525099   3522682  
  4660.000000   3520347   3518099   3515955   3513923   3512025  
  4650.000000   3510270   3508675   3507234   3505948   3504794  
  4640.000000   3503761   3502827   3501994   3501252   3500615  
  4630.000000   3500081   3499654   3499322   3499073   3498879  
  4620.000000   3498723   3498581   3498440   3498286   3498113  
  4610.000000   3497905   3497656   3497353   3496994   3496582  
  4600.000000   3496138   3495686   3495258   3494883   3494580  
  4590.000000   3494357   3494206   3494113   3494055   3494013  
  4580.000000   3493964   3493894   3493786   3493629   3493404  
  4570.000000   3493100   3492703   3492205   3491601   3490894  
  4560.000000   3490088   3489198   3488232   3487211   3486145  
  4550.000000   3485050   3483932   3482798   3481649   3480484  
  4540.000000   3479304   3478111   3476918   3475736   3474584  
  4530.000000   3473473   3472424   3471436   3470529   3469695  
  4520.000000   3468961   3468319   3467806   3467415   3467191  
  4510.000000   3467130   3467293   3467690   3468408   3469467  
  4500.000000   3470963   3472902   3475358   3478303   3481785  
  4490.000000   3485761   3490284   3495325   3500957   3507160  
  4480.000000   3514001   3521441   3529511   3538140   3547332  
  4470.000000   3557008   3567164   3577725   3588686   3599973  
  4460.000000   3611569   3623397   3635429   3647591   3659851  
  4450.000000   3672145   3684442   3696695   3708878   3720970  
  4440.000000   3732959   3744851   3756645   3768367   3780008  
  4430.000000   3791593   3803089   3814508   3825786   3836920  
  4420.000000   3847821   3858479   3868789   3878734   3888197  
  4410.000000   3897155   3905479   3913139   3920008   3926064  
  4400.000000   3931209   3935466   3938793   3941267   3942908  
  4390.000000   3943830   3944091   3943821   3943096   3942050  
  4380.000000   3940770   3939389   3937996   3936708   3935609  
  4370.000000   3934785   3934304   3934223   3934597   3935457  
  4360.000000   3936847   3938771   3941247   3944244   3947736  
  4350.000000   3951661   3955963   3960588   3965498   3970679  
  4340.000000   3976124   3981823   3987722   3993706   3999573  
  4330.000000   4005050   4009814   4013560   4016057   4017217  
  4320.000000   4017113   4015996   4014215   4012196   4010294  
  4310.000000   4008812   4007872   4007515   4007630   4008098  
  4300.000000   4008745   4009458   4010127   4010704   4011150  
  4290.000000   4011449   4011594   4011583   4011430   4011159  
  4280.000000   4010809   4010434   4010086   4009833   4009716  
  4270.000000   4009795   4010079   4010579   4011233   4011954  
  4260.000000   4012588   4012960   4012879   4012196   4010821  
  4250.000000   4008762   4006113   4003052   3999785   3996533  
  4240.000000   3993465   3990705   3988288   3986209   3984400  
  4230.000000   3982787   3981273   3979779   3978230   3976566  
  4220.000000   3974751   3972763   3970619   3968343   3966007  
  4210.000000   3963669   3961420   3959313   3957414   3955744  
  4200.000000   3954335   3953178   3952284   3951627   3951211  
  4190.000000   3950992   3950968   3951087   3951356   3951734  
  4180.000000   3952260   3952918   3953779   3954853   3956229  
  4170.000000   3957930   3960055   3962626   3965733   3969378  
  4160.000000   3973616   3978402   3983747   3989564   3995848  
  4150.000000   4002511   4009565   4016950   4024705   4032789  
  4140.000000   4041260   4050087   4059335   4068979   4079085  
  4130.000000   4089627   4100655   4112128   4124071   4136429  
  4120.000000   4149217   4162386   4175963   4189921   4204295  
  4110.000000   4219061   4234237   4249771   4265648   4281788  
  4100.000000   4298158   4314690   4331370   4348174   4365119  
  4090.000000   4382209   4399460   4416866   4434410   4452070  
  4080.000000   4469815   4487643   4505540   4523528   4541592  
  4070.000000   4559734   4577889   4596018   4614017   4631846  
  4060.000000   4649416   4666726   4683704   4700363   4716615  
  4050.000000   4732469   4747825   4762716   4777058   4790910  
  4040.000000   4804180   4816905   4828948   4840324   4850883  
  4030.000000   4860665   4869552   4877605   4884715   4890909  
  4020.000000   4896024   4900087   4903025   4904923   4905734  
  4010.000000   4905651   4904798   4903253   4900805   4897568  
  4000.000000   4893935  
##END= 
