##TITLE= Sample 032 By ssteindl date Dienstag, November 20 2018
##JCAMP-DX= 4.24
##DATA TYPE= INFRARED SPECTRUM
##ORIGIN= Exported PE Spectrum Data File
##OWNER= Sandra Steindl
##DATE= 18/11/20
##TIME= 16:42:32.00
##SPECTROMETER/DATA SYSTEM= PERKIN-ELMER Frontier FT-IR/NIR IR
##INSTRUMENT PARAMETERS=
  APODIZATION=stark
  DETECTOR=INGAAS
##RESOLUTION= 16.000000
##DELTAX= -2.000000
##XUNITS= 1/CM
##YUNITS= A
##XFACTOR= 1.00
##YFACTOR= 0.00000011920928955078
##FIRSTX= 10000.00
##LASTX= 4000.00
##NPOINTS= 3001
##FIRSTY= 0.234793
##MAXY= 0.682929
##MINY= 0.187280
##XYDATA= (X++(Y..Y))
 10000.000000   1969589   1959556   1949704   1940590   1933089  
  9990.000000   1927725   1924419   1922566   1921564   1920869  
  9980.000000   1920024   1918585   1916363   1913359   1909891  
  9970.000000   1906410   1903546   1901732   1901133   1901376  
  9960.000000   1901819   1901607   1900189   1897408   1893679  
  9950.000000   1889764   1886483   1884438   1883788   1884378  
  9940.000000   1885892   1888162   1891285   1895559   1901224  
  9930.000000   1908133   1915541   1922172   1926520   1927369  
  9920.000000   1924252   1917670   1909045   1900242   1893064  
  9910.000000   1888677   1887334   1888375   1890476   1892133  
  9900.000000   1892081   1889702   1885127   1879220   1873262  
  9890.000000   1868618   1866333   1866847   1869940   1874753  
  9880.000000   1880171   1885029   1888530   1890305   1890485  
  9870.000000   1889534   1888049   1886586   1885519   1885070  
  9860.000000   1885320   1886338   1888140   1890741   1893978  
  9850.000000   1897574   1901011   1903730   1905121   1904760  
  9840.000000   1902422   1898165   1892294   1885285   1877720  
  9830.000000   1870159   1863076   1856755   1851268   1846471  
  9820.000000   1842080   1837793   1833430   1829045   1824944  
  9810.000000   1821605   1819528   1819025   1820150   1822627  
  9800.000000   1826018   1829808   1833591   1837092   1840185  
  9790.000000   1842797   1844924   1846556   1847797   1848768  
  9780.000000   1849683   1850635   1851574   1852159   1851873  
  9770.000000   1850179   1846816   1842040   1836651   1831889  
  9760.000000   1828971   1828772   1831364   1836108   1841765  
  9750.000000   1847054   1851033   1853390   1854428   1854746  
  9740.000000   1854892   1854986   1854690   1853335   1850330  
  9730.000000   1845475   1839188   1832434   1826427   1822291  
  9720.000000   1820636   1821496   1824247   1827933   1831461  
  9710.000000   1833953   1834896   1834222   1832257   1829550  
  9700.000000   1826727   1824274   1822476   1821300   1820519  
  9690.000000   1819744   1818627   1816954   1814701   1812069  
  9680.000000   1809352   1806921   1805064   1803995   1803780  
  9670.000000   1804380   1805616   1807188   1808679   1809593  
  9660.000000   1809505   1808140   1805543   1802042   1798172  
  9650.000000   1794482   1791279   1788588   1786134   1783642  
  9640.000000   1781022   1778597   1776974   1776815   1778385  
  9630.000000   1781285   1784399   1786165   1785193   1780717  
  9620.000000   1773070   1763467   1753725   1745500   1739842  
  9610.000000   1736883   1736001   1736237   1736778   1737331  
  9600.000000   1738121   1739723   1742618   1746928   1752272  
  9590.000000   1757895   1763009   1766992   1769642   1770993  
  9580.000000   1771266   1770601   1769053   1766667   1763565  
  9570.000000   1760138   1756914   1754532   1753409   1753673  
  9560.000000   1755004   1756827   1758422   1759185   1758713  
  9550.000000   1756841   1753604   1749142   1743707   1737642  
  9540.000000   1731448   1725734   1721143   1718186   1717076  
  9530.000000   1717680   1719496   1721882   1724161   1725886  
  9520.000000   1726842   1727071   1726777   1726166   1725461  
  9510.000000   1724727   1724013   1723185   1722075   1720362  
  9500.000000   1717735   1713958   1709060   1703484   1698051  
  9490.000000   1693888   1692030   1693158   1697244   1703572  
  9480.000000   1710887   1717788   1723122   1726241   1727109  
  9470.000000   1726117   1723892   1720993   1717827   1714612  
  9460.000000   1711508   1708714   1706464   1705007   1704407  
  9450.000000   1704577   1705174   1705852   1706262   1706255  
  9440.000000   1705792   1704893   1703550   1701616   1698930  
  9430.000000   1695345   1690943   1686026   1681102   1676702  
  9420.000000   1673194   1670689   1669059   1668113   1667755  
  9410.000000   1668072   1669252   1671405   1674362   1677602  
  9400.000000   1680335   1681750   1681363   1679230   1676051  
  9390.000000   1672861   1670704   1670130   1671047   1672744  
  9380.000000   1674228   1674601   1673381   1670668   1667063  
  9370.000000   1663458   1660688   1659317   1659498   1661038  
  9360.000000   1663508   1666388   1669164   1671407   1672827  
  9350.000000   1673329   1673009   1672141   1671088   1670197  
  9340.000000   1669688   1669561   1669603   1669462   1668795  
  9330.000000   1667445   1665491   1663244   1661071   1659283  
  9320.000000   1657993   1657109   1656391   1655560   1654431  
  9310.000000   1652961   1651277   1649574   1648065   1646891  
  9300.000000   1646117   1645733   1645691   1645926   1646378  
  9290.000000   1646995   1647738   1648587   1649555   1650674  
  9280.000000   1651975   1653413   1654848   1656020   1656651  
  9270.000000   1656503   1655480   1653690   1651397   1649026  
  9260.000000   1646977   1645603   1645048   1645327   1646291  
  9250.000000   1647731   1649364   1650834   1651727   1651592  
  9240.000000   1650075   1646965   1642340   1636546   1630220  
  9230.000000   1624122   1618986   1615338   1613390   1613080  
  9220.000000   1614117   1616137   1618730   1621545   1624267  
  9210.000000   1626625   1628413   1629457   1629748   1629347  
  9200.000000   1628482   1627351   1626146   1624912   1623629  
  9190.000000   1622246   1620793   1619473   1618625   1618668  
  9180.000000   1619873   1622283   1625585   1629207   1632440  
  9170.000000   1634686   1635663   1635445   1634427   1633123  
  9160.000000   1631984   1631250   1630882   1630663   1630297  
  9150.000000   1629609   1628603   1627514   1626674   1626384  
  9140.000000   1626717   1627489   1628251   1628426   1627496  
  9130.000000   1625185   1621625   1617303   1612957   1609357  
  9120.000000   1607083   1606362   1606963   1608354   1609866  
  9110.000000   1610969   1611389   1611196   1610705   1610318  
  9100.000000   1610317   1610723   1611313   1611644   1611291  
  9090.000000   1609932   1607541   1604315   1600647   1597002  
  9080.000000   1593811   1591412   1589984   1589598   1590213  
  9070.000000   1591719   1593900   1596475   1599103   1601460  
  9060.000000   1603263   1604338   1604648   1604276   1603419  
  9050.000000   1602289   1601112   1600024   1599095   1598298  
  9040.000000   1597529   1596638   1595458   1593898   1591977  
  9030.000000   1589882   1587919   1586465   1585830   1586150  
  9020.000000   1587299   1588923   1590536   1591677   1592057  
  9010.000000   1591645   1590673   1589523   1588570   1588028  
  9000.000000   1587886   1587932   1587873   1587446   1586543  
  8990.000000   1585210   1583634   1582028   1580547   1579238  
  8980.000000   1578047   1576875   1575650   1574382   1573183  
  8970.000000   1572232   1571728   1571815   1572546   1573859  
  8960.000000   1575575   1577435   1579148   1580436   1581121  
  8950.000000   1581144   1580616   1579761   1578885   1578248  
  8940.000000   1578019   1578190   1578608   1579024   1579203  
  8930.000000   1579018   1578495   1577827   1577277   1577122  
  8920.000000   1577536   1578553   1580056   1581829   1583619  
  8910.000000   1585196   1586388   1587100   1587301   1587034  
  8900.000000   1586380   1585475   1584492   1583614   1582994  
  8890.000000   1582690   1582656   1582713   1582614   1582105  
  8880.000000   1581014   1579318   1577168   1574881   1572852  
  8870.000000   1571473   1571017   1571594   1573134   1575419  
  8860.000000   1578135   1580932   1583497   1585575   1587017  
  8850.000000   1587749   1587807   1587289   1586397   1585363  
  8840.000000   1584448   1583874   1583791   1584250   1585184  
  8830.000000   1586468   1587943   1589490   1591028   1592525  
  8820.000000   1593965   1595298   1596423   1597185   1597445  
  8810.000000   1597148   1596398   1595469   1594756   1594652  
  8800.000000   1595412   1597057   1599338   1601807   1603939  
  8790.000000   1605310   1605726   1605284   1604327   1603319  
  8780.000000   1602709   1602774   1603573   1604921   1606482  
  8770.000000   1607869   1608779   1609079   1608836   1608309  
  8760.000000   1607861   1607874   1608636   1610257   1612642  
  8750.000000   1615487   1618382   1620877   1622639   1623500  
  8740.000000   1623530   1622986   1622246   1621709   1621698  
  8730.000000   1622416   1623922   1626154   1628948   1632088  
  8720.000000   1635323   1638396   1641062   1643122   1644460  
  8710.000000   1645064   1645051   1644629   1644067   1643635  
  8700.000000   1643563   1644003   1645020   1646592   1648623  
  8690.000000   1650955   1653370   1655617   1657441   1658654  
  8680.000000   1659201   1659183   1658878   1658642   1658862  
  8670.000000   1659793   1661521   1663894   1666614   1669310  
  8660.000000   1671686   1673587   1675047   1676248   1677453  
  8650.000000   1678911   1680791   1683151   1685938   1689028  
  8640.000000   1692258   1695484   1698588   1701500   1704178  
  8630.000000   1706611   1708792   1710704   1712296   1713486  
  8620.000000   1714180   1714327   1713948   1713200   1712342  
  8610.000000   1711724   1711662   1712364   1713836   1715877  
  8600.000000   1718120   1720136   1721566   1722215   1722116  
  8590.000000   1721491   1720693   1720097   1720035   1720713  
  8580.000000   1722209   1724463   1727328   1730586   1733977  
  8570.000000   1737231   1740110   1742456   1744222   1745482  
  8560.000000   1746417   1747254   1748206   1749410   1750896  
  8550.000000   1752607   1754416   1756203   1757865   1759368  
  8540.000000   1760703   1761886   1762898   1763689   1764187  
  8530.000000   1764330   1764112   1763582   1762872   1762146  
  8520.000000   1761586   1761329   1761444   1761934   1762736  
  8510.000000   1763777   1764981   1766328   1767849   1769617  
  8500.000000   1771700   1774118   1776809   1779592   1782212  
  8490.000000   1784361   1785807   1786425   1786277   1785584  
  8480.000000   1784699   1783993   1783757   1784134   1785097  
  8470.000000   1786498   1788120   1789785   1791390   1792954  
  8460.000000   1794566   1796335   1798317   1800470   1802679  
  8450.000000   1804746   1806491   1807762   1808524   1808837  
  8440.000000   1808859   1808811   1808921   1809421   1810453  
  8430.000000   1812103   1814320   1816998   1819932   1822911  
  8420.000000   1825696   1828101   1829980   1831246   1831852  
  8410.000000   1831774   1831029   1829662   1827786   1825564  
  8400.000000   1823225   1821035   1819236   1818024   1817461  
  8390.000000   1817517   1818042   1818874   1819845   1820869  
  8380.000000   1821918   1823018   1824197   1825430   1826637  
  8370.000000   1827656   1828330   1828519   1828191   1827405  
  8360.000000   1826333   1825191   1824200   1823523   1823233  
  8350.000000   1823318   1823690   1824232   1824818   1825354  
  8340.000000   1825778   1826088   1826305   1826482   1826673  
  8330.000000   1826933   1827291   1827748   1828264   1828771  
  8320.000000   1829183   1829420   1829427   1829181   1828704  
  8310.000000   1828042   1827262   1826428   1825585   1824765  
  8300.000000   1823980   1823254   1822613   1822120   1821835  
  8290.000000   1821832   1822144   1822768   1823628   1824583  
  8280.000000   1825437   1825986   1826070   1825613   1824651  
  8270.000000   1823322   1821831   1820390   1819148   1818157  
  8260.000000   1817355   1816625   1815832   1814912   1813879  
  8250.000000   1812841   1811934   1811271   1810857   1810593  
  8240.000000   1810289   1809746   1808836   1807548   1806007  
  8230.000000   1804419   1802996   1801884   1801100   1800561  
  8220.000000   1800115   1799627   1799021   1798315   1797587  
  8210.000000   1796928   1796376   1795896   1795376   1794677  
  8200.000000   1793693   1792389   1790822   1789118   1787424  
  8190.000000   1785866   1784497   1783319   1782274   1781314  
  8180.000000   1780398   1779528   1778719   1777993   1777332  
  8170.000000   1776681   1775932   1774954   1773631   1771894  
  8160.000000   1769766   1767349   1764824   1762398   1760257  
  8150.000000   1758522   1757208   1756235   1755444   1754663  
  8140.000000   1753752   1752662   1751426   1750150   1748962  
  8130.000000   1747960   1747182   1746578   1746050   1745459  
  8120.000000   1744692   1743660   1742333   1740724   1738890  
  8110.000000   1736923   1734944   1733101   1731545   1730415  
  8100.000000   1729790   1729670   1729953   1730453   1730943  
  8090.000000   1731203   1731083   1730522   1729549   1728247  
  8080.000000   1726719   1725055   1723324   1721583   1719901  
  8070.000000   1718365   1717076   1716121   1715532   1715257  
  8060.000000   1715153   1715008   1714596   1713732   1712341  
  8050.000000   1710474   1708321   1706160   1704303   1703024  
  8040.000000   1702492   1702737   1703628   1704906   1706231  
  8030.000000   1707263   1707735   1707516   1706626   1705219  
  8020.000000   1703525   1701772   1700137   1698692   1697430  
  8010.000000   1696285   1695183   1694087   1692994   1691946  
  8000.000000   1690973   1690098   1689306   1688563   1687835  
  7990.000000   1687104   1686379   1685673   1684994   1684315  
  7980.000000   1683586   1682746   1681765   1680660   1679517  
  7970.000000   1678444   1677545   1676858   1676346   1675895  
  7960.000000   1675374   1674684   1673816   1672853   1671958  
  7950.000000   1671299   1670997   1671073   1671449   1671972  
  7940.000000   1672481   1672856   1673062   1673138   1673175  
  7930.000000   1673262   1673450   1673725   1674025   1674256  
  7920.000000   1674340   1674233   1673941   1673514   1673021  
  7910.000000   1672541   1672127   1671819   1671631   1671564  
  7900.000000   1671609   1671744   1671940   1672144   1672293  
  7890.000000   1672310   1672128   1671709   1671065   1670263  
  7880.000000   1669420   1668678   1668174   1667998   1668176  
  7870.000000   1668658   1669326   1670032   1670623   1670989  
  7860.000000   1671075   1670898   1670525   1670063   1669616  
  7850.000000   1669262   1669034   1668911   1668831   1668701  
  7840.000000   1668434   1667961   1667254   1666333   1665255  
  7830.000000   1664114   1663010   1662048   1661316   1660886  
  7820.000000   1660796   1661054   1661619   1662408   1663289  
  7810.000000   1664109   1664713   1664982   1664868   1664394  
  7800.000000   1663661   1662796   1661923   1661112   1660366  
  7790.000000   1659632   1658826   1657899   1656852   1655769  
  7780.000000   1654778   1654024   1653596   1653503   1653650  
  7770.000000   1653866   1653957   1653754   1653177   1652238  
  7760.000000   1651049   1649774   1648591   1647645   1647018  
  7750.000000   1646724   1646719   1646917   1647219   1647534  
  7740.000000   1647782   1647914   1647898   1647728   1647409  
  7730.000000   1646968   1646438   1645861   1645280   1644723  
  7720.000000   1644200   1643692   1643155   1642527   1641750  
  7710.000000   1640791   1639657   1638408   1637142   1635980  
  7700.000000   1635033   1634378   1634034   1633960   1634068  
  7690.000000   1634246   1634389   1634417   1634297   1634025  
  7680.000000   1633635   1633157   1632629   1632069   1631498  
  7670.000000   1630926   1630378   1629886   1629490   1629224  
  7660.000000   1629106   1629133   1629274   1629483   1629712  
  7650.000000   1629929   1630128   1630322   1630544   1630809  
  7640.000000   1631114   1631405   1631607   1631626   1631400  
  7630.000000   1630917   1630245   1629521   1628921   1628609  
  7620.000000   1628693   1629188   1630012   1631003   1631970  
  7610.000000   1632731   1633175   1633274   1633095   1632760  
  7600.000000   1632428   1632228   1632253   1632520   1632998  
  7590.000000   1633607   1634261   1634891   1635469   1636018  
  7580.000000   1636595   1637268   1638089   1639064   1640153  
  7570.000000   1641274   1642336   1643265   1644039   1644686  
  7560.000000   1645279   1645903   1646633   1647496   1648477  
  7550.000000   1649509   1650509   1651387   1652088   1652587  
  7540.000000   1652915   1653136   1653355   1653691   1654264  
  7530.000000   1655164   1656437   1658059   1659947   1661973  
  7520.000000   1664007   1665939   1667721   1669355   1670899  
  7510.000000   1672410   1673936   1675473   1677002   1678474  
  7500.000000   1679877   1681224   1682581   1684024   1685623  
  7490.000000   1687403   1689341   1691372   1693422   1695438  
  7480.000000   1697417   1699397   1701451   1703645   1706016  
  7470.000000   1708554   1711208   1713894   1716536   1719071  
  7460.000000   1721478   1723755   1725935   1728050   1730138  
  7450.000000   1732215   1734291   1736363   1738428   1740495  
  7440.000000   1742591   1744760   1747055   1749521   1752177  
  7430.000000   1754997   1757916   1760832   1763650   1766293  
  7420.000000   1768737   1771001   1773145   1775236   1777332  
  7410.000000   1779470   1781676   1783972   1786393   1788974  
  7400.000000   1791733   1794647   1797630   1800555   1803276  
  7390.000000   1805697   1807812   1809726   1811619   1813688  
  7380.000000   1816073   1818790   1821727   1824679   1827436  
  7370.000000   1829853   1831902   1833674   1835331   1837054  
  7360.000000   1838975   1841156   1843590   1846232   1849029  
  7350.000000   1851929   1854880   1857815   1860641   1863254  
  7340.000000   1865571   1867566   1869296   1870887   1872496  
  7330.000000   1874265   1876264   1878481   1880821   1883162  
  7320.000000   1885394   1887471   1889401   1891249   1893081  
  7310.000000   1894953   1896874   1898824   1900758   1902641  
  7300.000000   1904450   1906176   1907818   1909371   1910823  
  7290.000000   1912161   1913377   1914478   1915482   1916423  
  7280.000000   1917331   1918239   1919175   1920175   1921280  
  7270.000000   1922530   1923960   1925576   1927352   1929224  
  7260.000000   1931110   1932923   1934610   1936148   1937571  
  7250.000000   1938932   1940310   1941769   1943366   1945126  
  7240.000000   1947071   1949193   1951489   1953921   1956460  
  7230.000000   1959037   1961609   1964119   1966558   1968929  
  7220.000000   1971294   1973712   1976276   1979050   1982103  
  7210.000000   1985458   1989130   1993085   1997282   2001645  
  7200.000000   2006107   2010591   2015062   2019488   2023886  
  7190.000000   2028256   2032621   2036964   2041276   2045520  
  7180.000000   2049700   2053824   2057957   2062164   2066527  
  7170.000000   2071079   2075830   2080731   2085740   2090808  
  7160.000000   2095948   2101192   2106620   2112284   2118229  
  7150.000000   2124435   2130872   2137469   2144192   2150998  
  7140.000000   2157897   2164875   2171940   2179058   2186219  
  7130.000000   2193400   2200638   2207971   2215485   2223221  
  7120.000000   2231197   2239344   2247564   2255728   2263761  
  7110.000000   2271636   2279421   2287218   2295152   2303294  
  7100.000000   2311669   2320223   2328883   2337561   2346216  
  7090.000000   2354836   2363454   2372104   2380818   2389597  
  7080.000000   2398429   2407283   2416145   2425002   2433868  
  7070.000000   2442748   2451658   2460590   2469533   2478463  
  7060.000000   2487360   2496208   2505004   2513759   2522492  
  7050.000000   2531234   2540008   2548832   2557699   2566585  
  7040.000000   2575436   2584200   2592822   2601276   2609556  
  7030.000000   2617685   2625689   2633595   2641406   2649120  
  7020.000000   2656724   2664231   2671664   2679083   2686530  
  7010.000000   2694048   2701616   2709188   2716667   2723971  
  7000.000000   2731025   2737819   2744371   2750749   2757006  
  6990.000000   2763201   2769345   2775446   2781475   2787422  
  6980.000000   2793262   2798999   2804615   2810111   2815463  
  6970.000000   2820667   2825703   2830575   2835279   2839839  
  6960.000000   2844263   2848585   2852824   2857019   2861181  
  6950.000000   2865334   2869452   2873517   2877472   2881287  
  6940.000000   2884929   2888413   2891756   2894999   2898147  
  6930.000000   2901190   2904068   2906732   2909138   2911306  
  6920.000000   2913296   2915225   2917195   2919290   2921514  
  6910.000000   2923823   2926124   2928339   2930405   2932316  
  6900.000000   2934096   2935793   2937445   2939082   2940714  
  6890.000000   2942354   2944011   2945704   2947435   2949193  
  6880.000000   2950940   2952634   2954233   2955732   2957158  
  6870.000000   2958566   2960004   2961494   2963006   2964477  
  6860.000000   2965830   2967019   2968042   2968960   2969860  
  6850.000000   2970833   2971925   2973139   2974423   2975718  
  6840.000000   2976958   2978112   2979162   2980111   2980960  
  6830.000000   2981709   2982355   2982914   2983408   2983877  
  6820.000000   2984346   2984827   2985293   2985707   2986027  
  6810.000000   2986246   2986381   2986491   2986625   2986817  
  6800.000000   2987052   2987287   2987463   2987550   2987548  
  6790.000000   2987503   2987457   2987441   2987427   2987362  
  6780.000000   2987171   2986823   2986339   2985807   2985333  
  6770.000000   2985004   2984834   2984759   2984655   2984396  
  6760.000000   2983897   2983158   2982246   2981276   2980345  
  6750.000000   2979512   2978769   2978074   2977362   2976599  
  6740.000000   2975773   2974907   2974032   2973176   2972350  
  6730.000000   2971551   2970762   2969963   2969127   2968219  
  6720.000000   2967203   2966054   2964772   2963406   2962043  
  6710.000000   2960798   2959765   2958988   2958430   2957985  
  6700.000000   2957511   2956881   2956022   2954942   2953702  
  6690.000000   2952395   2951086   2949806   2948539   2947256  
  6680.000000   2945934   2944583   2943229   2941912   2940638  
  6670.000000   2939388   2938107   2936746   2935272   2933699  
  6660.000000   2932066   2930428   2928815   2927226   2925631  
  6650.000000   2923993   2922296   2920559   2918823   2917136  
  6640.000000   2915515   2913942   2912357   2910700   2908928  
  6630.000000   2907052   2905116   2903196   2901349   2899605  
  6620.000000   2897947   2896336   2894724   2893085   2891409  
  6610.000000   2889699   2887951   2886141   2884234   2882195  
  6600.000000   2880018   2877733   2875406   2873111   2870906  
  6590.000000   2868810   2866802   2864844   2862901   2860969  
  6580.000000   2859074   2857262   2855568   2853996   2852518  
  6570.000000   2851075   2849614   2848097   2846525   2844914  
  6560.000000   2843297   2841686   2840080   2838459   2836807  
  6550.000000   2835124   2833434   2831779   2830199   2828720  
  6540.000000   2827343   2826051   2824817   2823619   2822443  
  6530.000000   2821280   2820118   2818931   2817688   2816357  
  6520.000000   2814930   2813426   2811899   2810420   2809057  
  6510.000000   2807848   2806797   2805868   2805006   2804149  
  6500.000000   2803254   2802295   2801273   2800198   2799095  
  6490.000000   2797985   2796895   2795844   2794848   2793908  
  6480.000000   2793015   2792144   2791267   2790362   2789422  
  6470.000000   2788459   2787498   2786568   2785689   2784867  
  6460.000000   2784093   2783350   2782626   2781916   2781225  
  6450.000000   2780556   2779909   2779272   2778632   2777969  
  6440.000000   2777280   2776571   2775859   2775162   2774491  
  6430.000000   2773843   2773211   2772583   2771961   2771352  
  6420.000000   2770773   2770233   2769731   2769246   2768750  
  6410.000000   2768215   2767634   2767021   2766413   2765852  
  6400.000000   2765374   2764991   2764696   2764462   2764257  
  6390.000000   2764054   2763835   2763593   2763328   2763042  
  6380.000000   2762742   2762438   2762141   2761862   2761605  
  6370.000000   2761360   2761099   2760789   2760395   2759903  
  6360.000000   2759327   2758706   2758092   2757539   2757071  
  6350.000000   2756691   2756371   2756074   2755759   2755400  
  6340.000000   2754977   2754484   2753915   2753275   2752571  
  6330.000000   2751827   2751074   2750350   2749679   2749066  
  6320.000000   2748478   2747861   2747150   2746299   2745294  
  6310.000000   2744161   2742950   2741718   2740498   2739301  
  6300.000000   2738104   2736885   2735623   2734326   2733013  
  6290.000000   2731714   2730437   2729176   2727892   2726544  
  6280.000000   2725092   2723520   2721829   2720043   2718182  
  6270.000000   2716267   2714305   2712308   2710286   2708268  
  6260.000000   2706279   2704347   2702477   2700655   2698846  
  6250.000000   2697011   2695120   2693164   2691157   2689127  
  6240.000000   2687099   2685091   2683101   2681121   2679137  
  6230.000000   2677144   2675141   2673137   2671136   2669136  
  6220.000000   2667130   2665108   2663063   2660998   2658919  
  6210.000000   2656838   2654761   2652692   2650630   2648576  
  6200.000000   2646539   2644538   2642591   2640712   2638900  
  6190.000000   2637133   2635379   2633603   2631781   2629904  
  6180.000000   2627982   2626038   2624097   2622180   2620303  
  6170.000000   2618469   2616679   2614925   2613195   2611469  
  6160.000000   2609722   2607928   2606073   2604153   2602192  
  6150.000000   2600225   2598297   2596444   2594687   2593031  
  6140.000000   2591467   2589982   2588575   2587245   2585997  
  6130.000000   2584825   2583710   2582611   2581487   2580293  
  6120.000000   2579015   2577657   2576258   2574862   2573525  
  6110.000000   2572282   2571155   2570143   2569231   2568389  
  6100.000000   2567585   2566779   2565942   2565051   2564110  
  6090.000000   2563137   2562178   2561282   2560501   2559858  
  6080.000000   2559359   2558970   2558652   2558354   2558048  
  6070.000000   2557713   2557355   2556980   2556604   2556233  
  6060.000000   2555884   2555569   2555320   2555163   2555136  
  6050.000000   2555249   2555504   2555872   2556323   2556817  
  6040.000000   2557338   2557877   2558450   2559070   2559756  
  6030.000000   2560507   2561324   2562200   2563141   2564152  
  6020.000000   2565247   2566430   2567694   2569012   2570350  
  6010.000000   2571663   2572924   2574114   2575236   2576299  
  6000.000000   2577324   2578323   2579320   2580330   2581382  
  5990.000000   2582492   2583686   2584963   2586321   2587733  
  5980.000000   2589188   2590672   2592205   2593821   2595574  
  5970.000000   2597504   2599640   2601969   2604464   2607066  
  5960.000000   2609732   2612416   2615107   2617789   2620476  
  5950.000000   2623160   2625853   2628546   2631254   2633987  
  5940.000000   2636773   2639635   2642598   2645672   2648858  
  5930.000000   2652142   2655507   2658927   2662375   2665817  
  5920.000000   2669216   2672530   2675726   2678777   2681681  
  5910.000000   2684452   2687119   2689713   2692261   2694784  
  5900.000000   2697292   2699802   2702331   2704911   2707564  
  5890.000000   2710313   2713150   2716054   2718979   2721882  
  5880.000000   2724720   2727470   2730125   2732685   2735154  
  5870.000000   2737528   2739802   2741970   2744040   2746036  
  5860.000000   2747994   2749952   2751945   2753992   2756100  
  5850.000000   2758268   2760497   2762794   2765172   2767639  
  5840.000000   2770195   2772821   2775488   2778158   2780805  
  5830.000000   2783412   2785980   2788518   2791035   2793535  
  5820.000000   2796010   2798453   2800858   2803231   2805580  
  5810.000000   2807923   2810261   2812591   2814884   2817126  
  5800.000000   2819284   2821362   2823354   2825288   2827160  
  5790.000000   2828980   2830711   2832324   2833747   2834929  
  5780.000000   2835798   2836311   2836420   2836123   2835428  
  5770.000000   2834396   2833104   2831664   2830174   2828731  
  5760.000000   2827385   2826165   2825062   2824069   2823175  
  5750.000000   2822388   2821720   2821185   2820782   2820493  
  5740.000000   2820290   2820138   2820021   2819930   2819878  
  5730.000000   2819868   2819907   2819973   2820047   2820100  
  5720.000000   2820127   2820135   2820156   2820222   2820362  
  5710.000000   2820581   2820875   2821224   2821616   2822048  
  5700.000000   2822529   2823070   2823673   2824326   2824999  
  5690.000000   2825659   2826276   2826840   2827346   2827810  
  5680.000000   2828229   2828604   2828908   2829120   2829210  
  5670.000000   2829169   2828985   2828664   2828198   2827585  
  5660.000000   2826812   2825885   2824816   2823648   2822430  
  5650.000000   2821219   2820049   2818939   2817874   2816838  
  5640.000000   2815804   2814768   2813732   2812709   2811708  
  5630.000000   2810729   2809761   2808788   2807806   2806818  
  5620.000000   2805846   2804913   2804036   2803215   2802436  
  5610.000000   2801677   2800920   2800159   2799399   2798656  
  5600.000000   2797940   2797251   2796575   2795892   2795183  
  5590.000000   2794439   2793658   2792845   2791999   2791113  
  5580.000000   2790171   2789160   2788072   2786918   2785720  
  5570.000000   2784507   2783297   2782097   2780894   2779672  
  5560.000000   2778411   2777108   2775767   2774404   2773033  
  5550.000000   2771663   2770297   2768937   2767587   2766260  
  5540.000000   2764971   2763736   2762554   2761413   2760286  
  5530.000000   2759148   2757981   2756787   2755580   2754381  
  5520.000000   2753207   2752058   2750921   2749776   2748602  
  5510.000000   2747395   2746161   2744918   2743683   2742468  
  5500.000000   2741274   2740098   2738931   2737769   2736600  
  5490.000000   2735416   2734193   2732907   2731528   2730041  
  5480.000000   2728445   2726766   2725035   2723292   2721555  
  5470.000000   2719829   2718093   2716328   2714508   2712632  
  5460.000000   2710700   2708728   2706721   2704682   2702607  
  5450.000000   2700498   2698369   2696246   2694167   2692160  
  5440.000000   2690240   2688400   2686621   2684877   2683158  
  5430.000000   2681460   2679797   2678170   2676582   2675013  
  5420.000000   2673460   2671920   2670436   2669058   2667865  
  5410.000000   2666900   2666182   2665666   2665300   2665006  
  5400.000000   2664757   2664536   2664391   2664356   2664487  
  5390.000000   2664781   2665240   2665815   2666498   2667267  
  5380.000000   2668162   2669204   2670451   2671903   2673581  
  5370.000000   2675441   2677481   2679656   2681989   2684455  
  5360.000000   2687103   2689916   2692958   2696224   2699805  
  5350.000000   2703721   2708082   2712899   2718252   2724097  
  5340.000000   2730467   2737286   2744599   2752353   2760623  
  5330.000000   2769362   2778639   2788378   2798628   2809310  
  5320.000000   2820511   2832204   2844536   2857512   2871287  
  5310.000000   2885830   2901244   2917443   2934496   2952320  
  5300.000000   2971009   2990524   3011003   3032437   3054963  
  5290.000000   3078539   3103222   3128873   3155435   3182703  
  5280.000000   3210609   3239026   3268010   3297583   3327892  
  5270.000000   3358971   3390841   3423353   3456304   3489425  
  5260.000000   3522503   3555428   3588191   3620883   3653556  
  5250.000000   3686236   3718768   3750968   3782511   3813219  
  5240.000000   3842888   3871582   3899322   3926337   3952685  
  5230.000000   3978531   4003782   4028432   4052248   4075168  
  5220.000000   4096991   4117774   4137466   4156264   4174205  
  5210.000000   4191494   4208093   4224076   4239264   4253639  
  5200.000000   4267019   4279470   4290938   4301607   4311482  
  5190.000000   4320718   4329244   4337112   4344187   4350509  
  5180.000000   4355994   4360753   4364761   4368144   4370850  
  5170.000000   4372951   4374370   4375181   4375350   4374998  
  5160.000000   4374125   4372836   4371084   4368903   4366204  
  5150.000000   4363015   4359292   4355120   4350511   4345568  
  5140.000000   4340288   4334735   4328881   4322776   4316414  
  5130.000000   4309869   4303150   4296315   4289339   4282228  
  5120.000000   4274928   4267441   4259750   4251900   4243920  
  5110.000000   4235874   4227785   4219685   4211573   4203465  
  5100.000000   4195362   4187289   4179253   4171266   4163310  
  5090.000000   4155369   4147413   4139437   4131442   4123463  
  5080.000000   4115525   4107659   4099859   4092105   4084345  
  5070.000000   4076535   4068632   4060625   4052515   4044329  
  5060.000000   4036081   4027794   4019466   4011099   4002680  
  5050.000000   3994214   3985700   3977152   3968582   3960005  
  5040.000000   3951430   3942872   3934340   3925845   3917396  
  5030.000000   3909000   3900660   3892378   3884162   3876017  
  5020.000000   3867964   3860014   3852192   3844495   3836934  
  5010.000000   3829489   3822160   3814929   3807817   3800824  
  5000.000000   3793996   3787346   3780921   3774718   3768769  
  4990.000000   3763056   3757607   3752402   3747476   3742808  
  4980.000000   3738433   3734321   3730503   3726949   3723698  
  4970.000000   3720734   3718113   3715823   3713922   3712385  
  4960.000000   3711256   3710496   3710146   3710171   3710618  
  4950.000000   3711455   3712728   3714390   3716472   3718916  
  4940.000000   3721750   3724923   3728476   3732371   3736649  
  4930.000000   3741266   3746249   3751544   3757172   3763086  
  4920.000000   3769316   3775829   3782659   3789773   3797190  
  4910.000000   3804869   3812819   3821000   3829422   3838055  
  4900.000000   3846907   3855951   3865184   3874577   3884120  
  4890.000000   3893786   3903556   3913400   3923280   3933153  
  4880.000000   3942966   3952677   3962235   3971619   3980790  
  4870.000000   3989740   3998426   4006838   4014926   4022685  
  4860.000000   4030084   4037144   4043859   4050272   4056380  
  4850.000000   4062220   4067778   4073089   4078146   4082999  
  4840.000000   4087663   4092200   4096620   4100966   4105223  
  4830.000000   4109404   4113478   4117451   4121303   4125050  
  4820.000000   4128687   4132232   4135677   4139031   4142278  
  4810.000000   4145417   4148430   4151312   4154052   4156656  
  4800.000000   4159131   4161509   4163821   4166118   4168434  
  4790.000000   4170808   4173242   4175734   4178248   4180760  
  4780.000000   4183233   4185656   4188016   4190322   4192569  
  4770.000000   4194761   4196877   4198907   4200820   4202607  
  4760.000000   4204247   4205745   4207095   4208314   4209396  
  4750.000000   4210363   4211206   4211944   4212566   4213083  
  4740.000000   4213475   4213745   4213866   4213835   4213629  
  4730.000000   4213250   4212685   4211940   4211009   4209906  
  4720.000000   4208633   4207216   4205672   4204041   4202353  
  4710.000000   4200650   4198959   4197314   4195730   4194226  
  4700.000000   4192809   4191484   4190243   4189073   4187951  
  4690.000000   4186850   4185747   4184626   4183482   4182319  
  4680.000000   4181147   4179969   4178783   4177569   4176308  
  4670.000000   4174971   4173549   4172034   4170449   4168820  
  4660.000000   4167188   4165592   4164076   4162675   4161429  
  4650.000000   4160368   4159521   4158901   4158512   4158331  
  4640.000000   4158330   4158459   4158677   4158940   4159221  
  4630.000000   4159497   4159762   4160009   4160237   4160440  
  4620.000000   4160612   4160742   4160817   4160819   4160732  
  4610.000000   4160543   4160246   4159849   4159374   4158857  
  4600.000000   4158332   4157837   4157381   4156967   4156569  
  4590.000000   4156163   4155717   4155217   4154652   4154030  
  4580.000000   4153350   4152618   4151826   4150969   4150034  
  4570.000000   4149024   4147938   4146790   4145580   4144315  
  4560.000000   4142980   4141569   4140070   4138490   4136839  
  4550.000000   4135146   4133431   4131711   4129985   4128239  
  4540.000000   4126451   4124606   4122702   4120751   4118780  
  4530.000000   4116813   4114878   4112974   4111112   4109269  
  4520.000000   4107461   4105675   4103957   4102317   4100829  
  4510.000000   4099515   4098464   4097694   4097305   4097307  
  4500.000000   4097796   4098764   4100295   4102364   4105052  
  4490.000000   4108338   4112323   4116998   4122471   4128720  
  4480.000000   4135817   4143699   4152393   4161808   4171957  
  4470.000000   4182749   4194197   4206213   4218794   4231839  
  4460.000000   4245321   4259135   4273248   4287568   4302064  
  4450.000000   4316654   4331302   4345933   4360509   4374985  
  4440.000000   4389342   4403579   4417696   4431717   4445628  
  4430.000000   4459452   4473149   4486742   4500174   4513472  
  4420.000000   4526558   4539435   4551983   4564160   4575798  
  4410.000000   4586834   4597098   4606550   4615064   4622647  
  4400.000000   4629229   4634866   4639536   4643338   4646300  
  4390.000000   4648558   4650181   4651327   4652079   4652582  
  4380.000000   4652903   4653154   4653386   4653684   4654102  
  4370.000000   4654714   4655579   4656761   4658311   4660268  
  4360.000000   4662666   4665518   4668830   4672591   4676773  
  4350.000000   4681336   4686214   4691353   4696673   4702119  
  4340.000000   4707616   4713100   4718463   4723574   4728238  
  4330.000000   4732232   4735306   4737255   4737939   4737363  
  4320.000000   4735659   4733116   4730090   4726993   4724159  
  4310.000000   4721864   4720221   4719263   4718886   4718976  
  4300.000000   4719366   4719938   4720581   4721231   4721849  
  4290.000000   4722414   4722935   4723419   4723900   4724409  
  4280.000000   4724981   4725650   4726422   4727310   4728285  
  4270.000000   4729334   4730400   4731436   4732339   4733003  
  4260.000000   4733270   4732992   4732022   4730280   4727752  
  4250.000000   4724535   4720797   4716781   4712725   4708859  
  4240.000000   4705324   4702202   4699465   4697051   4694843  
  4230.000000   4692735   4690627   4688453   4686176   4683779  
  4220.000000   4681281   4678693   4676073   4673455   4670921  
  4210.000000   4668515   4666316   4664356   4662690   4661325  
  4200.000000   4660286   4659555   4659140   4659000   4659131  
  4190.000000   4659476   4660027   4660728   4661591   4662578  
  4180.000000   4663730   4665032   4666548   4668273   4670287  
  4170.000000   4672599   4675305   4678422   4682046   4686175  
  4160.000000   4690871   4696089   4701852   4708086   4714812  
  4150.000000   4721972   4729615   4737708   4746315   4755402  
  4140.000000   4765028   4775147   4785812   4796973   4808680  
  4130.000000   4820880   4833605   4846790   4860452   4874521  
  4120.000000   4889022   4903908   4919228   4934963   4951170  
  4110.000000   4967834   4984994   5002612   5020693   5039173  
  4100.000000   5058027   5077177   5096587   5116195   5135981  
  4090.000000   5155923   5176022   5196283   5216703   5237283  
  4080.000000   5257986   5278793   5299631   5320464   5341196  
  4070.000000   5361782   5382115   5402162   5421831   5441128  
  4060.000000   5459989   5478453   5496450   5514012   5531039  
  4050.000000   5547555   5563462   5578825   5593581   5607825  
  4040.000000   5621479   5634600   5647042   5658811   5669736  
  4030.000000   5679846   5689012   5697304   5704636   5711067  
  4020.000000   5716470   5720900   5724307   5726772   5728223  
  4010.000000   5728827   5728682   5727832   5726030   5723383  
  4000.000000   5720314  
##END= 
