##TITLE= Sample 005 By ssteindl date Dienstag, November 20 2018
##JCAMP-DX= 4.24
##DATA TYPE= INFRARED SPECTRUM
##ORIGIN= Exported PE Spectrum Data File
##OWNER= Sandra Steindl
##DATE= 18/11/20
##TIME= 16:57:02.00
##SPECTROMETER/DATA SYSTEM= PERKIN-ELMER Frontier FT-IR/NIR IR
##INSTRUMENT PARAMETERS=
  APODIZATION=stark
  DETECTOR=INGAAS
##RESOLUTION= 16.000000
##DELTAX= -2.000000
##XUNITS= 1/CM
##YUNITS= A
##XFACTOR= 1.00
##YFACTOR= 0.00000011920928955078
##FIRSTX= 10000.00
##LASTX= 4000.00
##NPOINTS= 3001
##FIRSTY= 0.224337
##MAXY= 0.664170
##MINY= 0.190975
##XYDATA= (X++(Y..Y))
 10000.000000   1881875   1882989   1886118   1893424   1903848  
  9990.000000   1914291   1922264   1926784   1927629   1925344  
  9980.000000   1921482   1917935   1915830   1915206   1915278  
  9970.000000   1914916   1913067   1909317   1903988   1898009  
  9960.000000   1892433   1888176   1885622   1884732   1885054  
  9950.000000   1886003   1887014   1887636   1887602   1886772  
  9940.000000   1885150   1882841   1880056   1877053   1874138  
  9930.000000   1871535   1869454   1867975   1867144   1866912  
  9920.000000   1867143   1867611   1867992   1867973   1867367  
  9910.000000   1866255   1865036   1864339   1864791   1866733  
  9900.000000   1869991   1873852   1877279   1879270   1879262  
  9890.000000   1877340   1874187   1870792   1868004   1866225  
  9880.000000   1865296   1864676   1863774   1862267   1860258  
  9870.000000   1858178   1856506   1855483   1854953   1854449  
  9860.000000   1853481   1851809   1849636   1847513   1846087  
  9850.000000   1845771   1846546   1847992   1849529   1850723  
  9840.000000   1851534   1852267   1853416   1855277   1857742  
  9830.000000   1860245   1861953   1862163   1860583   1857574  
  9820.000000   1853999   1850992   1849537   1850168   1852796  
  9810.000000   1856748   1860964   1864260   1865596   1864287  
  9800.000000   1860132   1853502   1845280   1836789   1829475  
  9790.000000   1824660   1823097   1824840   1829104   1834575  
  9780.000000   1839692   1843157   1844225   1842823   1839471  
  9770.000000   1834904   1829855   1824709   1819566   1814268  
  9760.000000   1808668   1802810   1797007   1791888   1788149  
  9750.000000   1786480   1787231   1790370   1795349   1801192  
  9740.000000   1806692   1810570   1811864   1810008   1805110  
  9730.000000   1797823   1789311   1780915   1773905   1769185  
  9720.000000   1767189   1767842   1770693   1775014   1779977  
  9710.000000   1784714   1788464   1790630   1790923   1789427  
  9700.000000   1786625   1783371   1780674   1779537   1780659  
  9690.000000   1784336   1790369   1798161   1806839   1815366  
  9680.000000   1822650   1827601   1829252   1826913   1820397  
  9670.000000   1810219   1797659   1784663   1773418   1765891  
  9660.000000   1763207   1765424   1771399   1779251   1786772  
  9650.000000   1792111   1794112   1792525   1787912   1781312  
  9640.000000   1774005   1767092   1761478   1757635   1755745  
  9630.000000   1755607   1756769   1758592   1760397   1761702  
  9620.000000   1762292   1762368   1762354   1762772   1763955  
  9610.000000   1765914   1768323   1770642   1772345   1773108  
  9600.000000   1772896   1771927   1770511   1768889   1767137  
  9590.000000   1765143   1762735   1759745   1756125   1751907  
  9580.000000   1747199   1742144   1736932   1731879   1727432  
  9570.000000   1724196   1722756   1723528   1726532   1731300  
  9560.000000   1736968   1742444   1746796   1749405   1750216  
  9550.000000   1749530   1747957   1746036   1744202   1742653  
  9540.000000   1741473   1740743   1740578   1741218   1742831  
  9530.000000   1745555   1749261   1753709   1758443   1763014  
  9520.000000   1766929   1769754   1771087   1770571   1768003  
  9510.000000   1763361   1756949   1749338   1741312   1733652  
  9500.000000   1726949   1721479   1717173   1713785   1711018  
  9490.000000   1708758   1707046   1706094   1706092   1707105  
  9480.000000   1709030   1711573   1714424   1717248   1719831  
  9470.000000   1721958   1723462   1724145   1723902   1722805  
  9460.000000   1721219   1719774   1719179   1719971   1722219  
  9450.000000   1725465   1728781   1731132   1731697   1730222  
  9440.000000   1727044   1722977   1718910   1715504   1712957  
  9430.000000   1711061   1709415   1707666   1705701   1703635  
  9420.000000   1701683   1699965   1698366   1696592   1694327  
  9410.000000   1691485   1688338   1685460   1683535   1683047  
  9400.000000   1684090   1686301   1688994   1691405   1692964  
  9390.000000   1693430   1692948   1691834   1690487   1689148  
  9380.000000   1687948   1686877   1685877   1684895   1683891  
  9370.000000   1682903   1682002   1681375   1681240   1681900  
  9360.000000   1683577   1686358   1690017   1693968   1697346  
  9350.000000   1699188   1698794   1695919   1690943   1684710  
  9340.000000   1678304   1672703   1668534   1665982   1664834  
  9330.000000   1664719   1665269   1666283   1667660   1669342  
  9320.000000   1671181   1672913   1674225   1674847   1674706  
  9310.000000   1673904   1672745   1671534   1670542   1669889  
  9300.000000   1669589   1669608   1669904   1670499   1671397  
  9290.000000   1672577   1673898   1675150   1676108   1676631  
  9280.000000   1676717   1676460   1675977   1675285   1674277  
  9270.000000   1672747   1670533   1667647   1664374   1661247  
  9260.000000   1658862   1657691   1657843   1659079   1660854  
  9250.000000   1662562   1663720   1664117   1663865   1663222  
  9240.000000   1662499   1661839   1661232   1660480   1659333  
  9230.000000   1657632   1655403   1652930   1650639   1649064  
  9220.000000   1648645   1649722   1652331   1656185   1660614  
  9210.000000   1664695   1667472   1668132   1666268   1661933  
  9200.000000   1655727   1648557   1641436   1635179   1630286  
  9190.000000   1626912   1624963   1624262   1624621   1625939  
  9180.000000   1628077   1630852   1633924   1636862   1639272  
  9170.000000   1640903   1641795   1642153   1642301   1642415  
  9160.000000   1642505   1642352   1641691   1640374   1638530  
  9150.000000   1636585   1635097   1634539   1635043   1636350  
  9140.000000   1637871   1638941   1639080   1638176   1636512  
  9130.000000   1634627   1633074   1632217   1632117   1632604  
  9120.000000   1633404   1634306   1635227   1636203   1637284  
  9110.000000   1638449   1639540   1640311   1640523   1640053  
  9100.000000   1638963   1637433   1635709   1633965   1632299  
  9090.000000   1630705   1629154   1627654   1626273   1625154  
  9080.000000   1624419   1624152   1624339   1624929   1625847  
  9070.000000   1627063   1628552   1630280   1632108   1633794  
  9060.000000   1635011   1635456   1634977   1633648   1631773  
  9050.000000   1629767   1627995   1626600   1625443   1624160  
  9040.000000   1622354   1619746   1616348   1612466   1608634  
  9030.000000   1605418   1603207   1602128   1602010   1602537  
  9020.000000   1603356   1604262   1605259   1606513   1608255  
  9010.000000   1610588   1613424   1616391   1618950   1620479  
  9000.000000   1620521   1618884   1615798   1611856   1607906  
  8990.000000   1604835   1603303   1603610   1605572   1608624  
  8980.000000   1611953   1614784   1616581   1617187   1616792  
  8970.000000   1615810   1614695   1613764   1613118   1612639  
  8960.000000   1612133   1611433   1610536   1609591   1608854  
  8950.000000   1608572   1608861   1609675   1610789   1611906  
  8940.000000   1612740   1613126   1613048   1612629   1612083  
  8930.000000   1611640   1611504   1611789   1612513   1613570  
  8920.000000   1614769   1615851   1616556   1616676   1616124  
  8910.000000   1614979   1613488   1612012   1610922   1610499  
  8900.000000   1610852   1611889   1613342   1614862   1616116  
  8890.000000   1616885   1617104   1616849   1616296   1615638  
  8880.000000   1615051   1614623   1614369   1614227   1614109  
  8870.000000   1613946   1613706   1613441   1613254   1613305  
  8860.000000   1613742   1614665   1616084   1617868   1619786  
  8850.000000   1621489   1622640   1622938   1622262   1620651  
  8840.000000   1618381   1615884   1613712   1612400   1612352  
  8830.000000   1613768   1616570   1620447   1624884   1629338  
  8820.000000   1633341   1636643   1639219   1641231   1642927  
  8810.000000   1644491   1645964   1647183   1647888   1647804  
  8800.000000   1646827   1645069   1642859   1640668   1638913  
  8790.000000   1637889   1637614   1637933   1638557   1639252  
  8780.000000   1639898   1640531   1641271   1642209   1643335  
  8770.000000   1644458   1645321   1645629   1645264   1644262  
  8760.000000   1642903   1641542   1640552   1640189   1640559  
  8750.000000   1641658   1643406   1645758   1648696   1652237  
  8740.000000   1656331   1660810   1665354   1669526   1672896  
  8730.000000   1675115   1676060   1675814   1674688   1673081  
  8720.000000   1671405   1669986   1669035   1668676   1668953  
  8710.000000   1669885   1671441   1673558   1676077   1678770  
  8700.000000   1681343   1683520   1685117   1686097   1686604  
  8690.000000   1686883   1687242   1687909   1688999   1690454  
  8680.000000   1692104   1693728   1695153   1696308   1697240  
  8670.000000   1698071   1698934   1699917   1701024   1702189  
  8660.000000   1703324   1704371   1705373   1706438   1707737  
  8650.000000   1709388   1711422   1713725   1716077   1718212  
  8640.000000   1719927   1721166   1722058   1722899   1724054  
  8630.000000   1725845   1728441   1731801   1735690   1739732  
  8620.000000   1743512   1746669   1748978   1750387   1750999  
  8610.000000   1751049   1750828   1750650   1750769   1751371  
  8600.000000   1752507   1754125   1756050   1758053   1759878  
  8590.000000   1761328   1762277   1762711   1762690   1762323  
  8580.000000   1761732   1761032   1760332   1759737   1759362  
  8570.000000   1759324   1759719   1760593   1761896   1763494  
  8560.000000   1765197   1766810   1768211   1769360   1770338  
  8550.000000   1771244   1772182   1773166   1774154   1775049  
  8540.000000   1775789   1776401   1777051   1778006   1779547  
  8530.000000   1781872   1784998   1788732   1792689   1796396  
  8520.000000   1799428   1801503   1802566   1802769   1802446  
  8510.000000   1801988   1801749   1801963   1802703   1803904  
  8500.000000   1805385   1806954   1808435   1809758   1810915  
  8490.000000   1811985   1813052   1814181   1815371   1816539  
  8480.000000   1817567   1818323   1818742   1818827   1818665  
  8470.000000   1818392   1818157   1818092   1818280   1818780  
  8460.000000   1819638   1820891   1822544   1824544   1826752  
  8450.000000   1828945   1830862   1832268   1833063   1833305  
  8440.000000   1833240   1833189   1833462   1834218   1835423  
  8430.000000   1836866   1838268   1839409   1840225   1840853  
  8420.000000   1841547   1842586   1844112   1846092   1848298  
  8410.000000   1850420   1852176   1853421   1854185   1854630  
  8400.000000   1854946   1855279   1855650   1855997   1856201  
  8390.000000   1856191   1855983   1855670   1855375   1855173  
  8380.000000   1855039   1854861   1854479   1853772   1852721  
  8370.000000   1851452   1850213   1849295   1848942   1849282  
  8360.000000   1850292   1851824   1853636   1855474   1857127  
  8350.000000   1858463   1859450   1860127   1860592   1860941  
  8340.000000   1861248   1861515   1861691   1861677   1861387  
  8330.000000   1860778   1859904   1858908   1857984   1857328  
  8320.000000   1857041   1857130   1857463   1857876   1858207  
  8310.000000   1858404   1858517   1858684   1859041   1859650  
  8300.000000   1860441   1861210   1861696   1861655   1860974  
  8290.000000   1859686   1857970   1856073   1854241   1852659  
  8280.000000   1851429   1850585   1850119   1850007   1850208  
  8270.000000   1850659   1851238   1851795   1852163   1852244  
  8260.000000   1852040   1851679   1851368   1851319   1851672  
  8250.000000   1852410   1853360   1854227   1854692   1854520  
  8240.000000   1853623   1852091   1850136   1848050   1846100  
  8230.000000   1844512   1843395   1842767   1842530   1842520  
  8220.000000   1842514   1842282   1841627   1840436   1838710  
  8210.000000   1836571   1834227   1831896   1829746   1827846  
  8200.000000   1826170   1824651   1823227   1821916   1820807  
  8190.000000   1820034   1819684   1819724   1819960   1820077  
  8180.000000   1819747   1818725   1816971   1814638   1812052  
  8170.000000   1809569   1807480   1805919   1804844   1804105  
  8160.000000   1803516   1802958   1802392   1801869   1801446  
  8150.000000   1801153   1800939   1800683   1800243   1799491  
  8140.000000   1798374   1796902   1795146   1793191   1791119  
  8130.000000   1789005   1786917   1784948   1783197   1781769  
  8120.000000   1780713   1780002   1779498   1778987   1778225  
  8110.000000   1777030   1775340   1773238   1770936   1768691  
  8100.000000   1766742   1765215   1764112   1763306   1762608  
  8090.000000   1761830   1760862   1759701   1758447   1757259  
  8080.000000   1756299   1755662   1755353   1755269   1755243  
  8070.000000   1755087   1754668   1753928   1752929   1751800  
  8060.000000   1750712   1749796   1749112   1748622   1748215  
  8050.000000   1747760   1747166   1746430   1745637   1744939  
  8040.000000   1744480   1744350   1744532   1744910   1745298  
  8030.000000   1745506   1745395   1744909   1744090   1743039  
  8020.000000   1741883   1740736   1739668   1738714   1737866  
  8010.000000   1737104   1736395   1735711   1735027   1734322  
  8000.000000   1733581   1732788   1731928   1730979   1729920  
  7990.000000   1728735   1727429   1726043   1724673   1723457  
  7980.000000   1722554   1722098   1722140   1722618   1723351  
  7970.000000   1724082   1724553   1724580   1724118   1723259  
  7960.000000   1722208   1721191   1720397   1719905   1719696  
  7950.000000   1719658   1719656   1719576   1719351   1718977  
  7940.000000   1718478   1717908   1717317   1716766   1716316  
  7930.000000   1716035   1715977   1716149   1716497   1716888  
  7920.000000   1717140   1717068   1716552   1715579   1714259  
  7910.000000   1712795   1711423   1710343   1709665   1709395  
  7900.000000   1709449   1709694   1709995   1710241   1710362  
  7890.000000   1710329   1710137   1709806   1709373   1708895  
  7880.000000   1708443   1708085   1707874   1707819   1707890  
  7870.000000   1708013   1708103   1708082   1707903   1707564  
  7860.000000   1707094   1706552   1705999   1705501   1705115  
  7850.000000   1704893   1704863   1705029   1705347   1705730  
  7840.000000   1706055   1706203   1706085   1705685   1705063  
  7830.000000   1704337   1703651   1703113   1702771   1702587  
  7820.000000   1702464   1702276   1701912   1701326   1700530  
  7810.000000   1699615   1698701   1697929   1697406   1697199  
  7800.000000   1697302   1697641   1698082   1698451   1698579  
  7790.000000   1698330   1697650   1696560   1695167   1693617  
  7780.000000   1692059   1690605   1689313   1688196   1687242  
  7770.000000   1686450   1685833   1685435   1685280   1685367  
  7760.000000   1685632   1685962   1686216   1686256   1685998  
  7750.000000   1685410   1684529   1683417   1682160   1680833  
  7740.000000   1679512   1678278   1677218   1676429   1675983  
  7730.000000   1675907   1676149   1676581   1677013   1677257  
  7720.000000   1677168   1676696   1675893   1674890   1673851  
  7710.000000   1672912   1672151   1671562   1671085   1670629  
  7700.000000   1670115   1669504   1668799   1668051   1667318  
  7690.000000   1666663   1666121   1665699   1665381   1665129  
  7680.000000   1664910   1664683   1664429   1664125   1663764  
  7670.000000   1663331   1662820   1662219   1661539   1660803  
  7660.000000   1660068   1659411   1658921   1658673   1658707  
  7650.000000   1659008   1659511   1660110   1660687   1661148  
  7640.000000   1661445   1661582   1661613   1661614   1661663  
  7630.000000   1661801   1662035   1662329   1662627   1662865  
  7620.000000   1663002   1663024   1662948   1662817   1662686  
  7610.000000   1662603   1662599   1662673   1662801   1662936  
  7600.000000   1663041   1663089   1663091   1663081   1663121  
  7590.000000   1663264   1663552   1663982   1664524   1665118  
  7580.000000   1665712   1666269   1666797   1667333   1667945  
  7570.000000   1668701   1669652   1670811   1672153   1673613  
  7560.000000   1675104   1676530   1677815   1678898   1679767  
  7550.000000   1680432   1680947   1681366   1681750   1682129  
  7540.000000   1682517   1682902   1683283   1683674   1684131  
  7530.000000   1684742   1685604   1686791   1688315   1690114  
  7520.000000   1692066   1694007   1695799   1697351   1698666  
  7510.000000   1699802   1700873   1701975   1703182   1704509  
  7500.000000   1705943   1707448   1709006   1710613   1712290  
  7490.000000   1714055   1715909   1717816   1719717   1721533  
  7480.000000   1723210   1724718   1726086   1727374   1728680  
  7470.000000   1730100   1731720   1733590   1735723   1738089  
  7460.000000   1740631   1743267   1745913   1748491   1750957  
  7450.000000   1753292   1755523   1757690   1759860   1762091  
  7440.000000   1764438   1766929   1769577   1772368   1775274  
  7430.000000   1778250   1781240   1784191   1787054   1789806  
  7420.000000   1792447   1795006   1797521   1800027   1802543  
  7410.000000   1805055   1807527   1809911   1812166   1814274  
  7400.000000   1816250   1818135   1819982   1821847   1823774  
  7390.000000   1825790   1827907   1830126   1832436   1834819  
  7380.000000   1837251   1839702   1842153   1844598   1847052  
  7370.000000   1849542   1852098   1854729   1857412   1860092  
  7360.000000   1862704   1865195   1867556   1869829   1872095  
  7350.000000   1874441   1876921   1879521   1882158   1884710  
  7340.000000   1887062   1889160   1891024   1892752   1894468  
  7330.000000   1896295   1898299   1900493   1902828   1905239  
  7320.000000   1907658   1910046   1912379   1914650   1916838  
  7310.000000   1918922   1920868   1922657   1924290   1925792  
  7300.000000   1927202   1928555   1929870   1931140   1932351  
  7290.000000   1933487   1934553   1935576   1936591   1937641  
  7280.000000   1938745   1939911   1941130   1942412   1943774  
  7270.000000   1945267   1946942   1948832   1950918   1953113  
  7260.000000   1955273   1957212   1958770   1959827   1960374  
  7250.000000   1960491   1960354   1960181   1960197   1960579  
  7240.000000   1961430   1962766   1964532   1966623   1968932  
  7230.000000   1971362   1973857   1976372   1978890   1981366  
  7220.000000   1983767   1986029   1988142   1990108   1992029  
  7210.000000   1994035   1996312   1998997   2002173   2005802  
  7200.000000   2009761   2013856   2017920   2021833   2025595  
  7190.000000   2029275   2033015   2036928   2041094   2045487  
  7180.000000   2050037   2054616   2059137   2063535   2067824  
  7170.000000   2072036   2076244   2080486   2084809   2089215  
  7160.000000   2093724   2098336   2103079   2107961   2113006  
  7150.000000   2118208   2123577   2129107   2134824   2140744  
  7140.000000   2146900   2153278   2159851   2166530   2173232  
  7130.000000   2179863   2186400   2192852   2199316   2205888  
  7120.000000   2212677   2219710   2226969   2234351   2241745  
  7110.000000   2249040   2256204   2263260   2270314   2277484  
  7100.000000   2284893   2292599   2300599   2308809   2317112  
  7090.000000   2325371   2333495   2341442   2349253   2357010  
  7080.000000   2364830   2372797   2380951   2389254   2397617  
  7070.000000   2405916   2414059   2422003   2429792   2437520  
  7060.000000   2445313   2453267   2461424   2469755   2478180  
  7050.000000   2486597   2494918   2503095   2511123   2519033  
  7040.000000   2526866   2534668   2542468   2550294   2558166  
  7030.000000   2566102   2574098   2582132   2590134   2598023  
  7020.000000   2605702   2613111   2620228   2627094   2633775  
  7010.000000   2640352   2646869   2653343   2659738   2666026  
  7000.000000   2672182   2678239   2684244   2690281   2696389  
  6990.000000   2702579   2708777   2714894   2720801   2726423  
  6980.000000   2731712   2736698   2741434   2746005   2750461  
  6970.000000   2754840   2759123   2763287   2767275   2771063  
  6960.000000   2774628   2777995   2781201   2784319   2787409  
  6950.000000   2790542   2793743   2797026   2800358   2803707  
  6940.000000   2807021   2810277   2813454   2816562   2819601  
  6930.000000   2822579   2825478   2828283   2830963   2833505  
  6920.000000   2835900   2838161   2840296   2842324   2844245  
  6910.000000   2846071   2847803   2849470   2851094   2852712  
  6900.000000   2854336   2855968   2857577   2859132   2860603  
  6890.000000   2861991   2863319   2864633   2865967   2867339  
  6880.000000   2868728   2870098   2871406   2872639   2873818  
  6870.000000   2875000   2876251   2877623   2879123   2880720  
  6860.000000   2882344   2883926   2885403   2886744   2887939  
  6850.000000   2888999   2889933   2890760   2891497   2892177  
  6840.000000   2892843   2893542   2894303   2895134   2896002  
  6830.000000   2896862   2897658   2898369   2899001   2899602  
  6820.000000   2900223   2900904   2901644   2902406   2903125  
  6810.000000   2903745   2904228   2904581   2904830   2905024  
  6800.000000   2905199   2905384   2905588   2905819   2906074  
  6790.000000   2906349   2906619   2906847   2906972   2906944  
  6780.000000   2906737   2906390   2905990   2905666   2905532  
  6770.000000   2905653   2905999   2906460   2906873   2907085  
  6760.000000   2906992   2906580   2905908   2905090   2904238  
  6750.000000   2903446   2902757   2902189   2901731   2901376  
  6740.000000   2901104   2900889   2900684   2900426   2900042  
  6730.000000   2899477   2898706   2897752   2896666   2895518  
  6720.000000   2894369   2893258   2892200   2891203   2890269  
  6710.000000   2889421   2888671   2888033   2887486   2886990  
  6700.000000   2886477   2885884   2885164   2884296   2883287  
  6690.000000   2882152   2880908   2879560   2878110   2876575  
  6680.000000   2874987   2873408   2871902   2870534   2869327  
  6670.000000   2868273   2867320   2866404   2865462   2864455  
  6660.000000   2863366   2862197   2860952   2859635   2858247  
  6650.000000   2856793   2855287   2853759   2852235   2850738  
  6640.000000   2849264   2847797   2846298   2844749   2843139  
  6630.000000   2841496   2839853   2838251   2836706   2835208  
  6620.000000   2833720   2832193   2830581   2828856   2827007  
  6610.000000   2825036   2822955   2820783   2818545   2816285  
  6600.000000   2814060   2811937   2809969   2808181   2806554  
  6590.000000   2805030   2803529   2801978   2800330   2798580  
  6580.000000   2796755   2794896   2793044   2791218   2789425  
  6570.000000   2787658   2785918   2784209   2782541   2780918  
  6560.000000   2779332   2777759   2776175   2774562   2772931  
  6550.000000   2771308   2769738   2768253   2766866   2765559  
  6540.000000   2764300   2763055   2761808   2760564   2759347  
  6530.000000   2758179   2757067   2755998   2754943   2753874  
  6520.000000   2752780   2751666   2750554   2749456   2748370  
  6510.000000   2747270   2746123   2744904   2743619   2742312  
  6500.000000   2741052   2739911   2738932   2738116   2737417  
  6490.000000   2736764   2736085   2735331   2734487   2733564  
  6480.000000   2732590   2731589   2730577   2729557   2728531  
  6470.000000   2727505   2726492   2725511   2724575   2723691  
  6460.000000   2722856   2722063   2721306   2720579   2719878  
  6450.000000   2719190   2718492   2717752   2716943   2716050  
  6440.000000   2715088   2714093   2713115   2712192   2711342  
  6430.000000   2710546   2709764   2708955   2708097   2707199  
  6420.000000   2706305   2705470   2704742   2704137   2703636  
  6410.000000   2703191   2702751   2702271   2701738   2701160  
  6400.000000   2700566   2699982   2699433   2698929   2698470  
  6390.000000   2698053   2697671   2697319   2696994   2696693  
  6380.000000   2696418   2696171   2695959   2695788   2695656  
  6370.000000   2695544   2695416   2695222   2694915   2694464  
  6360.000000   2693868   2693164   2692407   2691663   2690979  
  6350.000000   2690379   2689852   2689378   2688922   2688467  
  6340.000000   2688002   2687528   2687044   2686547   2686021  
  6330.000000   2685452   2684823   2684136   2683399   2682636  
  6320.000000   2681866   2681108   2680363   2679628   2678880  
  6310.000000   2678098   2677250   2676313   2675261   2674086  
  6300.000000   2672789   2671397   2669940   2668465   2666998  
  6290.000000   2665555   2664117   2662659   2661138   2659537  
  6280.000000   2657847   2656097   2654314   2652538   2650783  
  6270.000000   2649055   2647333   2645602   2643843   2642053  
  6260.000000   2640224   2638354   2636426   2634422   2632318  
  6250.000000   2630112   2627816   2625469   2623117   2620804  
  6240.000000   2618549   2616355   2614198   2612057   2609911  
  6230.000000   2607763   2605617   2603486   2601370   2599257  
  6220.000000   2597125   2594954   2592737   2590482   2588212  
  6210.000000   2585952   2583714   2581497   2579280   2577043  
  6200.000000   2574773   2572477   2570178   2567902   2565670  
  6190.000000   2563488   2561342   2559209   2557072   2554928  
  6180.000000   2552793   2550694   2548665   2546723   2544872  
  6170.000000   2543091   2541352   2539618   2537863   2536070  
  6160.000000   2534241   2532389   2530538   2528716   2526950  
  6150.000000   2525251   2523621   2522042   2520483   2518906  
  6140.000000   2517286   2515609   2513889   2512154   2510444  
  6130.000000   2508794   2507227   2505744   2504333   2502974  
  6120.000000   2501649   2500345   2499060   2497789   2496533  
  6110.000000   2495284   2494040   2492796   2491562   2490349  
  6100.000000   2489183   2488077   2487047   2486088   2485194  
  6090.000000   2484343   2483524   2482725   2481949   2481198  
  6080.000000   2480490   2479835   2479251   2478743   2478323  
  6070.000000   2477986   2477730   2477534   2477392   2477285  
  6060.000000   2477218   2477195   2477241   2477368   2477597  
  6050.000000   2477922   2478336   2478811   2479338   2479900  
  6040.000000   2480511   2481175   2481914   2482725   2483605  
  6030.000000   2484526   2485474   2486432   2487408   2488420  
  6020.000000   2489501   2490673   2491951   2493326   2494782  
  6010.000000   2496284   2497810   2499332   2500840   2502320  
  6000.000000   2503770   2505180   2506556   2507899   2509230  
  5990.000000   2510566   2511936   2513356   2514848   2516417  
  5980.000000   2518073   2519820   2521669   2523622   2525682  
  5970.000000   2527831   2530052   2532307   2534579   2536849  
  5960.000000   2539129   2541431   2543785   2546199   2548680  
  5950.000000   2551209   2553770   2556343   2558932   2561547  
  5940.000000   2564217   2566964   2569804   2572733   2575737  
  5930.000000   2578793   2581883   2584994   2588123   2591264  
  5920.000000   2594404   2597519   2600580   2603552   2606413  
  5910.000000   2609149   2611767   2614281   2616714   2619089  
  5900.000000   2621428   2623756   2626097   2628484   2630940  
  5890.000000   2633492   2636145   2638893   2641713   2644573  
  5880.000000   2647433   2650256   2653005   2655649   2658164  
  5870.000000   2660535   2662770   2664886   2666925   2668933  
  5860.000000   2670960   2673042   2675197   2677426   2679718  
  5850.000000   2682062   2684451   2686891   2689391   2691961  
  5840.000000   2694603   2697308   2700063   2702851   2705655  
  5830.000000   2708461   2711256   2714020   2716729   2719362  
  5820.000000   2721904   2724360   2726746   2729100   2731444  
  5810.000000   2733792   2736118   2738384   2740522   2742496  
  5800.000000   2744273   2745885   2747364   2748781   2750161  
  5790.000000   2751533   2752857   2754092   2755153   2755980  
  5780.000000   2756499   2756675   2756474   2755901   2754971  
  5770.000000   2753742   2752285   2750704   2749094   2747548  
  5760.000000   2746122   2744847   2743718   2742721   2741831  
  5750.000000   2741040   2740337   2739721   2739184   2738712  
  5740.000000   2738294   2737913   2737578   2737294   2737088  
  5730.000000   2736967   2736939   2736979   2737064   2737155  
  5720.000000   2737235   2737292   2737343   2737404   2737500  
  5710.000000   2737645   2737850   2738121   2738469   2738900  
  5700.000000   2739425   2740038   2740720   2741436   2742142  
  5690.000000   2742806   2743407   2743955   2744469   2744980  
  5680.000000   2745501   2746032   2746543   2747001   2747362  
  5670.000000   2747598   2747684   2747614   2747377   2746977  
  5660.000000   2746409   2745690   2744843   2743914   2742944  
  5650.000000   2741984   2741055   2740168   2739308   2738463  
  5640.000000   2737615   2736766   2735916   2735077   2734246  
  5630.000000   2733417   2732573   2731705   2730811   2729908  
  5620.000000   2729023   2728182   2727400   2726673   2725981  
  5610.000000   2725301   2724611   2723908   2723195   2722486  
  5600.000000   2721786   2721092   2720390   2719665   2718907  
  5590.000000   2718120   2717318   2716517   2715725   2714939  
  5580.000000   2714140   2713310   2712431   2711500   2710525  
  5570.000000   2709521   2708497   2707458   2706395   2705302  
  5560.000000   2704172   2703010   2701824   2700627   2699425  
  5550.000000   2698217   2696996   2695758   2694504   2693251  
  5540.000000   2692015   2690817   2689661   2688543   2687447  
  5530.000000   2686360   2685275   2684202   2683158   2682158  
  5520.000000   2681207   2680291   2679385   2678459   2677489  
  5510.000000   2676464   2675387   2674266   2673111   2671931  
  5500.000000   2670728   2669518   2668316   2667153   2666048  
  5490.000000   2665013   2664023   2663037   2661990   2660830  
  5480.000000   2659521   2658065   2656488   2654838   2653152  
  5470.000000   2651460   2649761   2648049   2646305   2644524  
  5460.000000   2642700   2640840   2638940   2636997   2634997  
  5450.000000   2632939   2630825   2628682   2626543   2624444  
  5440.000000   2622406   2620433   2618512   2616623   2614754  
  5430.000000   2612896   2611056   2609236   2607441   2605663  
  5420.000000   2603912   2602198   2600571   2599081   2597797  
  5410.000000   2596747   2595940   2595322   2594837   2594410  
  5400.000000   2594015   2593638   2593320   2593092   2593008  
  5390.000000   2593073   2593303   2593668   2594174   2594810  
  5380.000000   2595605   2596561   2597702   2598999   2600446  
  5370.000000   2601992   2603639   2605358   2607188   2609122  
  5360.000000   2611219   2613469   2615933   2618606   2621568  
  5350.000000   2624837   2628512   2632599   2637173   2642194  
  5340.000000   2647702   2653636   2660047   2666892   2674240  
  5330.000000   2682037   2690334   2699051   2708232   2717818  
  5320.000000   2727912   2738516   2749786   2761731   2774481  
  5310.000000   2787976   2802280   2817281   2833032   2849455  
  5300.000000   2866651   2884595   2903431   2923153   2943892  
  5290.000000   2965608   2988364   3012044   3036613   3061896  
  5280.000000   3087838   3114320   3141390   3169060   3197464  
  5270.000000   3226631   3256582   3287168   3318180   3349337  
  5260.000000   3380408   3411265   3441893   3472390   3502834  
  5250.000000   3533282   3563617   3593678   3623152   3651848  
  5240.000000   3679548   3706284   3732053   3757059   3781345  
  5230.000000   3805061   3828121   3850527   3872078   3892748  
  5220.000000   3912382   3931070   3948788   3965735   3981940  
  5210.000000   3997583   4012606   4027056   4040740   4053624  
  5200.000000   4065514   4076454   4086379   4095457   4103703  
  5190.000000   4111289   4118186   4124482   4130081   4135031  
  5180.000000   4139248   4142813   4145682   4147950   4149567  
  5170.000000   4150602   4150991   4150806   4150014   4148721  
  5160.000000   4146929   4144745   4142151   4139214   4135889  
  5150.000000   4132225   4128182   4123820   4119111   4114102  
  5140.000000   4108756   4103103   4097118   4090858   4084346  
  5130.000000   4077675   4070884   4064044   4057148   4050207  
  5120.000000   4043174   4036044   4028797   4021463   4014059  
  5110.000000   4006628   3999179   3991724   3984243   3976731  
  5100.000000   3969178   3961598   3954006   3946432   3938890  
  5090.000000   3931396   3923946   3916548   3909197   3901907  
  5080.000000   3894679   3887519   3880411   3873333   3866247  
  5070.000000   3859120   3851920   3844634   3837258   3829803  
  5060.000000   3822276   3814694   3807062   3799391   3791685  
  5050.000000   3783954   3776201   3768435   3760654   3752860  
  5040.000000   3745052   3737236   3729424   3721631   3713878  
  5030.000000   3706177   3698542   3690969   3683463   3676018  
  5020.000000   3668649   3661363   3654188   3647134   3640226  
  5010.000000   3633459   3626843   3620362   3614027   3607829  
  5000.000000   3601802   3595948   3590311   3584885   3579704  
  4990.000000   3574744   3570025   3565518   3561252   3557204  
  4980.000000   3553422   3549896   3546684   3543779   3541242  
  4970.000000   3539064   3537299   3535924   3534978   3534416  
  4960.000000   3534261   3534454   3535018   3535904   3537151  
  4950.000000   3538726   3540676   3542970   3545651   3548680  
  4940.000000   3552091   3555845   3559977   3564445   3569277  
  4930.000000   3574422   3579894   3585634   3591659   3597924  
  4920.000000   3604466   3611265   3618370   3625770   3633506  
  4910.000000   3641556   3649940   3658625   3667613   3676860  
  4900.000000   3686351   3696036   3705890   3715867   3725948  
  4890.000000   3736109   3746339   3756620   3766927   3777221  
  4880.000000   3787444   3797542   3807449   3817132   3826554  
  4870.000000   3835721   3844624   3853289   3861705   3869891  
  4860.000000   3877821   3885506   3892916   3900066   3906935  
  4850.000000   3913554   3919911   3926048   3931965   3937706  
  4840.000000   3943268   3948689   3953956   3959095   3964088  
  4830.000000   3968957   3973684   3978288   3982749   3987073  
  4820.000000   3991228   3995212   3998996   4002592   4006000  
  4810.000000   4009255   4012378   4015410   4018362   4021254  
  4800.000000   4024080   4026849   4029551   4032203   4034805  
  4790.000000   4037375   4039910   4042417   4044883   4047312  
  4780.000000   4049694   4052042   4054349   4056625   4058850  
  4770.000000   4061015   4063081   4065034   4066844   4068517  
  4760.000000   4070049   4071463   4072759   4073953   4075027  
  4750.000000   4075981   4076785   4077445   4077940   4078290  
  4740.000000   4078486   4078550   4078469   4078257   4077892  
  4730.000000   4077377   4076686   4075819   4074750   4073479  
  4720.000000   4071993   4070307   4068429   4066399   4064246  
  4710.000000   4062017   4059743   4057460   4055183   4052931  
  4700.000000   4050715   4048555   4046469   4044484   4042618  
  4690.000000   4040891   4039305   4037854   4036514   4035256  
  4680.000000   4034040   4032819   4031557   4030207   4028747  
  4670.000000   4027152   4025430   4023592   4021680   4019736  
  4660.000000   4017821   4015983   4014278   4012740   4011407  
  4650.000000   4010289   4009399   4008727   4008259   4007963  
  4640.000000   4007813   4007771   4007812   4007914   4008071  
  4630.000000   4008271   4008515   4008792   4009092   4009391  
  4620.000000   4009667   4009892   4010046   4010110   4010072  
  4610.000000   4009924   4009665   4009306   4008861   4008360  
  4600.000000   4007830   4007310   4006822   4006388   4006007  
  4590.000000   4005672   4005358   4005043   4004692   4004284  
  4580.000000   4003790   4003198   4002490   4001667   4000730  
  4570.000000   3999695   3998576   3997398   3996169   3994900  
  4560.000000   3993587   3992225   3990804   3989325   3987791  
  4550.000000   3986215   3984610   3982987   3981351   3979702  
  4540.000000   3978039   3976364   3974691   3973033   3971419  
  4530.000000   3969862   3968393   3967007   3965728   3964544  
  4520.000000   3963486   3962547   3961775   3961165   3960777  
  4510.000000   3960608   3960731   3961150   3961961   3963174  
  4500.000000   3964891   3967108   3969910   3973266   3977246  
  4490.000000   3981815   3987057   3992951   3999594   4006962  
  4480.000000   4015128   4024031   4033701   4044050   4055088  
  4470.000000   4066730   4078985   4091772   4105084   4118823  
  4460.000000   4132949   4147346   4161956   4176670   4191442  
  4450.000000   4206191   4220890   4235495   4249995   4264378  
  4440.000000   4278642   4292799   4306843   4320795   4334633  
  4430.000000   4348382   4362003   4375525   4388893   4402129  
  4420.000000   4415148   4427948   4440402   4452479   4464026  
  4410.000000   4475000   4485247   4494730   4503309   4510969  
  4400.000000   4517605   4523244   4527847   4531507   4534265  
  4390.000000   4536273   4537621   4538477   4538935   4539136  
  4380.000000   4539151   4539093   4539026   4539057   4539265  
  4370.000000   4539756   4540616   4541924   4543736   4546079  
  4360.000000   4548958   4552341   4556191   4560444   4565034  
  4350.000000   4569898   4574972   4580216   4585594   4591098  
  4340.000000   4596707   4602398   4608098   4613689   4618974  
  4330.000000   4623714   4627630   4630486   4632111   4632487  
  4320.000000   4631732   4630130   4628039   4625877   4623980  
  4310.000000   4622619   4621890   4621804   4622232   4623038  
  4300.000000   4624040   4625121   4626175   4627159   4628047  
  4290.000000   4628840   4629545   4630173   4630745   4631278  
  4280.000000   4631791   4632308   4632833   4633387   4633960  
  4270.000000   4634569   4635190   4635812   4636363   4636764  
  4260.000000   4636871   4636546   4635637   4634055   4631763  
  4250.000000   4628833   4625395   4621656   4617812   4614069  
  4240.000000   4610544   4607325   4604396   4601728   4599231  
  4230.000000   4596832   4594439   4591987   4589413   4586670  
  4220.000000   4583737   4580601   4577294   4573850   4570355  
  4210.000000   4566880   4563523   4560350   4557432   4554798  
  4200.000000   4552481   4550473   4548779   4547362   4546216  
  4190.000000   4545287   4544572   4544017   4543638   4543398  
  4180.000000   4543343   4543453   4543795   4544363   4545242  
  4170.000000   4546443   4548072   4550157   4552806   4556026  
  4160.000000   4559888   4564344   4569417   4575018   4581160  
  4150.000000   4587763   4594865   4602413   4610465   4618977  
  4140.000000   4628007   4637511   4647551   4658089   4669189  
  4130.000000   4680812   4693006   4705709   4718941   4732626  
  4120.000000   4746779   4761342   4776352   4791782   4807684  
  4110.000000   4824039   4840883   4858175   4875914   4894029  
  4100.000000   4912484   4931192   4950106   4969153   4988310  
  4090.000000   5007548   5026877   5046308   5065860   5085553  
  4080.000000   5105383   5125355   5145427   5165581   5185743  
  4070.000000   5205876   5225884   5245734   5265331   5284669  
  4060.000000   5303667   5322341   5340596   5358436   5375740  
  4050.000000   5392508   5408629   5424152   5439007   5453288  
  4040.000000   5466921   5479977   5492330   5504011   5514868  
  4030.000000   5524941   5534094   5542380   5549676   5556014  
  4020.000000   5561234   5565387   5568426   5570452   5571403  
  4010.000000   5571463   5570727   5569230   5566693   5563232  
  4000.000000   5559310  
##END= 
