##TITLE= Sample 029 By ssteindl date Dienstag, November 20 2018
##JCAMP-DX= 4.24
##DATA TYPE= INFRARED SPECTRUM
##ORIGIN= Exported PE Spectrum Data File
##OWNER= Sandra Steindl
##DATE= 18/11/20
##TIME= 11:47:40.00
##SPECTROMETER/DATA SYSTEM= PERKIN-ELMER Frontier FT-IR/NIR IR
##INSTRUMENT PARAMETERS=
  APODIZATION=stark
  DETECTOR=INGAAS
##RESOLUTION= 16.000000
##DELTAX= -2.000000
##XUNITS= 1/CM
##YUNITS= A
##XFACTOR= 1.00
##YFACTOR= 0.00000011920928955078
##FIRSTX= 10000.00
##LASTX= 4000.00
##NPOINTS= 3001
##FIRSTY= 0.223597
##MAXY= 0.657591
##MINY= 0.198135
##XYDATA= (X++(Y..Y))
 10000.000000   1875667   1879666   1884000   1889121   1894912  
  9990.000000   1900920   1906616   1911504   1914924   1916255  
  9980.000000   1915130   1911597   1906029   1899096   1891668  
  9970.000000   1884689   1878956   1875025   1872968   1872473  
  9960.000000   1872754   1872987   1872425   1870851   1868546  
  9950.000000   1866290   1864993   1865298   1867302   1870318  
  9940.000000   1873159   1874337   1872705   1867731   1859810  
  9930.000000   1850124   1840283   1831923   1826209   1823729  
  9920.000000   1824408   1827737   1832934   1839111   1845377  
  9910.000000   1850820   1854588   1855909   1854334   1849813  
  9900.000000   1842938   1834791   1826856   1820578   1817049  
  9890.000000   1816742   1819391   1824201   1830018   1835764  
  9880.000000   1840599   1844118   1846277   1847250   1847285  
  9870.000000   1846527   1845061   1842884   1840089   1836874  
  9860.000000   1833601   1830737   1828703   1827828   1828180  
  9850.000000   1829647   1831889   1834484   1836946   1838817  
  9840.000000   1839697   1839302   1837521   1834470   1830526  
  9830.000000   1826272   1822425   1819645   1818397   1818770  
  9820.000000   1820442   1822724   1824745   1825696   1825061  
  9810.000000   1822763   1819211   1815148   1811486   1809001  
  9800.000000   1808172   1809032   1811215   1814086   1816942  
  9790.000000   1819258   1820783   1821648   1822220   1823000  
  9780.000000   1824386   1826524   1829250   1832064   1834326  
  9770.000000   1835370   1834732   1832248   1828075   1822689  
  9760.000000   1816743   1811022   1806285   1803181   1802115  
  9750.000000   1803124   1805837   1809457   1812952   1815243  
  9740.000000   1815558   1813638   1809888   1805268   1801022  
  9730.000000   1798336   1797985   1800201   1804644   1810645  
  9720.000000   1817377   1824140   1830339   1835533   1839278  
  9710.000000   1841133   1840725   1837861   1832775   1826047  
  9700.000000   1818614   1811367   1804987   1799675   1795217  
  9690.000000   1791208   1787300   1783551   1780366   1778500  
  9680.000000   1778607   1781071   1785719   1791936   1798853  
  9670.000000   1805602   1811555   1816294   1819615   1821317  
  9660.000000   1821229   1819210   1815317   1809940   1803799  
  9650.000000   1797867   1793017   1789820   1788270   1787889  
  9640.000000   1787885   1787496   1786216   1783865   1780521  
  9630.000000   1776317   1771377   1765756   1759644   1753450  
  9620.000000   1747934   1744050   1742688   1744338   1748832  
  9610.000000   1755383   1762778   1769810   1775605   1779825  
  9600.000000   1782632   1784423   1785590   1786242   1786239  
  9590.000000   1785289   1783210   1780095   1776337   1772522  
  9580.000000   1769185   1766673   1765004   1763970   1763175  
  9570.000000   1762221   1760756   1758538   1755474   1751616  
  9560.000000   1747263   1742900   1739229   1736934   1736527  
  9550.000000   1738080   1741184   1745043   1748774   1751753  
  9540.000000   1753828   1755381   1757078   1759584   1763210  
  9530.000000   1767751   1772571   1776801   1779748   1781040  
  9520.000000   1780745   1779158   1776606   1773287   1769247  
  9510.000000   1764563   1759482   1754568   1750573   1748277  
  9500.000000   1748111   1750048   1753446   1757361   1760754  
  9490.000000   1762940   1763728   1763435   1762672   1761996  
  9480.000000   1761709   1761705   1761599   1760858   1759059  
  9470.000000   1756018   1751878   1747083   1742236   1737998  
  9460.000000   1734863   1733128   1732757   1733449   1734676  
  9450.000000   1735808   1736292   1735751   1734129   1731621  
  9440.000000   1728636   1725572   1722754   1720316   1718295  
  9430.000000   1716691   1715562   1715067   1715377   1716630  
  9420.000000   1718802   1721697   1724982   1728250   1731164  
  9410.000000   1733433   1734876   1735311   1734600   1732655  
  9400.000000   1729549   1725635   1721555   1718219   1716507  
  9390.000000   1717042   1719849   1724342   1729428   1733861  
  9380.000000   1736615   1737141   1735475   1732097   1727714  
  9370.000000   1722992   1718426   1714345   1710999   1708673  
  9360.000000   1707654   1708186   1710254   1713538   1717326  
  9350.000000   1720733   1722904   1723302   1721873   1718976  
  9340.000000   1715284   1711430   1707900   1704830   1702155  
  9330.000000   1699694   1697384   1695323   1693758   1692959  
  9320.000000   1693063   1694036   1695635   1697553   1699497  
  9310.000000   1701334   1703095   1704928   1707000   1709379  
  9300.000000   1712003   1714643   1716989   1718691   1719485  
  9290.000000   1719215   1717878   1715598   1712599   1709202  
  9280.000000   1705763   1702686   1700305   1698881   1698484  
  9270.000000   1699035   1700262   1701799   1703226   1704184  
  9260.000000   1704447   1703953   1702817   1701242   1699482  
  9250.000000   1697734   1696130   1694710   1693478   1692439  
  9240.000000   1691646   1691199   1691197   1691675   1692529  
  9230.000000   1693505   1694233   1694364   1693676   1692168  
  9220.000000   1690072   1687802   1685849   1684608   1684274  
  9210.000000   1684771   1685827   1687036   1687968   1688267  
  9200.000000   1687717   1686327   1684307   1682038   1679990  
  9190.000000   1678625   1678306   1679128   1680879   1683030  
  9180.000000   1684922   1685923   1685644   1684053   1681516  
  9170.000000   1678682   1676270   1674847   1674674   1675687  
  9160.000000   1677593   1679997   1682516   1684886   1686933  
  9150.000000   1688573   1689701   1690242   1690165   1689554  
  9140.000000   1688624   1687662   1686973   1686702   1686784  
  9130.000000   1686906   1686625   1685535   1683419   1680358  
  9120.000000   1676702   1673011   1669881   1667787   1666957  
  9110.000000   1667357   1668746   1670730   1672853   1674683  
  9100.000000   1675920   1676406   1676155   1675333   1674244  
  9090.000000   1673235   1672603   1672532   1673078   1674176  
  9080.000000   1675660   1677329   1678967   1680388   1681393  
  9070.000000   1681788   1681397   1680121   1678009   1675253  
  9060.000000   1672185   1669181   1666596   1664643   1663356  
  9050.000000   1662625   1662261   1662112   1662077   1662152  
  9040.000000   1662372   1662782   1663397   1664190   1665130  
  9030.000000   1666174   1667293   1668403   1669382   1670037  
  9020.000000   1670209   1669801   1668893   1667733   1666692  
  9010.000000   1666121   1666186   1666809   1667685   1668439  
  9000.000000   1668795   1668724   1668472   1668436   1668960  
  8990.000000   1670144   1671760   1673330   1674339   1674463  
  8980.000000   1673738   1672547   1671467   1671024   1671479  
  8970.000000   1672747   1674442   1676084   1677265   1677815  
  8960.000000   1677782   1677385   1676869   1676426   1676154  
  8950.000000   1676075   1676172   1676399   1676658   1676768  
  8940.000000   1676468   1675507   1673765   1671374   1668747  
  8930.000000   1666482   1665162   1665119   1666252   1668035  
  8920.000000   1669689   1670488   1670052   1668499   1666414  
  8910.000000   1664591   1663743   1664204   1665847   1668122  
  8900.000000   1670299   1671731   1672070   1671336   1669857  
  8890.000000   1668147   1666739   1666070   1666374   1667651  
  8880.000000   1669687   1672079   1674337   1675943   1676501  
  8870.000000   1675833   1674068   1671628   1669132   1667215  
  8860.000000   1666362   1666769   1668332   1670700   1673399  
  8850.000000   1675991   1678162   1679792   1680912   1681678  
  8840.000000   1682297   1682971   1683857   1685002   1686348  
  8830.000000   1687686   1688737   1689196   1688870   1687753  
  8820.000000   1686066   1684215   1682666   1681798   1681780  
  8810.000000   1682526   1683770   1685173   1686471   1687555  
  8800.000000   1688460   1689324   1690273   1691384   1692663  
  8790.000000   1694095   1695700   1697528   1699648   1702034  
  8780.000000   1704530   1706816   1708502   1709260   1708975  
  8770.000000   1707814   1706197   1704665   1703711   1703621  
  8760.000000   1704407   1705845   1707591   1709320   1710816  
  8750.000000   1712004   1712909   1713598   1714136   1714579  
  8740.000000   1714987   1715446   1716073   1716974   1718216  
  8730.000000   1719772   1721531   1723328   1724993   1726403  
  8720.000000   1727498   1728269   1728739   1728927   1728879  
  8710.000000   1728661   1728415   1728317   1728559   1729261  
  8700.000000   1730425   1731922   1733546   1735107   1736525  
  8690.000000   1737881   1739375   1741237   1743592   1746388  
  8680.000000   1749394   1752278   1754752   1756658   1758039  
  8670.000000   1759063   1759933   1760771   1761563   1762181  
  8660.000000   1762473   1762378   1762004   1761615   1761550  
  8650.000000   1762087   1763337   1765193   1767364   1769483  
  8640.000000   1771242   1772499   1773318   1773951   1774740  
  8630.000000   1776017   1777989   1780691   1783972   1787535  
  8620.000000   1791005   1794021   1796337   1797850   1798623  
  8610.000000   1798827   1798695   1798429   1798178   1798003  
  8600.000000   1797925   1797963   1798157   1798597   1799359  
  8590.000000   1800514   1802053   1803926   1806035   1808292  
  8580.000000   1810639   1813032   1815417   1817661   1819575  
  8570.000000   1820923   1821541   1821408   1820736   1819918  
  8560.000000   1819437   1819694   1820864   1822832   1825228  
  8550.000000   1827587   1829526   1830882   1831750   1832418  
  8540.000000   1833218   1834389   1835986   1837896   1839907  
  8530.000000   1841843   1843623   1845297   1846974   1848752  
  8520.000000   1850637   1852538   1854283   1855691   1856621  
  8510.000000   1856999   1856817   1856108   1854935   1853404  
  8500.000000   1851687   1850034   1848741   1848088   1848247  
  8490.000000   1849212   1850771   1852561   1854187   1855349  
  8480.000000   1855952   1856113   1856136   1856367   1857109  
  8470.000000   1858495   1860497   1862930   1865551   1868123  
  8460.000000   1870480   1872560   1874386   1876062   1877712  
  8450.000000   1879464   1881383   1883463   1885591   1887584  
  8440.000000   1889226   1890348   1890881   1890895   1890570  
  8430.000000   1890142   1889796   1889616   1889534   1889401  
  8420.000000   1889045   1888391   1887489   1886545   1885820  
  8410.000000   1885566   1885899   1886774   1887994   1889281  
  8400.000000   1890364   1891039   1891222   1890937   1890305  
  8390.000000   1889490   1888681   1888055   1887768   1887922  
  8380.000000   1888534   1889529   1890739   1891952   1892949  
  8370.000000   1893586   1893831   1893768   1893569   1893413  
  8360.000000   1893448   1893710   1894145   1894609   1894946  
  8350.000000   1895035   1894829   1894388   1893847   1893417  
  8340.000000   1893309   1893704   1894677   1896191   1898068  
  8330.000000   1900040   1901790   1903043   1903641   1903581  
  8320.000000   1903006   1902146   1901237   1900439   1899798  
  8310.000000   1899250   1898674   1897976   1897134   1896226  
  8300.000000   1895388   1894769   1894458   1894455   1894669  
  8290.000000   1894959   1895189   1895271   1895189   1894995  
  8280.000000   1894782   1894667   1894741   1895077   1895685  
  8270.000000   1896539   1897544   1898562   1899419   1899940  
  8260.000000   1899994   1899515   1898521   1897091   1895334  
  8250.000000   1893348   1891191   1888900   1886509   1884109  
  8240.000000   1881849   1879937   1878563   1877861   1877814  
  8230.000000   1878266   1878925   1879461   1879593   1879169  
  8220.000000   1878202   1876838   1875304   1873811   1872512  
  8210.000000   1871451   1870587   1869815   1869024   1868127  
  8200.000000   1867082   1865884   1864557   1863136   1861656  
  8190.000000   1860153   1858664   1857229   1855893   1854706  
  8180.000000   1853707   1852929   1852371   1852019   1851824  
  8170.000000   1851731   1851677   1851604   1851467   1851215  
  8160.000000   1850808   1850187   1849301   1848100   1846569  
  8150.000000   1844751   1842757   1840769   1838993   1837629  
  8140.000000   1836792   1836495   1836631   1837013   1837413  
  8130.000000   1837627   1837518   1837024   1836156   1834971  
  8120.000000   1833548   1831982   1830387   1828892   1827639  
  8110.000000   1826745   1826262   1826147   1826237   1826299  
  8100.000000   1826069   1825348   1824056   1822262   1820172  
  8090.000000   1818046   1816134   1814589   1813450   1812641  
  8080.000000   1812026   1811462   1810843   1810137   1809367  
  8070.000000   1808606   1807931   1807409   1807070   1806902  
  8060.000000   1806851   1806822   1806704   1806381   1805774  
  8050.000000   1804861   1803697   1802398   1801112   1799966  
  8040.000000   1799022   1798252   1797542   1796738   1795705  
  8030.000000   1794391   1792849   1791238   1789771   1788642  
  8020.000000   1787967   1787737   1787829   1788030   1788114  
  8010.000000   1787895   1787289   1786326   1785146   1783954  
  8000.000000   1782967   1782359   1782219   1782525   1783164  
  7990.000000   1783946   1784660   1785112   1785174   1784798  
  7980.000000   1784029   1782978   1781801   1780651   1779662  
  7970.000000   1778900   1778381   1778053   1777831   1777622  
  7960.000000   1777349   1776990   1776572   1776186   1775938  
  7950.000000   1775934   1776223   1776785   1777527   1778297  
  7940.000000   1778938   1779313   1779348   1779033   1778416  
  7930.000000   1777576   1776599   1775569   1774564   1773663  
  7920.000000   1772948   1772496   1772352   1772510   1772887  
  7910.000000   1773341   1773691   1773781   1773522   1772929  
  7900.000000   1772116   1771256   1770528   1770049   1769849  
  7890.000000   1769860   1769955   1769988   1769854   1769512  
  7880.000000   1768992   1768379   1767778   1767287   1766969  
  7870.000000   1766849   1766910   1767106   1767379   1767666  
  7860.000000   1767911   1768072   1768124   1768057   1767878  
  7850.000000   1767598   1767239   1766816   1766360   1765903  
  7840.000000   1765488   1765168   1764989   1765002   1765227  
  7830.000000   1765677   1766334   1767167   1768121   1769124  
  7820.000000   1770080   1770868   1771353   1771413   1770966  
  7810.000000   1770007   1768625   1766991   1765328   1763852  
  7800.000000   1762708   1761949   1761507   1761251   1761015  
  7790.000000   1760680   1760186   1759559   1758872   1758215  
  7780.000000   1757656   1757208   1756844   1756500   1756108  
  7770.000000   1755617   1755010   1754302   1753541   1752795  
  7760.000000   1752135   1751622   1751287   1751115   1751041  
  7750.000000   1750956   1750736   1750276   1749528   1748518  
  7740.000000   1747352   1746172   1745125   1744306   1743741  
  7730.000000   1743385   1743145   1742920   1742637   1742265  
  7720.000000   1741819   1741340   1740877   1740472   1740153  
  7710.000000   1739933   1739812   1739774   1739786   1739795  
  7700.000000   1739741   1739569   1739249   1738791   1738245  
  7690.000000   1737680   1737160   1736715   1736340   1735993  
  7680.000000   1735636   1735250   1734851   1734479   1734168  
  7670.000000   1733926   1733717   1733484   1733180   1732805  
  7660.000000   1732427   1732162   1732128   1732384   1732896  
  7650.000000   1733522   1734075   1734366   1734295   1733862  
  7640.000000   1733175   1732392   1731666   1731097   1730720  
  7630.000000   1730521   1730475   1730577   1730846   1731299  
  7620.000000   1731918   1732622   1733276   1733720   1733835  
  7610.000000   1733573   1733005   1732275   1731576   1731071  
  7600.000000   1730862   1730973   1731364   1731966   1732704  
  7590.000000   1733519   1734361   1735194   1735973   1736664  
  7580.000000   1737243   1737709   1738094   1738431   1738760  
  7570.000000   1739077   1739356   1739535   1739570   1739446  
  7560.000000   1739210   1738957   1738807   1738876   1739242  
  7550.000000   1739935   1740938   1742201   1743663   1745253  
  7540.000000   1746905   1748541   1750087   1751470   1752654  
  7530.000000   1753638   1754485   1755289   1756164   1757193  
  7520.000000   1758416   1759806   1761291   1762781   1764199  
  7510.000000   1765515   1766748   1767959   1769227   1770622  
  7500.000000   1772182   1773897   1775715   1777542   1779284  
  7490.000000   1780847   1782185   1783295   1784241   1785131  
  7480.000000   1786099   1787267   1788714   1790459   1792470  
  7470.000000   1794670   1796976   1799309   1801625   1803892  
  7460.000000   1806100   1808231   1810271   1812207   1814053  
  7450.000000   1815847   1817661   1819575   1821666   1823973  
  7440.000000   1826491   1829173   1831945   1834734   1837480  
  7430.000000   1840147   1842716   1845178   1847533   1849780  
  7420.000000   1851927   1853989   1855990   1857953   1859896  
  7410.000000   1861819   1863717   1865586   1867439   1869313  
  7400.000000   1871259   1873329   1875543   1877882   1880282  
  7390.000000   1882668   1884973   1887183   1889333   1891504  
  7380.000000   1893780   1896214   1898796   1901452   1904070  
  7370.000000   1906533   1908758   1910709   1912410   1913916  
  7360.000000   1915303   1916647   1918023   1919500   1921143  
  7350.000000   1923013   1925146   1927551   1930190   1932994  
  7340.000000   1935877   1938770   1941623   1944417   1947144  
  7330.000000   1949794   1952337   1954721   1956890   1958805  
  7320.000000   1960462   1961906   1963206   1964459   1965745  
  7310.000000   1967130   1968634   1970252   1971934   1973622  
  7300.000000   1975233   1976687   1977908   1978850   1979511  
  7290.000000   1979945   1980247   1980546   1980958   1981575  
  7280.000000   1982430   1983510   1984765   1986130   1987544  
  7270.000000   1988955   1990326   1991615   1992791   1993810  
  7260.000000   1994660   1995348   1995934   1996503   1997172  
  7250.000000   1998039   1999180   2000623   2002359   2004345  
  7240.000000   2006533   2008868   2011309   2013800   2016293  
  7230.000000   2018718   2021032   2023189   2025203   2027101  
  7220.000000   2028966   2030874   2032914   2035140   2037602  
  7210.000000   2040310   2043274   2046471   2049879   2053439  
  7200.000000   2057100   2060790   2064473   2068122   2071775  
  7190.000000   2075474   2079303   2083303   2087507   2091871  
  7180.000000   2096342   2100829   2105280   2109670   2114038  
  7170.000000   2118451   2123012   2127803   2132895   2138291  
  7160.000000   2143965   2149826   2155779   2161704   2167522  
  7150.000000   2173165   2178638   2183975   2189271   2194615  
  7140.000000   2200103   2205769   2211623   2217619   2223722  
  7130.000000   2229891   2236139   2242487   2248989   2255665  
  7120.000000   2262533   2269555   2276700   2283906   2291151  
  7110.000000   2298407   2305681   2312960   2320254   2327554  
  7100.000000   2334891   2342307   2349886   2357703   2365824  
  7090.000000   2374249   2382919   2391708   2400481   2409110  
  7080.000000   2417538   2425756   2433819   2441788   2449723  
  7070.000000   2457641   2465544   2473421   2481279   2489149  
  7060.000000   2497078   2505116   2513283   2521574   2529947  
  7050.000000   2538349   2546720   2555013   2563182   2571182  
  7040.000000   2578964   2586495   2593763   2600815   2607743  
  7030.000000   2614684   2621755   2629038   2636521   2644133  
  7020.000000   2651738   2659224   2666506   2673575   2680452  
  7010.000000   2687181   2693769   2700200   2706427   2712431  
  7000.000000   2718228   2723906   2729565   2735315   2741188  
  6990.000000   2747168   2753152   2759049   2764773   2770317  
  6980.000000   2775700   2780979   2786163   2791227   2796089  
  6970.000000   2800675   2804936   2808907   2812669   2816345  
  6960.000000   2820020   2823737   2827449   2831096   2834601  
  6950.000000   2837960   2841200   2844412   2847655   2850969  
  6940.000000   2854310   2857608   2860762   2863709   2866417  
  6930.000000   2868905   2871195   2873315   2875265   2877051  
  6920.000000   2878683   2880220   2881746   2883367   2885151  
  6910.000000   2887121   2889221   2891358   2893418   2895331  
  6900.000000   2897078   2898707   2900288   2901891   2903541  
  6890.000000   2905220   2906871   2908434   2909865   2911161  
  6880.000000   2912351   2913487   2914621   2915795   2917030  
  6870.000000   2918324   2919656   2920990   2922282   2923494  
  6860.000000   2924599   2925604   2926547   2927501   2928541  
  6850.000000   2929732   2931088   2932580   2934131   2935656  
  6840.000000   2937084   2938388   2939580   2940699   2941775  
  6830.000000   2942818   2943801   2944687   2945438   2946059  
  6820.000000   2946582   2947074   2947589   2948161   2948772  
  6810.000000   2949375   2949900   2950304   2950568   2950720  
  6800.000000   2950802   2950866   2950937   2951015   2951074  
  6790.000000   2951081   2951003   2950831   2950568   2950238  
  6780.000000   2949870   2949504   2949175   2948922   2948769  
  6770.000000   2948730   2948789   2948915   2949054   2949154  
  6760.000000   2949169   2949073   2948860   2948539   2948120  
  6750.000000   2947613   2947018   2946336   2945571   2944743  
  6740.000000   2943878   2943017   2942191   2941433   2940755  
  6730.000000   2940165   2939652   2939201   2938775   2938330  
  6720.000000   2937805   2937151   2936336   2935368   2934292  
  6710.000000   2933190   2932139   2931200   2930381   2929646  
  6700.000000   2928919   2928127   2927215   2926173   2925023  
  6690.000000   2923809   2922564   2921301   2920006   2918656  
  6680.000000   2917232   2915743   2914216   2912699   2911225  
  6670.000000   2909817   2908467   2907159   2905870   2904599  
  6660.000000   2903351   2902147   2900989   2899862   2898721  
  6650.000000   2897509   2896169   2894672   2893022   2891258  
  6640.000000   2889437   2887623   2885860   2884171   2882546  
  6630.000000   2880962   2879380   2877764   2876082   2874320  
  6620.000000   2872478   2870578   2868651   2866742   2864885  
  6610.000000   2863110   2861425   2859826   2858293   2856799  
  6600.000000   2855314   2853803   2852224   2850532   2848688  
  6590.000000   2846667   2844479   2842167   2839808   2837492  
  6580.000000   2835296   2833264   2831398   2829660   2827998  
  6570.000000   2826364   2824729   2823092   2821459   2819838  
  6560.000000   2818223   2816593   2814935   2813241   2811531  
  6550.000000   2809841   2808208   2806652   2805170   2803736  
  6540.000000   2802325   2800927   2799563   2798273   2797095  
  6530.000000   2796031   2795040   2794040   2792940   2791679  
  6520.000000   2790260   2788746   2787249   2785876   2784692  
  6510.000000   2783691   2782811   2781958   2781055   2780070  
  6500.000000   2779024   2777978   2776994   2776115   2775339  
  6490.000000   2774633   2773951   2773249   2772506   2771714  
  6480.000000   2770875   2769986   2769037   2768016   2766926  
  6470.000000   2765787   2764638   2763524   2762479   2761513  
  6460.000000   2760608   2759731   2758851   2757953   2757045  
  6450.000000   2756146   2755280   2754451   2753646   2752833  
  6440.000000   2751984   2751077   2750115   2749117   2748117  
  6430.000000   2747143   2746219   2745359   2744569   2743849  
  6420.000000   2743192   2742586   2742006   2741416   2740784  
  6410.000000   2740085   2739319   2738509   2737699   2736934  
  6400.000000   2736253   2735666   2735161   2734710   2734279  
  6390.000000   2733841   2733382   2732896   2732381   2731837  
  6380.000000   2731267   2730676   2730081   2729506   2728974  
  6370.000000   2728494   2728060   2727642   2727202   2726713  
  6360.000000   2726168   2725589   2725017   2724498   2724052  
  6350.000000   2723675   2723329   2722969   2722550   2722057  
  6340.000000   2721494   2720887   2720255   2719611   2718942  
  6330.000000   2718230   2717451   2716602   2715688   2714734  
  6320.000000   2713758   2712775   2711776   2710749   2709671  
  6310.000000   2708536   2707343   2706106   2704836   2703542  
  6300.000000   2702219   2700864   2699468   2698041   2696593  
  6290.000000   2695148   2693715   2692299   2690881   2689442  
  6280.000000   2687952   2686395   2684754   2683030   2681220  
  6270.000000   2679327   2677345   2675284   2673150   2670970  
  6260.000000   2668770   2666586   2664434   2662324   2660242  
  6250.000000   2658169   2656080   2653959   2651794   2649583  
  6240.000000   2647322   2645014   2642655   2640247   2637798  
  6230.000000   2635327   2632853   2630399   2627978   2625597  
  6220.000000   2623249   2620928   2618624   2616331   2614045  
  6210.000000   2611766   2609490   2607216   2604943   2602680  
  6200.000000   2600442   2598244   2596102   2594015   2591970  
  6190.000000   2589940   2587897   2585823   2583721   2581610  
  6180.000000   2579520   2577477   2575491   2573554   2571646  
  6170.000000   2569745   2567841   2565939   2564056   2562215  
  6160.000000   2560425   2558683   2556971   2555264   2553545  
  6150.000000   2551804   2550047   2548282   2546515   2544744  
  6140.000000   2542957   2541142   2539297   2537429   2535564  
  6130.000000   2533725   2531937   2530207   2528531   2526890  
  6120.000000   2525272   2523663   2522069   2520497   2518969  
  6110.000000   2517498   2516100   2514780   2513545   2512396  
  6100.000000   2511334   2510355   2509457   2508628   2507864  
  6090.000000   2507149   2506479   2505838   2505219   2504598  
  6080.000000   2503965   2503298   2502601   2501880   2501172  
  6070.000000   2500514   2499953   2499512   2499204   2499008  
  6060.000000   2498897   2498831   2498791   2498758   2498749  
  6050.000000   2498774   2498868   2499046   2499340   2499759  
  6040.000000   2500329   2501051   2501937   2502970   2504133  
  6030.000000   2505387   2506702   2508044   2509403   2510771  
  6020.000000   2512163   2513579   2515026   2516488   2517956  
  6010.000000   2519408   2520842   2522259   2523678   2525114  
  6000.000000   2526587   2528095   2529639   2531199   2532765  
  5990.000000   2534320   2535862   2537387   2538912   2540449  
  5980.000000   2542035   2543702   2545499   2547458   2549607  
  5970.000000   2551939   2554429   2557024   2559671   2562316  
  5960.000000   2564936   2567520   2570086   2572650   2575238  
  5950.000000   2577856   2580515   2583211   2585956   2588754  
  5940.000000   2591618   2594546   2597529   2600543   2603560  
  5930.000000   2606557   2609522   2612463   2615395   2618332  
  5920.000000   2621277   2624212   2627106   2629921   2632627  
  5910.000000   2635209   2637667   2640015   2642267   2644439  
  5900.000000   2646541   2648592   2650614   2652644   2654724  
  5890.000000   2656896   2659182   2661590   2664099   2666679  
  5880.000000   2669289   2671890   2674449   2676934   2679323  
  5870.000000   2681590   2683727   2685734   2687641   2689492  
  5860.000000   2691353   2693283   2695331   2697516   2699839  
  5850.000000   2702278   2704810   2707413   2710077   2712799  
  5840.000000   2715578   2718412   2721296   2724223   2727192  
  5830.000000   2730203   2733257   2736350   2739465   2742573  
  5820.000000   2745633   2748609   2751470   2754208   2756816  
  5810.000000   2759306   2761668   2763902   2765977   2767883  
  5800.000000   2769597   2771138   2772509   2773752   2774870  
  5790.000000   2775887   2776778   2777540   2778133   2778550  
  5780.000000   2778753   2778734   2778458   2777915   2777086  
  5770.000000   2775991   2774666   2773188   2771635   2770097  
  5760.000000   2768626   2767254   2765974   2764773   2763632  
  5750.000000   2762557   2761564   2760682   2759934   2759322  
  5740.000000   2758830   2758425   2758079   2757764   2757482  
  5730.000000   2757233   2757037   2756894   2756813   2756781  
  5720.000000   2756800   2756864   2756985   2757163   2757403  
  5710.000000   2757689   2758007   2758334   2758667   2759012  
  5700.000000   2759392   2759836   2760359   2760964   2761625  
  5690.000000   2762311   2762984   2763623   2764218   2764776  
  5680.000000   2765297   2765781   2766203   2766534   2766738  
  5670.000000   2766790   2766676   2766402   2765982   2765440  
  5660.000000   2764793   2764067   2763281   2762466   2761643  
  5650.000000   2760843   2760078   2759354   2758662   2757993  
  5640.000000   2757330   2756669   2756008   2755347   2754687  
  5630.000000   2754024   2753351   2752665   2751971   2751282  
  5620.000000   2750616   2749987   2749399   2748843   2748300  
  5610.000000   2747752   2747187   2746612   2746040   2745488  
  5600.000000   2744961   2744450   2743927   2743364   2742732  
  5590.000000   2742023   2741244   2740416   2739555   2738675  
  5580.000000   2737772   2736837   2735856   2734825   2733742  
  5570.000000   2732617   2731458   2730272   2729059   2727825  
  5560.000000   2726573   2725317   2724069   2722843   2721640  
  5550.000000   2720454   2719271   2718084   2716892   2715708  
  5540.000000   2714551   2713440   2712378   2711352   2710335  
  5530.000000   2709299   2708223   2707110   2705978   2704856  
  5520.000000   2703771   2702735   2701744   2700780   2699815  
  5510.000000   2698829   2697802   2696723   2695585   2694386  
  5500.000000   2693126   2691820   2690487   2689166   2687884  
  5490.000000   2686664   2685497   2684355   2683188   2681951  
  5480.000000   2680609   2679159   2677615   2676010   2674370  
  5470.000000   2672714   2671038   2669335   2667592   2665807  
  5460.000000   2663986   2662143   2660283   2658408   2656508  
  5450.000000   2654576   2652607   2650609   2648597   2646588  
  5440.000000   2644591   2642604   2640624   2638645   2636682  
  5430.000000   2634754   2632896   2631125   2629456   2627872  
  5420.000000   2626362   2624909   2623528   2622235   2621078  
  5410.000000   2620076   2619244   2618546   2617953   2617413  
  5400.000000   2616919   2616469   2616114   2615888   2615848  
  5390.000000   2616000   2616357   2616891   2617607   2618492  
  5380.000000   2619572   2620839   2622309   2623938   2625711  
  5370.000000   2627566   2629512   2631530   2633687   2636004  
  5360.000000   2638564   2641375   2644495   2647903   2651654  
  5350.000000   2655732   2660211   2665081   2670411   2676160  
  5340.000000   2682371   2688980   2696040   2703509   2711467  
  5330.000000   2719880   2728824   2738241   2748188   2758597  
  5320.000000   2769553   2781028   2793155   2805929   2819492  
  5310.000000   2833808   2848973   2864905   2881673   2899197  
  5300.000000   2917569   2936750   2956876   2977940   3000076  
  5290.000000   3023247   3047509   3072726   3098843   3125656  
  5280.000000   3153096   3181035   3209530   3238604   3268404  
  5270.000000   3298971   3330327   3362325   3394747   3427310  
  5260.000000   3459765   3491968   3523875   3555559   3587066  
  5250.000000   3618449   3649591   3680366   3710492   3739821  
  5240.000000   3768152   3795530   3821938   3847570   3872454  
  5230.000000   3896746   3920363   3943328   3965442   3986677  
  5220.000000   4006862   4026066   4044246   4061594   4078138  
  5210.000000   4094068   4109331   4123980   4137822   4150820  
  5200.000000   4162784   4173777   4183759   4192928   4201324  
  5190.000000   4209132   4216313   4222931   4228852   4234092  
  5180.000000   4238536   4242254   4245199   4247479   4249060  
  5170.000000   4250036   4250369   4250155   4249386   4248178  
  5160.000000   4246531   4244533   4242137   4239380   4236189  
  5150.000000   4232603   4228594   4224240   4219548   4214588  
  5140.000000   4209342   4203842   4198058   4192030   4185771  
  5130.000000   4179361   4172837   4166265   4159643   4152981  
  5120.000000   4146241   4139423   4132516   4125553   4118559  
  5110.000000   4111576   4104612   4097677   4090757   4083853  
  5100.000000   4076968   4070132   4063364   4056687   4050093  
  5090.000000   4043565   4037058   4030543   4023989   4017398  
  5080.000000   4010771   4004127   3997463   3990775   3984033  
  5070.000000   3977219   3970300   3963276   3956136   3948896  
  5060.000000   3941553   3934119   3926580   3918942   3911189  
  5050.000000   3903334   3895373   3887327   3879205   3871032  
  5040.000000   3862821   3854600   3846383   3838193   3830031  
  5030.000000   3821900   3813784   3805670   3797545   3789407  
  5020.000000   3781269   3773150   3765083   3757088   3749191  
  5010.000000   3741393   3733713   3726145   3718716   3711429  
  5000.000000   3704324   3697406   3690709   3684228   3677992  
  4990.000000   3671988   3666254   3660784   3655622   3650759  
  4980.000000   3646232   3642016   3638136   3634561   3631323  
  4970.000000   3628396   3625819   3623561   3621650   3620034  
  4960.000000   3618728   3617677   3616912   3616407   3616226  
  4950.000000   3616367   3616898   3617802   3619119   3620800  
  4940.000000   3622868   3625272   3628049   3631168   3634681  
  4930.000000   3638560   3642842   3647477   3652476   3657777  
  4920.000000   3663388   3669259   3675415   3681830   3688544  
  4910.000000   3695538   3702850   3710453   3718360   3726527  
  4900.000000   3734941   3743544   3752313   3761199   3770188  
  4890.000000   3779257   3788401   3797604   3806853   3816119  
  4880.000000   3825366   3834559   3843657   3852632   3861449  
  4870.000000   3870092   3878530   3886751   3894729   3902465  
  4860.000000   3909945   3917190   3924196   3930991   3937568  
  4850.000000   3943950   3950130   3956140   3961988   3967723  
  4840.000000   3973362   3978949   3984479   3989965   3995372  
  4830.000000   4000695   4005894   4010969   4015895   4020680  
  4820.000000   4025303   4029767   4034047   4038148   4042057  
  4810.000000   4045791   4049354   4052771   4056043   4059188  
  4800.000000   4062201   4065100   4067891   4070609   4073272  
  4790.000000   4075922   4078567   4081228   4083891   4086557  
  4780.000000   4089200   4091819   4094392   4096916   4099363  
  4770.000000   4101723   4103960   4106060   4107996   4109771  
  4760.000000   4111373   4112818   4114098   4115231   4116201  
  4750.000000   4117022   4117675   4118175   4118505   4118678  
  4740.000000   4118673   4118498   4118134   4117595   4116874  
  4730.000000   4116001   4114979   4113836   4112569   4111190  
  4720.000000   4109687   4108069   4106333   4104507   4102608  
  4710.000000   4100676   4098728   4096793   4094873   4092977  
  4700.000000   4091099   4089243   4087401   4085578   4083762  
  4690.000000   4081947   4080116   4078255   4076349   4074389  
  4680.000000   4072370   4070286   4068137   4065918   4063636  
  4670.000000   4061297   4058928   4056557   4054234   4051996  
  4660.000000   4049888   4047933   4046150   4044539   4043108  
  4650.000000   4041850   4040776   4039884   4039186   4038670  
  4640.000000   4038336   4038158   4038124   4038203   4038380  
  4630.000000   4038623   4038913   4039215   4039505   4039754  
  4620.000000   4039951   4040085   4040170   4040214   4040235  
  4610.000000   4040239   4040228   4040196   4040138   4040054  
  4600.000000   4039947   4039832   4039722   4039630   4039563  
  4590.000000   4039524   4039507   4039510   4039523   4039539  
  4580.000000   4039543   4039523   4039456   4039331   4039137  
  4570.000000   4038878   4038561   4038204   4037811   4037384  
  4560.000000   4036903   4036350   4035701   4034948   4034098  
  4550.000000   4033176   4032214   4031244   4030285   4029345  
  4540.000000   4028419   4027498   4026583   4025677   4024809  
  4530.000000   4023995   4023275   4022659   4022179   4021826  
  4520.000000   4021632   4021577   4021697   4021971   4022452  
  4510.000000   4023124   4024068   4025293   4026912   4028960  
  4500.000000   4031559   4034732   4038579   4043088   4048327  
  4490.000000   4054267   4060969   4068403   4076619   4085560  
  4480.000000   4095225   4105502   4116332   4127568   4139143  
  4470.000000   4150929   4162893   4174953   4187100   4199279  
  4460.000000   4211486   4223672   4235830   4247925   4259952  
  4450.000000   4271892   4283739   4295489   4307142   4318711  
  4440.000000   4330209   4341676   4353130   4364617   4376134  
  4430.000000   4387708   4399301   4410914   4422480   4433991  
  4420.000000   4445361   4456573   4467520   4478167   4488383  
  4410.000000   4498117   4507234   4515690   4523374   4530278  
  4400.000000   4536336   4541587   4546012   4549685   4552625  
  4390.000000   4554930   4556648   4557897   4558747   4559328  
  4380.000000   4559721   4560050   4560393   4560857   4561510  
  4370.000000   4562439   4563705   4565367   4567466   4570021  
  4360.000000   4573030   4576457   4580252   4584335   4588627  
  4350.000000   4593047   4597527   4602028   4606528   4611040  
  4340.000000   4615577   4620159   4624765   4629343   4633763  
  4330.000000   4637859   4641410   4644217   4646106   4647017  
  4320.000000   4646982   4646178   4644844   4643293   4641791  
  4310.000000   4640576   4639760   4639399   4639434   4639795  
  4300.000000   4640365   4641063   4641798   4642520   4643179  
  4290.000000   4643745   4644193   4644516   4644727   4644858  
  4280.000000   4644952   4645065   4645232   4645486   4645815  
  4270.000000   4646209   4646607   4646962   4647186   4647206  
  4260.000000   4646924   4646269   4645167   4643590   4641538  
  4250.000000   4639071   4636270   4633266   4630171   4627111  
  4240.000000   4624157   4621373   4618758   4616312   4613991  
  4230.000000   4611762   4609574   4607383   4605141   4602802  
  4220.000000   4600334   4597714   4594954   4592083   4589175  
  4210.000000   4586302   4583561   4581019   4578737   4576725  
  4200.000000   4574982   4573461   4572129   4570921   4569813  
  4190.000000   4568759   4567769   4566823   4565965   4565192  
  4180.000000   4564575   4564124   4563926   4564005   4564457  
  4170.000000   4565307   4566649   4568489   4570897   4573839  
  4160.000000   4577350   4581362   4585889   4590856   4596294  
  4150.000000   4602143   4608459   4615200   4622433   4630120  
  4140.000000   4638333   4647043   4656331   4666176   4676653  
  4130.000000   4687724   4699423   4711672   4724463   4737697  
  4120.000000   4751364   4765389   4779793   4794541   4809677  
  4110.000000   4825175   4841064   4857298   4873869   4890708  
  4100.000000   4907787   4925045   4942468   4960032   4977750  
  4090.000000   4995626   5013673   5031883   5050230   5068679  
  4080.000000   5087177   5105695   5124196   5142689   5161153  
  4070.000000   5179609   5198013   5216359   5234565   5252613  
  4060.000000   5270409   5287951   5305145   5321994   5338389  
  4050.000000   5354331   5369707   5384542   5398741   5412359  
  4040.000000   5425296   5437595   5449121   5459899   5469787  
  4030.000000   5478836   5486931   5494144   5500372   5505662  
  4020.000000   5509870   5513043   5515125   5516214   5516271  
  4010.000000   5515490   5513981   5511832   5508855   5505170  
  4000.000000   5501123  
##END= 
