##TITLE= Sample 038 By ssteindl date Dienstag, November 20 2018
##JCAMP-DX= 4.24
##DATA TYPE= INFRARED SPECTRUM
##ORIGIN= Exported PE Spectrum Data File
##OWNER= Sandra Steindl
##DATE= 18/11/20
##TIME= 11:58:49.00
##SPECTROMETER/DATA SYSTEM= PERKIN-ELMER Frontier FT-IR/NIR IR
##INSTRUMENT PARAMETERS=
  APODIZATION=stark
  DETECTOR=INGAAS
##RESOLUTION= 16.000000
##DELTAX= -2.000000
##XUNITS= 1/CM
##YUNITS= A
##XFACTOR= 1.00
##YFACTOR= 0.00000011920928955078
##FIRSTX= 10000.00
##LASTX= 4000.00
##NPOINTS= 3001
##FIRSTY= 0.188749
##MAXY= 0.616031
##MINY= 0.164357
##XYDATA= (X++(Y..Y))
 10000.000000   1583341   1582299   1582210   1584524   1589657  
  9990.000000   1596807   1604543   1611127   1614779   1614253  
  9980.000000   1609494   1601665   1592670   1584576   1579009  
  9970.000000   1576766   1577645   1580704   1584655   1588298  
  9960.000000   1590801   1591826   1591340   1589560   1586679  
  9950.000000   1582985   1578825   1574750   1571494   1569798  
  9940.000000   1570182   1572616   1576395   1580202   1582454  
  9930.000000   1581781   1577536   1569989   1560339   1550244  
  9920.000000   1541383   1534883   1531130   1529776   1530060  
  9910.000000   1531218   1532739   1534544   1536770   1539651  
  9900.000000   1543229   1547326   1551623   1555727   1559405  
  9890.000000   1562421   1564617   1565646   1565092   1562540  
  9880.000000   1557852   1551452   1544318   1537916   1533671  
  9870.000000   1532574   1534727   1539323   1544906   1549847  
  9860.000000   1552858   1553260   1551037   1546638   1540730  
  9850.000000   1534017   1527202   1521070   1516536   1514574  
  9840.000000   1515913   1520717   1528266   1537026   1544968  
  9830.000000   1550194   1551577   1549055   1543666   1536974  
  9820.000000   1530581   1525445   1521821   1519316   1517396  
  9810.000000   1515770   1514595   1514449   1515891   1519239  
  9800.000000   1524186   1530034   1535811   1540773   1544562  
  9790.000000   1547256   1549179   1550552   1551377   1551331  
  9780.000000   1550045   1547240   1542958   1537481   1531250  
  9770.000000   1524666   1518032   1511607   1505701   1500824  
  9760.000000   1497572   1496536   1497929   1501503   1506437  
  9750.000000   1511668   1516195   1519503   1521681   1523312  
  9740.000000   1525091   1527387   1530021   1532246   1533160  
  9730.000000   1532036   1528764   1523788   1517967   1512117  
  9720.000000   1506706   1501743   1496901   1491919   1486829  
  9710.000000   1482193   1478848   1477667   1479066   1482871  
  9700.000000   1488285   1494195   1499540   1503546   1505917  
  9690.000000   1506627   1505863   1503759   1500456   1496135  
  9680.000000   1491169   1486181   1481945   1479215   1478428  
  9670.000000   1479581   1482153   1485313   1488124   1489829  
  9660.000000   1489979   1488456   1485437   1481250   1476366  
  9650.000000   1471294   1466630   1462930   1460699   1460182  
  9640.000000   1461345   1463770   1466798   1469678   1471795  
  9630.000000   1472847   1472878   1472253   1471503   1471207  
  9620.000000   1471870   1473849   1477301   1482135   1487964  
  9610.000000   1494126   1499732   1503867   1505780   1505125  
  9600.000000   1502076   1497306   1491819   1486620   1482456  
  9590.000000   1479576   1477749   1476426   1474985   1473036  
  9580.000000   1470499   1467684   1465109   1463356   1462892  
  9570.000000   1463928   1466406   1469949   1473986   1477793  
  9560.000000   1480688   1482171   1482122   1480903   1479305  
  9550.000000   1478379   1479045   1481801   1486440   1492121  
  9540.000000   1497567   1501495   1503007   1501848   1498441  
  9530.000000   1493658   1488473   1483602   1479315   1475465  
  9520.000000   1471706   1467781   1463720   1459896   1456857  
  9510.000000   1455136   1454988   1456339   1458767   1461667  
  9500.000000   1464420   1466524   1467731   1467997   1467519  
  9490.000000   1466593   1465613   1464931   1464828   1465399  
  9480.000000   1466532   1467919   1469136   1469805   1469709  
  9470.000000   1468925   1467760   1466680   1466066   1466090  
  9460.000000   1466612   1467258   1467575   1467214   1466068  
  9450.000000   1464277   1462140   1459968   1457947   1456101  
  9440.000000   1454334   1452562   1450806   1449236   1448091  
  9430.000000   1447569   1447698   1448317   1449122   1449785  
  9420.000000   1450089   1449984   1449597   1449111   1448669  
  9410.000000   1448283   1447847   1447227   1446368   1445367  
  9400.000000   1444464   1443950   1444040   1444754   1445877  
  9390.000000   1447009   1447695   1447581   1446513   1444576  
  9380.000000   1442041   1439285   1436697   1434619   1433289  
  9370.000000   1432811   1433131   1434030   1435155   1436056  
  9360.000000   1436307   1435606   1433917   1431481   1428788  
  9350.000000   1426384   1424718   1423982   1424102   1424802  
  9340.000000   1425738   1426671   1427529   1428446   1429611  
  9330.000000   1431163   1433018   1434889   1436371   1437092  
  9320.000000   1436882   1435783   1434050   1431973   1429776  
  9310.000000   1427536   1425192   1422673   1419970   1417260  
  9300.000000   1414853   1413155   1412473   1412904   1414236  
  9290.000000   1416014   1417697   1418803   1419083   1418491  
  9280.000000   1417199   1415455   1413524   1411630   1409943  
  9270.000000   1408619   1407818   1407729   1408510   1410212  
  9260.000000   1412676   1415531   1418232   1420201   1420963  
  9250.000000   1420260   1418146   1414954   1411237   1407589  
  9240.000000   1404512   1402297   1400999   1400473   1400433  
  9230.000000   1400591   1400721   1400741   1400662   1400555  
  9220.000000   1400485   1400462   1400472   1400432   1400295  
  9210.000000   1400002   1399577   1399050   1398470   1397891  
  9200.000000   1397367   1397020   1397008   1397549   1398822  
  9190.000000   1400934   1403813   1407158   1410468   1413133  
  9180.000000   1414653   1414720   1413351   1410817   1407596  
  9170.000000   1404213   1401116   1398608   1396811   1395788  
  9160.000000   1395536   1396100   1397450   1399523   1402100  
  9150.000000   1404866   1407414   1409322   1410257   1410015  
  9140.000000   1408600   1406122   1402821   1398976   1394949  
  9130.000000   1391144   1387963   1385777   1384814   1385127  
  9120.000000   1386519   1388587   1390817   1392739   1394059  
  9110.000000   1394671   1394643   1394124   1393307   1392329  
  9100.000000   1391307   1390359   1389706   1389628   1390390  
  9090.000000   1392102   1394621   1397535   1400214   1402047  
  9080.000000   1402607   1401855   1400121   1398031   1396274  
  9070.000000   1395382   1395555   1396621   1398125   1399489  
  9060.000000   1400194   1399896   1398477   1396040   1392853  
  9050.000000   1389296   1385779   1382703   1380397   1379056  
  9040.000000   1378722   1379248   1380353   1381666   1382828  
  9030.000000   1383565   1383748   1383384   1382602   1381594  
  9020.000000   1380619   1379927   1379769   1380304   1381606  
  9010.000000   1383563   1385905   1388222   1390094   1391212  
  9000.000000   1391483   1391080   1390379   1389850   1389892  
  8990.000000   1390705   1392252   1394301   1396538   1398671  
  8980.000000   1400468   1401805   1402596   1402817   1402455  
  8970.000000   1401598   1400421   1399229   1398351   1398046  
  8960.000000   1398367   1399106   1399822   1399975   1399131  
  8950.000000   1397121   1394122   1390574   1387040   1384002  
  8940.000000   1381758   1380351   1379658   1379493   1379722  
  8930.000000   1380306   1381255   1382589   1384269   1386198  
  8920.000000   1388243   1390286   1392278   1394203   1396063  
  8910.000000   1397774   1399194   1400108   1400360   1399911  
  8900.000000   1398913   1397663   1396515   1395761   1395531  
  8890.000000   1395783   1396329   1396973   1397586   1398174  
  8880.000000   1398829   1399665   1400734   1401984   1403286  
  8870.000000   1404483   1405474   1406236   1406833   1407352  
  8860.000000   1407880   1408456   1409091   1409788   1410570  
  8850.000000   1411483   1412564   1413798   1415095   1416304  
  8840.000000   1417276   1417923   1418275   1418454   1418647  
  8830.000000   1418993   1419550   1420248   1420948   1421518  
  8820.000000   1421903   1422179   1422513   1423128   1424200  
  8810.000000   1425830   1427990   1430566   1433376   1436210  
  8800.000000   1438831   1440989   1442446   1443012   1442618  
  8790.000000   1441360   1439529   1437546   1435874   1434866  
  8780.000000   1434667   1435179   1436110   1437099   1437827  
  8770.000000   1438147   1438088   1437858   1437725   1437951  
  8760.000000   1438698   1440006   1441797   1443881   1446019  
  8750.000000   1447929   1449372   1450160   1450233   1449652  
  8740.000000   1448628   1447444   1446412   1445754   1445602  
  8730.000000   1445942   1446697   1447746   1449001   1450419  
  8720.000000   1452004   1453776   1455742   1457892   1460215  
  8710.000000   1462714   1465415   1468346   1471502   1474804  
  8700.000000   1478086   1481130   1483736   1485793   1487315  
  8690.000000   1488428   1489313   1490116   1490886   1491559  
  8680.000000   1492007   1492123   1491887   1491417   1490925  
  8670.000000   1490668   1490853   1491592   1492888   1494664  
  8660.000000   1496806   1499183   1501665   1504113   1506397  
  8650.000000   1508405   1510090   1511506   1512824   1514281  
  8640.000000   1516109   1518420   1521159   1524085   1526864  
  8630.000000   1529170   1530822   1531816   1532315   1532568  
  8620.000000   1532813   1533212   1533825   1534667   1535751  
  8610.000000   1537149   1538954   1541246   1543994   1547036  
  8600.000000   1550077   1552776   1554848   1556166   1556799  
  8590.000000   1556962   1556965   1557075   1557489   1558264  
  8580.000000   1559362   1560668   1562043   1563365   1564535  
  8570.000000   1565522   1566356   1567175   1568182   1569628  
  8560.000000   1571702   1574468   1577780   1581305   1584577  
  8550.000000   1587162   1588788   1589445   1589375   1588979  
  8540.000000   1588663   1588690   1589094   1589690   1590176  
  8530.000000   1590263   1589789   1588796   1587492   1586201  
  8520.000000   1585237   1584855   1585186   1586247   1587934  
  8510.000000   1590061   1592395   1594673   1596669   1598210  
  8500.000000   1599256   1599873   1600243   1600570   1601034  
  8490.000000   1601705   1602540   1603420   1604233   1604963  
  8480.000000   1605715   1606694   1608103   1610042   1612420  
  8470.000000   1614945   1617198   1618773   1619430   1619184  
  8460.000000   1618315   1617279   1616576   1616590   1617469  
  8450.000000   1619117   1621240   1623463   1625438   1626943  
  8440.000000   1627928   1628494   1628825   1629131   1629580  
  8430.000000   1630261   1631182   1632278   1633461   1634643  
  8420.000000   1635763   1636798   1637746   1638627   1639439  
  8410.000000   1640176   1640802   1641288   1641614   1641794  
  8400.000000   1641891   1641988   1642174   1642503   1642971  
  8390.000000   1643511   1644002   1644316   1644362   1644135  
  8380.000000   1643735   1643347   1643192   1643459   1644243  
  8370.000000   1645503   1647062   1648658   1650027   1650983  
  8360.000000   1651473   1651592   1651542   1651561   1651826  
  8350.000000   1652402   1653224   1654135   1654948   1655523  
  8340.000000   1655800   1655826   1655701   1655538   1655406  
  8330.000000   1655312   1655207   1655024   1654722   1654302  
  8320.000000   1653820   1653354   1652980   1652740   1652634  
  8310.000000   1652637   1652719   1652869   1653101   1653450  
  8300.000000   1653940   1654579   1655333   1656144   1656933  
  8290.000000   1657636   1658213   1658662   1659002   1659255  
  8280.000000   1659422   1659469   1659329   1658923   1658178  
  8270.000000   1657074   1655657   1654059   1652473   1651114  
  8260.000000   1650143   1649632   1649518   1649636   1649751  
  8250.000000   1649658   1649239   1648518   1647644   1646825  
  8240.000000   1646241   1645963   1645930   1645969   1645866  
  8230.000000   1645452   1644667   1643584   1642360   1641188  
  8220.000000   1640199   1639448   1638893   1638447   1638019  
  8210.000000   1637539   1636974   1636302   1635498   1634519  
  8200.000000   1633325   1631903   1630300   1628631   1627046  
  8190.000000   1625693   1624657   1623949   1623506   1623236  
  8180.000000   1623059   1622932   1622845   1622785   1622701  
  8170.000000   1622471   1621938   1620951   1619459   1617544  
  8160.000000   1615434   1613431   1611821   1610781   1610317  
  8150.000000   1610287   1610443   1610545   1610419   1610014  
  8140.000000   1609368   1608567   1607671   1606699   1605619  
  8130.000000   1604389   1602992   1601465   1599887   1598356  
  8120.000000   1596948   1595689   1594543   1593439   1592289  
  8110.000000   1591025   1589602   1588007   1586244   1584336  
  8100.000000   1582334   1580316   1578402   1576729   1575427  
  8090.000000   1574560   1574099   1573905   1573763   1573451  
  8080.000000   1572818   1571842   1570647   1569456   1568523  
  8070.000000   1568028   1568025   1568408   1568959   1569410  
  8060.000000   1569533   1569201   1568420   1567305   1566036  
  8050.000000   1564792   1563698   1562806   1562094   1561499  
  8040.000000   1560949   1560394   1559819   1559239   1558676  
  8030.000000   1558150   1557653   1557157   1556626   1556026  
  8020.000000   1555353   1554626   1553890   1553194   1552568  
  8010.000000   1552016   1551502   1550971   1550371   1549672  
  8000.000000   1548888   1548068   1547282   1546590   1546016  
  7990.000000   1545533   1545072   1544539   1543859   1543000  
  7980.000000   1541993   1540935   1539955   1539186   1538719  
  7970.000000   1538584   1538732   1539063   1539437   1539722  
  7960.000000   1539812   1539652   1539240   1538613   1537839  
  7950.000000   1536975   1536072   1535133   1534142   1533044  
  7940.000000   1531798   1530376   1528802   1527161   1525590  
  7930.000000   1524270   1523370   1523022   1523271   1524064  
  7920.000000   1525251   1526621   1527952   1529052   1529813  
  7910.000000   1530201   1530263   1530080   1529743   1529318  
  7900.000000   1528852   1528368   1527894   1527466   1527132  
  7890.000000   1526936   1526881   1526928   1526978   1526914  
  7880.000000   1526628   1526074   1525290   1524399   1523573  
  7870.000000   1522979   1522722   1522814   1523164   1523623  
  7860.000000   1524025   1524256   1524274   1524127   1523919  
  7850.000000   1523766   1523751   1523888   1524115   1524311  
  7840.000000   1524334   1524060   1523423   1522433   1521175  
  7830.000000   1519803   1518487   1517398   1516648   1516282  
  7820.000000   1516249   1516438   1516685   1516838   1516782  
  7810.000000   1516472   1515931   1515231   1514451   1513647  
  7800.000000   1512829   1511968   1511024   1509972   1508835  
  7790.000000   1507682   1506599   1505661   1504889   1504243  
  7780.000000   1503632   1502957   1502154   1501219   1500217  
  7770.000000   1499247   1498403   1497732   1497220   1496803  
  7760.000000   1496410   1495993   1495560   1495157   1494847  
  7750.000000   1494661   1494569   1494478   1494269   1493843  
  7740.000000   1493172   1492322   1491431   1490661   1490134  
  7730.000000   1489888   1489855   1489892   1489836   1489555  
  7720.000000   1488998   1488195   1487238   1486239   1485286  
  7710.000000   1484427   1483670   1482997   1482395   1481854  
  7700.000000   1481384   1480979   1480621   1480262   1479838  
  7690.000000   1479291   1478605   1477819   1477037   1476401  
  7680.000000   1476054   1476090   1476522   1477275   1478197  
  7670.000000   1479099   1479807   1480197   1480227   1479930  
  7660.000000   1479404   1478769   1478140   1477591   1477156  
  7650.000000   1476825   1476570   1476361   1476177   1476021  
  7640.000000   1475903   1475840   1475842   1475911   1476043  
  7630.000000   1476222   1476435   1476658   1476866   1477029  
  7620.000000   1477121   1477130   1477076   1477007   1477006  
  7610.000000   1477149   1477494   1478033   1478691   1479339  
  7600.000000   1479838   1480086   1480067   1479862   1479632  
  7590.000000   1479573   1479852   1480549   1481633   1482967  
  7580.000000   1484359   1485608   1486578   1487199   1487499  
  7570.000000   1487559   1487504   1487462   1487547   1487849  
  7560.000000   1488429   1489314   1490495   1491927   1493528  
  7550.000000   1495187   1496790   1498236   1499469   1500472  
  7540.000000   1501280   1501940   1502523   1503077   1503651  
  7530.000000   1504273   1504975   1505783   1506730   1507839  
  7520.000000   1509119   1510551   1512096   1513689   1515271  
  7510.000000   1516790   1518237   1519621   1520991   1522398  
  7500.000000   1523899   1525525   1527294   1529190   1531201  
  7490.000000   1533296   1535468   1537700   1539988   1542310  
  7480.000000   1544640   1546932   1549150   1551269   1553305  
  7470.000000   1555309   1557369   1559574   1561993   1564636  
  7460.000000   1567461   1570368   1573241   1575975   1578520  
  7450.000000   1580879   1583110   1585289   1587489   1589755  
  7440.000000   1592100   1594511   1596969   1599456   1601967  
  7430.000000   1604498   1607042   1609583   1612100   1614579  
  7420.000000   1617026   1619471   1621957   1624526   1627195  
  7410.000000   1629946   1632729   1635482   1638154   1640724  
  7400.000000   1643212   1645664   1648126   1650630   1653177  
  7390.000000   1655746   1658309   1660847   1663364   1665879  
  7380.000000   1668412   1670969   1673531   1676060   1678515  
  7370.000000   1680869   1683122   1685299   1687444   1689598  
  7360.000000   1691790   1694042   1696367   1698787   1701328  
  7350.000000   1704026   1706892   1709912   1713019   1716114  
  7340.000000   1719086   1721844   1724335   1726561   1728563  
  7330.000000   1730409   1732160   1733869   1735560   1737257  
  7320.000000   1738963   1740696   1742463   1744278   1746127  
  7310.000000   1747986   1749806   1751531   1753106   1754496  
  7300.000000   1755689   1756709   1757604   1758447   1759319  
  7290.000000   1760298   1761437   1762754   1764222   1765776  
  7280.000000   1767326   1768783   1770076   1771172   1772078  
  7270.000000   1772840   1773523   1774187   1774894   1775678  
  7260.000000   1776573   1777589   1778734   1779989   1781323  
  7250.000000   1782678   1783996   1785224   1786358   1787439  
  7240.000000   1788568   1789859   1791425   1793304   1795477  
  7230.000000   1797832   1800243   1802568   1804744   1806754  
  7220.000000   1808681   1810623   1812710   1815018   1817608  
  7210.000000   1820471   1823595   1826927   1830439   1834094  
  7200.000000   1837889   1841811   1845875   1850080   1854446  
  7190.000000   1858966   1863643   1868433   1873295   1878139  
  7180.000000   1882892   1887470   1891842   1895998   1899998  
  7170.000000   1903913   1907864   1911945   1916258   1920838  
  7160.000000   1925700   1930797   1936075   1941467   1946944  
  7150.000000   1952505   1958209   1964124   1970345   1976905  
  7140.000000   1983806   1990947   1998208   2005424   2012500  
  7130.000000   2019371   2026077   2032690   2039339   2046120  
  7120.000000   2053122   2060366   2067862   2075576   2083488  
  7110.000000   2091554   2099742   2107985   2116221   2124369  
  7100.000000   2132389   2140262   2148042   2155799   2163632  
  7090.000000   2171599   2179727   2187989   2196340   2204732  
  7080.000000   2213151   2221608   2230139   2238770   2247501  
  7070.000000   2256293   2265084   2273808   2282429   2290946  
  7060.000000   2299392   2307806   2316222   2324645   2333051  
  7050.000000   2341404   2349662   2357802   2365806   2373677  
  7040.000000   2381417   2389044   2396574   2404054   2411526  
  7030.000000   2419047   2426638   2434296   2441961   2449558  
  7020.000000   2456992   2464217   2471213   2478023   2484698  
  7010.000000   2491298   2497836   2504308   2510670   2516899  
  7000.000000   2522972   2528911   2534728   2540446   2546043  
  6990.000000   2551498   2556762   2561834   2566722   2571488  
  6980.000000   2576180   2580845   2585460   2589985   2594341  
  6970.000000   2598489   2602410   2606157   2609780   2613341  
  6960.000000   2616840   2620253   2623514   2626596   2629494  
  6950.000000   2632287   2635062   2637919   2640886   2643944  
  6940.000000   2646995   2649936   2652668   2655152   2657379  
  6930.000000   2659380   2661172   2662773   2664182   2665423  
  6920.000000   2666545   2667642   2668810   2670136   2671632  
  6910.000000   2673259   2674919   2676524   2678018   2679419  
  6900.000000   2680791   2682219   2683743   2685348   2686948  
  6890.000000   2688437   2689733   2690823   2691769   2692677  
  6880.000000   2693650   2694741   2695926   2697121   2698219  
  6870.000000   2699135   2699844   2700382   2700831   2701283  
  6860.000000   2701807   2702444   2703193   2704040   2704959  
  6850.000000   2705931   2706936   2707960   2708982   2709985  
  6840.000000   2710949   2711862   2712707   2713462   2714098  
  6830.000000   2714583   2714896   2715045   2715077   2715074  
  6820.000000   2715135   2715348   2715752   2716337   2717038  
  6810.000000   2717770   2718448   2719023   2719478   2719836  
  6800.000000   2720123   2720372   2720594   2720799   2720986  
  6790.000000   2721162   2721326   2721476   2721585   2721619  
  6780.000000   2721525   2721269   2720832   2720234   2719510  
  6770.000000   2718720   2717906   2717109   2716349   2715648  
  6760.000000   2715018   2714479   2714023   2713630   2713239  
  6750.000000   2712776   2712169   2711380   2710421   2709356  
  6740.000000   2708270   2707241   2706302   2705437   2704583  
  6730.000000   2703677   2702670   2701568   2700410   2699262  
  6720.000000   2698170   2697162   2696222   2695325   2694439  
  6710.000000   2693555   2692667   2691773   2690847   2689842  
  6700.000000   2688694   2687359   2685823   2684128   2682349  
  6690.000000   2680577   2678870   2677246   2675666   2674071  
  6680.000000   2672399   2670629   2668773   2666881   2665003  
  6670.000000   2663179   2661411   2659687   2657974   2656257  
  6660.000000   2654526   2652792   2651060   2649334   2647608  
  6650.000000   2645874   2644129   2642382   2640645   2638924  
  6640.000000   2637205   2635455   2633627   2631688   2629625  
  6630.000000   2627472   2625285   2623132   2621062   2619091  
  6620.000000   2617194   2615326   2613436   2611494   2609488  
  6610.000000   2607428   2605325   2603188   2601015   2598801  
  6600.000000   2596553   2594290   2592043   2589844   2587713  
  6590.000000   2585651   2583647   2581688   2579770   2577902  
  6580.000000   2576101   2574370   2572692   2571024   2569313  
  6570.000000   2567512   2565613   2563645   2561676   2559777  
  6560.000000   2558007   2556378   2554864   2553408   2551956  
  6550.000000   2550468   2548937   2547376   2545810   2544254  
  6540.000000   2542717   2541197   2539700   2538242   2536853  
  6530.000000   2535557   2534370   2533283   2532269   2531290  
  6520.000000   2530319   2529345   2528375   2527418   2526482  
  6510.000000   2525547   2524587   2523566   2522470   2521305  
  6500.000000   2520106   2518919   2517784   2516721   2515727  
  6490.000000   2514781   2513863   2512961   2512072   2511202  
  6480.000000   2510346   2509490   2508605   2507667   2506664  
  6470.000000   2505608   2504526   2503450   2502393   2501345  
  6460.000000   2500273   2499137   2497911   2496601   2495241  
  6450.000000   2493884   2492577   2491344   2490176   2489048  
  6440.000000   2487927   2486802   2485681   2484595   2483577  
  6430.000000   2482647   2481802   2481013   2480244   2479454  
  6420.000000   2478621   2477733   2476792   2475805   2474779  
  6410.000000   2473724   2472659   2471610   2470611   2469692  
  6400.000000   2468868   2468133   2467455   2466795   2466111  
  6390.000000   2465384   2464614   2463824   2463041   2462289  
  6380.000000   2461576   2460892   2460216   2459519   2458777  
  6370.000000   2457968   2457080   2456110   2455061   2453954  
  6360.000000   2452819   2451696   2450626   2449639   2448744  
  6350.000000   2447928   2447160   2446404   2445630   2444823  
  6340.000000   2443983   2443120   2442245   2441364   2440476  
  6330.000000   2439583   2438683   2437783   2436889   2436001  
  6320.000000   2435103   2434174   2433178   2432094   2430909  
  6310.000000   2429643   2428318   2426972   2425617   2424255  
  6300.000000   2422858   2421398   2419842   2418180   2416412  
  6290.000000   2414558   2412630   2410645   2408601   2406501  
  6280.000000   2404337   2402119   2399851   2397550   2395219  
  6270.000000   2392863   2390475   2388057   2385604   2383133  
  6260.000000   2380654   2378189   2375743   2373326   2370930  
  6250.000000   2368555   2366194   2363846   2361491   2359105  
  6240.000000   2356639   2354046   2351284   2348341   2345241  
  6230.000000   2342049   2338843   2335703   2332676   2329776  
  6220.000000   2326977   2324242   2321529   2318818   2316110  
  6210.000000   2313420   2310767   2308162   2305599   2303063  
  6200.000000   2300537   2298003   2295453   2292881   2290285  
  6190.000000   2287660   2285006   2282331   2279658   2277018  
  6180.000000   2274447   2271972   2269602   2267325   2265112  
  6170.000000   2262931   2260759   2258584   2256409   2254242  
  6160.000000   2252084   2249926   2247756   2245558   2243335  
  6150.000000   2241101   2238887   2236723   2234631   2232612  
  6140.000000   2230649   2228711   2226770   2224807   2222823  
  6130.000000   2220827   2218844   2216891   2214988   2213141  
  6120.000000   2211363   2209651   2208007   2206417   2204872  
  6110.000000   2203347   2201833   2200321   2198829   2197381  
  6100.000000   2196015   2194757   2193633   2192636   2191758  
  6090.000000   2190968   2190249   2189575   2188933   2188303  
  6080.000000   2187677   2187038   2186390   2185743   2185137  
  6070.000000   2184612   2184221   2183983   2183906   2183952  
  6060.000000   2184078   2184223   2184360   2184476   2184604  
  6050.000000   2184780   2185059   2185472   2186048   2186781  
  6040.000000   2187670   2188692   2189840   2191089   2192428  
  6030.000000   2193833   2195292   2196794   2198346   2199955  
  6020.000000   2201640   2203402   2205239   2207118   2209008  
  6010.000000   2210866   2212669   2214402   2216070   2217678  
  6000.000000   2219234   2220737   2222185   2223579   2224933  
  5990.000000   2226274   2227640   2229064   2230563   2232133  
  5980.000000   2233751   2235390   2237033   2238680   2240354  
  5970.000000   2242084   2243898   2245801   2247784   2249817  
  5960.000000   2251869   2253917   2255954   2257980   2260003  
  5950.000000   2262019   2264020   2265986   2267903   2269763  
  5940.000000   2271578   2273369   2275166   2276999   2278892  
  5930.000000   2280859   2282913   2285062   2287308   2289647  
  5920.000000   2292060   2294512   2296960   2299358   2301672  
  5910.000000   2303888   2306016   2308080   2310110   2312130  
  5900.000000   2314154   2316185   2318223   2320271   2322341  
  5890.000000   2324452   2326617   2328845   2331123   2333429  
  5880.000000   2335726   2337974   2340143   2342209   2344166  
  5870.000000   2346018   2347786   2349494   2351182   2352880  
  5860.000000   2354626   2356433   2358315   2360266   2362287  
  5850.000000   2364381   2366573   2368890   2371370   2374032  
  5840.000000   2376876   2379867   2382954   2386079   2389193  
  5830.000000   2392274   2395320   2398348   2401368   2404383  
  5820.000000   2407365   2410285   2413095   2415771   2418285  
  5810.000000   2420636   2422805   2424790   2426559   2428105  
  5800.000000   2429404   2430487   2431373   2432129   2432784  
  5790.000000   2433383   2433906   2434338   2434614   2434696  
  5780.000000   2434532   2434114   2433435   2432523   2431405  
  5770.000000   2430128   2428734   2427278   2425808   2424369  
  5760.000000   2422993   2421702   2420501   2419393   2418380  
  5750.000000   2417473   2416688   2416042   2415547   2415195  
  5740.000000   2414971   2414837   2414760   2414700   2414643  
  5730.000000   2414570   2414492   2414411   2414349   2414320  
  5720.000000   2414353   2414466   2414683   2415008   2415441  
  5710.000000   2415960   2416541   2417155   2417786   2418430  
  5700.000000   2419096   2419797   2420547   2421347   2422193  
  5690.000000   2423076   2423986   2424921   2425880   2426863  
  5680.000000   2427857   2428839   2429771   2430617   2431342  
  5670.000000   2431930   2432376   2432693   2432889   2432978  
  5660.000000   2432960   2432844   2432633   2432349   2432012  
  5650.000000   2431654   2431295   2430952   2430624   2430313  
  5640.000000   2430013   2429730   2429467   2429229   2429011  
  5630.000000   2428802   2428585   2428348   2428089   2427822  
  5620.000000   2427572   2427362   2427201   2427081   2426973  
  5610.000000   2426844   2426661   2426417   2426113   2425770  
  5600.000000   2425401   2425008   2424575   2424079   2423495  
  5590.000000   2422818   2422056   2421244   2420411   2419587  
  5580.000000   2418778   2417979   2417164   2416314   2415406  
  5570.000000   2414436   2413401   2412311   2411173   2409999  
  5560.000000   2408799   2407583   2406359   2405131   2403897  
  5550.000000   2402649   2401378   2400080   2398762   2397444  
  5540.000000   2396155   2394924   2393768   2392694   2391692  
  5530.000000   2390743   2389830   2388941   2388073   2387229  
  5520.000000   2386412   2385619   2384845   2384081   2383317  
  5510.000000   2382545   2381755   2380936   2380071   2379142  
  5500.000000   2378128   2377027   2375848   2374621   2373377  
  5490.000000   2372149   2370944   2369755   2368548   2367299  
  5480.000000   2365980   2364592   2363141   2361650   2360127  
  5470.000000   2358574   2356975   2355314   2353577   2351768  
  5460.000000   2349894   2347971   2346004   2343991   2341915  
  5450.000000   2339771   2337557   2335298   2333030   2330794  
  5440.000000   2328621   2326518   2324481   2322490   2320540  
  5430.000000   2318625   2316764   2314967   2313249   2311600  
  5420.000000   2310020   2308496   2307048   2305696   2304488  
  5410.000000   2303450   2302607   2301935   2301412   2300989  
  5400.000000   2300653   2300381   2300201   2300120   2300171  
  5390.000000   2300348   2300667   2301108   2301696   2302437  
  5380.000000   2303375   2304518   2305888   2307445   2309170  
  5370.000000   2310995   2312917   2314902   2317007   2319243  
  5360.000000   2321697   2324380   2327370   2330658   2334319  
  5350.000000   2338340   2342800   2347682   2353048   2358851  
  5340.000000   2365137   2371851   2379061   2386735   2394964  
  5330.000000   2403714   2413056   2422915   2433333   2444223  
  5320.000000   2455660   2467604   2480190   2493416   2507437  
  5310.000000   2522226   2537894   2554366   2571715   2589856  
  5300.000000   2608875   2628722   2649525   2671269   2694092  
  5290.000000   2717959   2742935   2768893   2795780   2823396  
  5280.000000   2851669   2880472   2909853   2939832   2970538  
  5270.000000   3001997   3034200   3066979   3100088   3133241  
  5260.000000   3166187   3198804   3231055   3263029   3294757  
  5250.000000   3326274   3357416   3388031   3417803   3446593  
  5240.000000   3474205   3500726   3526159   3550735   3574483  
  5230.000000   3597570   3619895   3641481   3662114   3681771  
  5220.000000   3700271   3717694   3733982   3749334   3763770  
  5210.000000   3777501   3790494   3802848   3814414   3825205  
  5200.000000   3835056   3844035   3852077   3859341   3865812  
  5190.000000   3871626   3876710   3881121   3884745   3887636  
  5180.000000   3889729   3891140   3891855   3891997   3891528  
  5170.000000   3890521   3888912   3886769   3884062   3880893  
  5160.000000   3877261   3873257   3868849   3864082   3858905  
  5150.000000   3853370   3847468   3841294   3834872   3828280  
  5140.000000   3821503   3814561   3807402   3800034   3792436  
  5130.000000   3784662   3776739   3768735   3760669   3752577  
  5120.000000   3744443   3736278   3728067   3719826   3711557  
  5110.000000   3703280   3694990   3686693   3678379   3670055  
  5100.000000   3661731   3653435   3645189   3637019   3628928  
  5090.000000   3620914   3612958   3605048   3597167   3589311  
  5080.000000   3581471   3573641   3565802   3557935   3550014  
  5070.000000   3542030   3533975   3525864   3517706   3509518  
  5060.000000   3501300   3493050   3484754   3476408   3468008  
  5050.000000   3459569   3451105   3442637   3434177   3425734  
  5040.000000   3417307   3408898   3400515   3392169   3383878  
  5030.000000   3375655   3367515   3359456   3351481   3343577  
  5020.000000   3335753   3328006   3320360   3312821   3305422  
  5010.000000   3298161   3291059   3284102   3277306   3270655  
  5000.000000   3264180   3257875   3251789   3245929   3240349  
  4990.000000   3235050   3230075   3225404   3221062   3217006  
  4980.000000   3213251   3209755   3206548   3203613   3201014  
  4970.000000   3198756   3196919   3195498   3194548   3194027  
  4960.000000   3193950   3194246   3194920   3195908   3197235  
  4950.000000   3198860   3200830   3203114   3205761   3208737  
  4940.000000   3212082   3215753   3219782   3224122   3228794  
  4930.000000   3233749   3239006   3244521   3250325   3256389  
  4920.000000   3262749   3269379   3276302   3283476   3290904  
  4910.000000   3298539   3306383   3314407   3322628   3331034  
  4900.000000   3339643   3348436   3357412   3366540   3375801  
  4890.000000   3385159   3394590   3404061   3413544   3423008  
  4880.000000   3432419   3441754   3450989   3460115   3469118  
  4870.000000   3477995   3486724   3495297   3503680   3511866  
  4860.000000   3519829   3527580   3535109   3542442   3549574  
  4850.000000   3556533   3563313   3569943   3576427   3582804  
  4840.000000   3589079   3595289   3601421   3607489   3613460  
  4830.000000   3619333   3625073   3630688   3636152   3641477  
  4820.000000   3646633   3651622   3656409   3660991   3665344  
  4810.000000   3669484   3673407   3677144   3680694   3684088  
  4800.000000   3687320   3690414   3693367   3696206   3698929  
  4790.000000   3701560   3704089   3706530   3708865   3711109  
  4780.000000   3713252   3715323   3717321   3719273   3721165  
  4770.000000   3723001   3724745   3726383   3727872   3729205  
  4760.000000   3730351   3731314   3732074   3732642   3733007  
  4750.000000   3733190   3733189   3733036   3732727   3732283  
  4740.000000   3731679   3730917   3729959   3728809   3727449  
  4730.000000   3725910   3724205   3722381   3720453   3718453  
  4720.000000   3716373   3714221   3711982   3709664   3707263  
  4710.000000   3704799   3702277   3699720   3697131   3694528  
  4700.000000   3691918   3689325   3686757   3684236   3681761  
  4690.000000   3679329   3676913   3674485   3672004   3669437  
  4680.000000   3666758   3663952   3661015   3657953   3654781  
  4670.000000   3651519   3648197   3644849   3641518   3638243  
  4660.000000   3635064   3632008   3629097   3626340   3623746  
  4650.000000   3621314   3619054   3616963   3615050   3613304  
  4640.000000   3611724   3610286   3608982   3607786   3606692  
  4630.000000   3605682   3604753   3603882   3603062   3602266  
  4620.000000   3601481   3600684   3599869   3599025   3598150  
  4610.000000   3597234   3596276   3595266   3594207   3593102  
  4600.000000   3591971   3590839   3589736   3588689   3587720  
  4590.000000   3586842   3586061   3585374   3584777   3584260  
  4580.000000   3583811   3583411   3583036   3582660   3582259  
  4570.000000   3581819   3581335   3580811   3580254   3579670  
  4560.000000   3579059   3578408   3577706   3576938   3576101  
  4550.000000   3575198   3574246   3573257   3572257   3571255  
  4540.000000   3570276   3569328   3568445   3567643   3566967  
  4530.000000   3566428   3566066   3565870   3565873   3566055  
  4520.000000   3566455   3567063   3567941   3569086   3570568  
  4510.000000   3572376   3574583   3577171   3580224   3583732  
  4500.000000   3587790   3592392   3597625   3603469   3609995  
  4490.000000   3617169   3625055   3633615   3642904   3652869  
  4480.000000   3663537   3674822   3686716   3699118   3712007  
  4470.000000   3725290   3738955   3752924   3767181   3781653  
  4460.000000   3796313   3811090   3825955   3840850   3855741  
  4450.000000   3870581   3885326   3899931   3914347   3928553  
  4440.000000   3942518   3956260   3969775   3983114   3996269  
  4430.000000   4009288   4022129   4034818   4047270   4059494  
  4420.000000   4071381   4082930   4094018   4104633   4114630  
  4410.000000   4123976   4132509   4140184   4146848   4152487  
  4400.000000   4157007   4160468   4162866   4164339   4164952  
  4390.000000   4164872   4164183   4163034   4161492   4159672  
  4380.000000   4157634   4155481   4153292   4151186   4149278  
  4370.000000   4147704   4146595   4146063   4146207   4147068  
  4360.000000   4148671   4150965   4153897   4157351   4161233  
  4350.000000   4165419   4169835   4174410   4179136   4184013  
  4340.000000   4189087   4194378   4199899   4205590   4211340  
  4330.000000   4216961   4222230   4226919   4230843   4233915  
  4320.000000   4236150   4237695   4238758   4239611   4240473  
  4310.000000   4241539   4242871   4244495   4246319   4248267  
  4300.000000   4250206   4252068   4253762   4255257   4256503  
  4290.000000   4257489   4258183   4258589   4258701   4258548  
  4280.000000   4258155   4257579   4256856   4256053   4255201  
  4270.000000   4254356   4253526   4252732   4251935   4251097  
  4260.000000   4250135   4248975   4247535   4245775   4243682  
  4250.000000   4241302   4238712   4236018   4233327   4230741  
  4240.000000   4228328   4226133   4224163   4222411   4220839  
  4230.000000   4219409   4218064   4216749   4215404   4213972  
  4220.000000   4212409   4210679   4208779   4206717   4204531  
  4210.000000   4202269   4199994   4197758   4195614   4193589  
  4200.000000   4191702   4189940   4188292   4186718   4185202  
  4190.000000   4183705   4182232   4180768   4179356   4178002  
  4180.000000   4176782   4175711   4174877   4174296   4174062  
  4170.000000   4174195   4174797   4175889   4177571   4179846  
  4160.000000   4182790   4186367   4190624   4195494   4201012  
  4150.000000   4207105   4213814   4221069   4228911   4237272  
  4140.000000   4246192   4255603   4265551   4275977   4286932  
  4130.000000   4298357   4310296   4322686   4335558   4348851  
  4120.000000   4362595   4376741   4391324   4406307   4421725  
  4110.000000   4437544   4453792   4470433   4487479   4504879  
  4100.000000   4522618   4540630   4558880   4577301   4595866  
  4090.000000   4614533   4633294   4652132   4671042   4690023  
  4080.000000   4709062   4728166   4747316   4766523   4785750  
  4070.000000   4804994   4824183   4843296   4862245   4881022  
  4060.000000   4899549   4917840   4935814   4953480   4970725  
  4050.000000   4987552   5003848   5019647   5034862   5049557  
  4040.000000   5063624   5077089   5089782   5101689   5112635  
  4030.000000   5122650   5131622   5139645   5146652   5152724  
  4020.000000   5157740   5161760   5164720   5166697   5167613  
  4010.000000   5167638   5166872   5165373   5162904   5159585  
  4000.000000   5155840  
##END= 
