##TITLE= Sample 024 By ssteindl date Dienstag, November 20 2018
##JCAMP-DX= 4.24
##DATA TYPE= INFRARED SPECTRUM
##ORIGIN= Exported PE Spectrum Data File
##OWNER= Sandra Steindl
##DATE= 18/11/20
##TIME= 11:26:57.00
##SPECTROMETER/DATA SYSTEM= PERKIN-ELMER Frontier FT-IR/NIR IR
##INSTRUMENT PARAMETERS=
  APODIZATION=stark
  DETECTOR=INGAAS
##RESOLUTION= 16.000000
##DELTAX= -2.000000
##XUNITS= 1/CM
##YUNITS= A
##XFACTOR= 1.00
##YFACTOR= 0.00000011920928955078
##FIRSTX= 10000.00
##LASTX= 4000.00
##NPOINTS= 3001
##FIRSTY= 0.190612
##MAXY= 0.629847
##MINY= 0.164616
##XYDATA= (X++(Y..Y))
 10000.000000   1598968   1603906   1607789   1609163   1607606  
  9990.000000   1603434   1596882   1588101   1577794   1567068  
  9980.000000   1556990   1548320   1541540   1536858   1534104  
  9970.000000   1533020   1533320   1534911   1537783   1542035  
  9960.000000   1547733   1554775   1562837   1571231   1579063  
  9950.000000   1585231   1588850   1589353   1586892   1582238  
  9940.000000   1576722   1571837   1568784   1568189   1569817  
  9930.000000   1572854   1576092   1578579   1579800   1579961  
  9920.000000   1579645   1579549   1579976   1580660   1580857  
  9910.000000   1579618   1576332   1570891   1563885   1556241  
  9900.000000   1548988   1542843   1538109   1534731   1532487  
  9890.000000   1531249   1531035   1532040   1534405   1538153  
  9880.000000   1543025   1548603   1554394   1559980   1565120  
  9870.000000   1569609   1573296   1575820   1576798   1575779  
  9860.000000   1572604   1567454   1560979   1554120   1547874  
  9850.000000   1543071   1540136   1539185   1539995   1542300  
  9840.000000   1545742   1550053   1554866   1559798   1564338  
  9830.000000   1567993   1570370   1571289   1570879   1569434  
  9820.000000   1567404   1565096   1562691   1560107   1557130  
  9810.000000   1553520   1549129   1544040   1538549   1533191  
  9800.000000   1528616   1525517   1524444   1525678   1529042  
  9790.000000   1533890   1539156   1543660   1546439   1547091  
  9780.000000   1545928   1543858   1542073   1541561   1542764  
  9770.000000   1545341   1548366   1550596   1551004   1549065  
  9760.000000   1544950   1539372   1533314   1527692   1523122  
  9750.000000   1519889   1518027   1517478   1518166   1520016  
  9740.000000   1522834   1526309   1529960   1533328   1536080  
  9730.000000   1538160   1539803   1541353   1543125   1545108  
  9720.000000   1546992   1548186   1548081   1546315   1542904  
  9710.000000   1538356   1533441   1529073   1525966   1524554  
  9700.000000   1524835   1526468   1528811   1531072   1532429  
  9690.000000   1532169   1529860   1525447   1519350   1512383  
  9680.000000   1505626   1500134   1496689   1495586   1496585  
  9670.000000   1499049   1502137   1505115   1507476   1509059  
  9660.000000   1509940   1510326   1510403   1510245   1509823  
  9650.000000   1509013   1507711   1505852   1503480   1500715  
  9640.000000   1497752   1494817   1492119   1489815   1487940  
  9630.000000   1486390   1484948   1483330   1481339   1478915  
  9620.000000   1476238   1473646   1471584   1470407   1470311  
  9610.000000   1471240   1472962   1475166   1477594   1480135  
  9600.000000   1482796   1485663   1488764   1492045   1495330  
  9590.000000   1498398   1501032   1503064   1504385   1504894  
  9580.000000   1504486   1503054   1500523   1496956   1492559  
  9570.000000   1487745   1482980   1478741   1475312   1472794  
  9560.000000   1471065   1469898   1469023   1468188   1467173  
  9550.000000   1465764   1463781   1461100   1457772   1454051  
  9540.000000   1450450   1447594   1446093   1446272   1448093  
  9530.000000   1451076   1454503   1457593   1459809   1460949  
  9520.000000   1461187   1460898   1460503   1460296   1460428  
  9510.000000   1460933   1461822   1463142   1464943   1467232  
  9500.000000   1469838   1472442   1474564   1475775   1475791  
  9490.000000   1474648   1472657   1470307   1468055   1466171  
  9480.000000   1464635   1463218   1461566   1459409   1456632  
  9470.000000   1453370   1449949   1446787   1444257   1442540  
  9460.000000   1441572   1441029   1440464   1439404   1437585  
  9450.000000   1435004   1432036   1429307   1427544   1427339  
  9440.000000   1428891   1431945   1435844   1439797   1443191  
  9430.000000   1445774   1447728   1449450   1451334   1453433  
  9420.000000   1455400   1456507   1456003   1453436   1448986  
  9410.000000   1443484   1438168   1434305   1432717   1433620  
  9400.000000   1436539   1440635   1444942   1448722   1451549  
  9390.000000   1453322   1454103   1454017   1453178   1451731  
  9380.000000   1449907   1448028   1446457   1445444   1445027  
  9370.000000   1444974   1444872   1444301   1443000   1440992  
  9360.000000   1438518   1435936   1433523   1431389   1429473  
  9350.000000   1427684   1426034   1424732   1424107   1424452  
  9340.000000   1425819   1427933   1430228   1432025   1432792  
  9330.000000   1432311   1430757   1428543   1426143   1423862  
  9320.000000   1421802   1419884   1418026   1416258   1414774  
  9310.000000   1413848   1413657   1414180   1415142   1416154  
  9300.000000   1416852   1417097   1417011   1416911   1417109  
  9290.000000   1417733   1418635   1419449   1419774   1419363  
  9280.000000   1418254   1416730   1415183   1413894   1412898  
  9270.000000   1411973   1410771   1408994   1406579   1403737  
  9260.000000   1400925   1398624   1397182   1396680   1396954  
  9250.000000   1397678   1398506   1399217   1399791   1400379  
  9240.000000   1401228   1402564   1404537   1407164   1410318  
  9230.000000   1413724   1417000   1419735   1421591   1422389  
  9220.000000   1422160   1421159   1419799   1418525   1417662  
  9210.000000   1417312   1417329   1417390   1417098   1416158  
  9200.000000   1414456   1412149   1409564   1407143   1405274  
  9190.000000   1404244   1404161   1404949   1406339   1407938  
  9180.000000   1409312   1410079   1410001   1409037   1407378  
  9170.000000   1405386   1403487   1402023   1401136   1400729  
  9160.000000   1400529   1400221   1399582   1398581   1397393  
  9150.000000   1396300   1395565   1395263   1395257   1395211  
  9140.000000   1394778   1393700   1391943   1389708   1387395  
  9130.000000   1385491   1384417   1384466   1385725   1388125  
  9120.000000   1391432   1395281   1399203   1402689   1405294  
  9110.000000   1406679   1406715   1405487   1403334   1400709  
  9100.000000   1398078   1395774   1393954   1392623   1391666  
  9090.000000   1390992   1390547   1390399   1390636   1391320  
  9080.000000   1392386   1393632   1394769   1395457   1395439  
  9070.000000   1394564   1392909   1390691   1388261   1385999  
  9060.000000   1384280   1383426   1383633   1384965   1387300  
  9050.000000   1390392   1393871   1397332   1400364   1402657  
  9040.000000   1404032   1404467   1404077   1403057   1401666  
  9030.000000   1400122   1398585   1397119   1395705   1394272  
  9020.000000   1392718   1390993   1389110   1387209   1385484  
  9010.000000   1384158   1383373   1383149   1383355   1383734  
  9000.000000   1384007   1383948   1383497   1382741   1381904  
  8990.000000   1381225   1380902   1380993   1381453   1382140  
  8980.000000   1382937   1383761   1384617   1385527   1386500  
  8970.000000   1387489   1388396   1389121   1389616   1389937  
  8960.000000   1390242   1390736   1391590   1392868   1394492  
  8950.000000   1396251   1397852   1399020   1399571   1399451  
  8940.000000   1398738   1397610   1396324   1395141   1394293  
  8930.000000   1393924   1394064   1394626   1395404   1396167  
  8920.000000   1396714   1396984   1397077   1397241   1397774  
  8910.000000   1398888   1400591   1402641   1404621   1406054  
  8900.000000   1406587   1406123   1404880   1403323   1401993  
  8890.000000   1401341   1401572   1402616   1404179   1405851  
  8880.000000   1407270   1408182   1408512   1408298   1407649  
  8870.000000   1406694   1405569   1404443   1403542   1403134  
  8860.000000   1403509   1404873   1407293   1410604   1414410  
  8850.000000   1418167   1421303   1423399   1424291   1424136  
  8840.000000   1423374   1422605   1422422   1423222   1425099  
  8830.000000   1427801   1430815   1433510   1435320   1435905  
  8820.000000   1435237   1433601   1431493   1429470   1427995  
  8810.000000   1427327   1427492   1428323   1429553   1430925  
  8800.000000   1432258   1433509   1434723   1436021   1437510  
  8790.000000   1439260   1441254   1443384   1445482   1447328  
  8780.000000   1448733   1449543   1449716   1449306   1448487  
  8770.000000   1447494   1446579   1445941   1445690   1445840  
  8760.000000   1446317   1447025   1447877   1448848   1449976  
  8750.000000   1451325   1452955   1454854   1456947   1459071  
  8740.000000   1461053   1462722   1464003   1464913   1465597  
  8730.000000   1466267   1467170   1468508   1470388   1472789  
  8720.000000   1475572   1478498   1481312   1483775   1485754  
  8710.000000   1487221   1488266   1489042   1489722   1490454  
  8700.000000   1491339   1492456   1493856   1495612   1497775  
  8690.000000   1500399   1503460   1506848   1510342   1513638  
  8680.000000   1516423   1518419   1519488   1519613   1518950  
  8670.000000   1517739   1516300   1514951   1514011   1513756  
  8660.000000   1514394   1516042   1518670   1522139   1526169  
  8650.000000   1530435   1534598   1538426   1541815   1544802  
  8640.000000   1547504   1550034   1552452   1554701   1556651  
  8630.000000   1558133   1559039   1559358   1559192   1558734  
  8620.000000   1558201   1557781   1557581   1557627   1557895  
  8610.000000   1558341   1558927   1559639   1560495   1561527  
  8600.000000   1562765   1564252   1566038   1568187   1570752  
  8590.000000   1573764   1577210   1580997   1584955   1588845  
  8580.000000   1592406   1595387   1597595   1598930   1599432  
  8570.000000   1599252   1598636   1597862   1597189   1596805  
  8560.000000   1596772   1597060   1597556   1598162   1598806  
  8550.000000   1599524   1600400   1601558   1603035   1604775  
  8540.000000   1606604   1608289   1609640   1610562   1611138  
  8530.000000   1611546   1612017   1612684   1613538   1614414  
  8520.000000   1615076   1615346   1615216   1614901   1614788  
  8510.000000   1615309   1616769   1619237   1622488   1626074  
  8500.000000   1629459   1632182   1633996   1634905   1635141  
  8490.000000   1635057   1635019   1635304   1636047   1637238  
  8480.000000   1638744   1640373   1641927   1643255   1644278  
  8470.000000   1645007   1645519   1645935   1646365   1646859  
  8460.000000   1647393   1647878   1648233   1648433   1648563  
  8450.000000   1648817   1649442   1650649   1652496   1654857  
  8440.000000   1657427   1659823   1661718   1662951   1663594  
  8430.000000   1663889   1664155   1664641   1665426   1666413  
  8420.000000   1667385   1668131   1668566   1668788   1669056  
  8410.000000   1669670   1670829   1672538   1674572   1676564  
  8400.000000   1678118   1678976   1679111   1678745   1678269  
  8390.000000   1678108   1678576   1679774   1681556   1683581  
  8380.000000   1685424   1686705   1687197   1686875   1685908  
  8370.000000   1684611   1683336   1682405   1681999   1682164  
  8360.000000   1682804   1683745   1684785   1685745   1686515  
  8350.000000   1687050   1687353   1687428   1687260   1686810  
  8340.000000   1686046   1684980   1683714   1682442   1681434  
  8330.000000   1680980   1681290   1682428   1684248   1686442  
  8320.000000   1688598   1690319   1691321   1691500   1690961  
  8310.000000   1689945   1688759   1687655   1686794   1686212  
  8300.000000   1685864   1685667   1685556   1685512   1685550  
  8290.000000   1685706   1685981   1686348   1686744   1687117  
  8280.000000   1687454   1687786   1688181   1688691   1689320  
  8270.000000   1689999   1690587   1690933   1690930   1690578  
  8260.000000   1689984   1689337   1688818   1688544   1688496  
  8250.000000   1688544   1688473   1688086   1687270   1686047  
  8240.000000   1684553   1682993   1681561   1680383   1679482  
  8230.000000   1678805   1678245   1677719   1677180   1676651  
  8220.000000   1676186   1675858   1675705   1675732   1675895  
  8210.000000   1676115   1676292   1676304   1676036   1675381  
  8200.000000   1674269   1672691   1670714   1668499   1666268  
  8190.000000   1664282   1662756   1661821   1661456   1661513  
  8180.000000   1661725   1661810   1661520   1660724   1659425  
  8170.000000   1657751   1655911   1654119   1652543   1651247  
  8160.000000   1650205   1649313   1648447   1647510   1646459  
  8150.000000   1645325   1644183   1643138   1642261   1641588  
  8140.000000   1641086   1640683   1640284   1639797   1639159  
  8130.000000   1638329   1637302   1636081   1634685   1633136  
  8120.000000   1631469   1629732   1627984   1626302   1624750  
  8110.000000   1623387   1622236   1621299   1620549   1619951  
  8100.000000   1619458   1619019   1618584   1618088   1617465  
  8090.000000   1616644   1615571   1614219   1612612   1610822  
  8080.000000   1608964   1607173   1605578   1604271   1603289  
  8070.000000   1602604   1602131   1601747   1601321   1600736  
  8060.000000   1599925   1598873   1597640   1596325   1595057  
  8050.000000   1593948   1593074   1592455   1592064   1591847  
  8040.000000   1591752   1591747   1591825   1591983   1592202  
  8030.000000   1592421   1592536   1592419   1591968   1591146  
  8020.000000   1590014   1588719   1587452   1586392   1585636  
  8010.000000   1585185   1584933   1584742   1584478   1584084  
  8000.000000   1583575   1583026   1582510   1582051   1581595  
  7990.000000   1581024   1580208   1579062   1577606   1575954  
  7980.000000   1574302   1572842   1571702   1570899   1570343  
  7970.000000   1569889   1569398   1568806   1568144   1567522  
  7960.000000   1567076   1566901   1567008   1567310   1567661  
  7950.000000   1567901   1567926   1567701   1567279   1566754  
  7940.000000   1566226   1565757   1565366   1565033   1564731  
  7930.000000   1564445   1564185   1563977   1563834   1563746  
  7920.000000   1563668   1563541   1563318   1562996   1562623  
  7910.000000   1562286   1562074   1562038   1562167   1562381  
  7900.000000   1562564   1562604   1562442   1562080   1561590  
  7890.000000   1561069   1560610   1560269   1560055   1559946  
  7880.000000   1559909   1559934   1560029   1560227   1560549  
  7870.000000   1560991   1561504   1561996   1562356   1562476  
  7860.000000   1562282   1561745   1560890   1559786   1558546  
  7850.000000   1557303   1556197   1555350   1554834   1554656  
  7840.000000   1554736   1554939   1555093   1555068   1554800  
  7830.000000   1554340   1553827   1553445   1553350   1553605  
  7820.000000   1554140   1554765   1555232   1555309   1554867  
  7810.000000   1553918   1552608   1551173   1549847   1548803  
  7800.000000   1548092   1547654   1547342   1546990   1546467  
  7790.000000   1545716   1544759   1543680   1542582   1541553  
  7780.000000   1540643   1539855   1539156   1538493   1537819  
  7770.000000   1537098   1536323   1535513   1534708   1533968  
  7760.000000   1533352   1532919   1532704   1532708   1532886  
  7750.000000   1533151   1533379   1533439   1533218   1532642  
  7740.000000   1531707   1530466   1529024   1527505   1526028  
  7730.000000   1524675   1523485   1522460   1521577   1520815  
  7720.000000   1520157   1519608   1519166   1518829   1518571  
  7710.000000   1518350   1518122   1517851   1517534   1517188  
  7700.000000   1516856   1516567   1516329   1516112   1515862  
  7690.000000   1515522   1515071   1514546   1514047   1513704  
  7680.000000   1513637   1513896   1514436   1515109   1515712  
  7670.000000   1516044   1515981   1515507   1514733   1513855  
  7660.000000   1513099   1512644   1512580   1512878   1513420  
  7650.000000   1514032   1514550   1514853   1514893   1514688  
  7640.000000   1514307   1513841   1513388   1513029   1512829  
  7630.000000   1512824   1513024   1513405   1513915   1514482  
  7620.000000   1515027   1515484   1515820   1516035   1516174  
  7610.000000   1516292   1516452   1516687   1517003   1517371  
  7600.000000   1517754   1518114   1518436   1518731   1519031  
  7590.000000   1519376   1519800   1520316   1520913   1521548  
  7580.000000   1522171   1522715   1523137   1523400   1523510  
  7570.000000   1523496   1523429   1523398   1523503   1523831  
  7560.000000   1524440   1525349   1526545   1527983   1529610  
  7550.000000   1531361   1533178   1534992   1536741   1538347  
  7540.000000   1539756   1540928   1541879   1542669   1543419  
  7530.000000   1544259   1545319   1546661   1548289   1550127  
  7520.000000   1552064   1553977   1555775   1557422   1558939  
  7510.000000   1560388   1561853   1563405   1565111   1567003  
  7500.000000   1569104   1571399   1573855   1576398   1578944  
  7490.000000   1581390   1583662   1585719   1587592   1589362  
  7480.000000   1591154   1593078   1595212   1597567   1600106  
  7470.000000   1602757   1605454   1608155   1610856   1613569  
  7460.000000   1616302   1619034   1621715   1624282   1626696  
  7450.000000   1628960   1631144   1633358   1635724   1638334  
  7440.000000   1641208   1644292   1647472   1650613   1653595  
  7430.000000   1656349   1658864   1661181   1663379   1665539  
  7420.000000   1667734   1670005   1672366   1674802   1677274  
  7410.000000   1679739   1682152   1684498   1686789   1689071  
  7400.000000   1691411   1693872   1696489   1699240   1702054  
  7390.000000   1704810   1707392   1709710   1711744   1713548  
  7380.000000   1715247   1716996   1718939   1721173   1723724  
  7370.000000   1726557   1729586   1732708   1735825   1738861  
  7360.000000   1741779   1744566   1747239   1749823   1752350  
  7350.000000   1754840   1757309   1759755   1762177   1764565  
  7340.000000   1766916   1769244   1771566   1773922   1776338  
  7330.000000   1778849   1781460   1784168   1786932   1789700  
  7320.000000   1792398   1794955   1797301   1799391   1801208  
  7310.000000   1802776   1804143   1805390   1806583   1807790  
  7300.000000   1809032   1810327   1811657   1813026   1814430  
  7290.000000   1815887   1817400   1818955   1820497   1821938  
  7280.000000   1823172   1824100   1824669   1824887   1824840  
  7270.000000   1824667   1824534   1824592   1824949   1825654  
  7260.000000   1826697   1828021   1829546   1831188   1832882  
  7250.000000   1834588   1836303   1838038   1839829   1841685  
  7240.000000   1843612   1845556   1847460   1849238   1850857  
  7230.000000   1852316   1853708   1855156   1856816   1858786  
  7220.000000   1861113   1863744   1866584   1869507   1872446  
  7210.000000   1875377   1878369   1881504   1884873   1888482  
  7200.000000   1892291   1896182   1900060   1903848   1907575  
  7190.000000   1911308   1915176   1919267   1923635   1928239  
  7180.000000   1933008   1937840   1942687   1947525   1952398  
  7170.000000   1957329   1962349   1967416   1972481   1977468  
  7160.000000   1982367   1987206   1992100   1997179   2002583  
  7150.000000   2008391   2014632   2021240   2028115   2035102  
  7140.000000   2042076   2048914   2055563   2061999   2068278  
  7130.000000   2074476   2080729   2087157   2093887   2100975  
  7120.000000   2108435   2116186   2124120   2132101   2140032  
  7110.000000   2147860   2155602   2163304   2171042   2178859  
  7100.000000   2186790   2194816   2202922   2211061   2219210  
  7090.000000   2227336   2235429   2243473   2251477   2259459  
  7080.000000   2267464   2275546   2283767   2292164   2300743  
  7070.000000   2309461   2318249   2327027   2335736   2344352  
  7060.000000   2352890   2361387   2369881   2378387   2386890  
  7050.000000   2395344   2403688   2411865   2419834   2427582  
  7040.000000   2435121   2442494   2449750   2456961   2464182  
  7030.000000   2471467   2478826   2486251   2493686   2501078  
  7020.000000   2508365   2515533   2522581   2529555   2536481  
  7010.000000   2543377   2550200   2556889   2563354   2569544  
  7000.000000   2575440   2581094   2586573   2591967   2597312  
  6990.000000   2602616   2607825   2612891   2617756   2622421  
  6980.000000   2626897   2631244   2635497   2639699   2643848  
  6970.000000   2647957   2652013   2656035   2660017   2663961  
  6960.000000   2667822   2671549   2675059   2678300   2681238  
  6950.000000   2683904   2686354   2688676   2690937   2693196  
  6940.000000   2695472   2697784   2700129   2702523   2704959  
  6930.000000   2707428   2709874   2712236   2714428   2716409  
  6920.000000   2718168   2719767   2721292   2722841   2724468  
  6910.000000   2726174   2727898   2729558   2731077   2732424  
  6900.000000   2733612   2734698   2735741   2736790   2737852  
  6890.000000   2738919   2739969   2740998   2742021   2743073  
  6880.000000   2744183   2745367   2746610   2747878   2749129  
  6870.000000   2750329   2751464   2752540   2753573   2754576  
  6860.000000   2755555   2756513   2757455   2758394   2759353  
  6850.000000   2760359   2761428   2762564   2763748   2764950  
  6840.000000   2766137   2767290   2768395   2769451   2770453  
  6830.000000   2771394   2772256   2773027   2773699   2774285  
  6820.000000   2774807   2775304   2775801   2776320   2776854  
  6810.000000   2777392   2777905   2778370   2778764   2779076  
  6800.000000   2779293   2779419   2779458   2779436   2779383  
  6790.000000   2779345   2779352   2779429   2779569   2779750  
  6780.000000   2779926   2780063   2780125   2780108   2780011  
  6770.000000   2779850   2779633   2779367   2779048   2778681  
  6760.000000   2778265   2777809   2777315   2776782   2776197  
  6750.000000   2775545   2774811   2774007   2773152   2772294  
  6740.000000   2771475   2770736   2770084   2769511   2768983  
  6730.000000   2768466   2767922   2767327   2766653   2765877  
  6720.000000   2764973   2763928   2762744   2761456   2760124  
  6710.000000   2758826   2757622   2756547   2755581   2754673  
  6700.000000   2753741   2752723   2751573   2750294   2748908  
  6690.000000   2747454   2745955   2744427   2742865   2741269  
  6680.000000   2739644   2738005   2736370   2734751   2733139  
  6670.000000   2731522   2729877   2728207   2726528   2724885  
  6660.000000   2723321   2721863   2720498   2719185   2717853  
  6650.000000   2716441   2714909   2713255   2711505   2709701  
  6640.000000   2707875   2706048   2704214   2702369   2700500  
  6630.000000   2698607   2696691   2694754   2692790   2690792  
  6620.000000   2688754   2686687   2684617   2682581   2680611  
  6610.000000   2678713   2676862   2675004   2673076   2671035  
  6600.000000   2668872   2666628   2664368   2662168   2660086  
  6590.000000   2658149   2656352   2654670   2653067   2651507  
  6580.000000   2649956   2648375   2646726   2644970   2643087  
  6570.000000   2641086   2639013   2636943   2634960   2633132  
  6560.000000   2631495   2630038   2628722   2627487   2626284  
  6550.000000   2625069   2623820   2622513   2621133   2619660  
  6540.000000   2618098   2616467   2614825   2613242   2611794  
  6530.000000   2610519   2609416   2608439   2607517   2606585  
  6520.000000   2605609   2604593   2603571   2602581   2601644  
  6510.000000   2600749   2599857   2598924   2597918   2596835  
  6500.000000   2595697   2594539   2593390   2592267   2591168  
  6490.000000   2590091   2589038   2588025   2587072   2586189  
  6480.000000   2585360   2584542   2583671   2582682   2581539  
  6470.000000   2580247   2578851   2577423   2576041   2574766  
  6460.000000   2573628   2572632   2571756   2570966   2570221  
  6450.000000   2569474   2568677   2567786   2566771   2565619  
  6440.000000   2564351   2563009   2561653   2560342   2559122  
  6430.000000   2558018   2557038   2556176   2555422   2554760  
  6420.000000   2554170   2553623   2553080   2552498   2551847  
  6410.000000   2551112   2550305   2549451   2548581   2547711  
  6400.000000   2546839   2545950   2545033   2544099   2543180  
  6390.000000   2542326   2541581   2540958   2540426   2539915  
  6380.000000   2539346   2538654   2537823   2536885   2535908  
  6370.000000   2534964   2534098   2533314   2532578   2531843  
  6360.000000   2531076   2530274   2529464   2528685   2527964  
  6350.000000   2527302   2526672   2526041   2525375   2524671  
  6340.000000   2523943   2523219   2522518   2521845   2521179  
  6330.000000   2520493   2519758   2518963   2518106   2517198  
  6320.000000   2516235   2515211   2514102   2512896   2511587  
  6310.000000   2510204   2508781   2507367   2505983   2504636  
  6300.000000   2503290   2501911   2500454   2498905   2497264  
  6290.000000   2495558   2493806   2492032   2490235   2488414  
  6280.000000   2486556   2484659   2482719   2480741   2478718  
  6270.000000   2476652   2474528   2472348   2470108   2467828  
  6260.000000   2465516   2463186   2460826   2458424   2455949  
  6250.000000   2453387   2450735   2448011   2445240   2442448  
  6240.000000   2439640   2436812   2433943   2431029   2428080  
  6230.000000   2425139   2422257   2419487   2416854   2414350  
  6220.000000   2411931   2409540   2407118   2404627   2402056  
  6210.000000   2399413   2396722   2394006   2391286   2388575  
  6200.000000   2385891   2383244   2380647   2378102   2375600  
  6190.000000   2373121   2370647   2368168   2365691   2363243  
  6180.000000   2360856   2358552   2356329   2354159   2351995  
  6170.000000   2349790   2347519   2345183   2342816   2340464  
  6160.000000   2338170   2335957   2333823   2331745   2329698  
  6150.000000   2327662   2325631   2323613   2321621   2319661  
  6140.000000   2317734   2315831   2313947   2312076   2310224  
  6130.000000   2308398   2306607   2304849   2303126   2301428  
  6120.000000   2299756   2298111   2296509   2294959   2293478  
  6110.000000   2292068   2290732   2289465   2288272   2287154  
  6100.000000   2286125   2285188   2284347   2283590   2282903  
  6090.000000   2282258   2281642   2281034   2280437   2279842  
  6080.000000   2279261   2278692   2278148   2277632   2277162  
  6070.000000   2276746   2276404   2276137   2275952   2275840  
  6060.000000   2275804   2275835   2275943   2276126   2276393  
  6050.000000   2276733   2277140   2277595   2278096   2278643  
  6040.000000   2279267   2279994   2280866   2281892   2283076  
  6030.000000   2284383   2285780   2287219   2288678   2290142  
  6020.000000   2291621   2293122   2294659   2296230   2297832  
  6010.000000   2299455   2301098   2302753   2304424   2306095  
  6000.000000   2307751   2309359   2310897   2312348   2313724  
  5990.000000   2315052   2316384   2317767   2319244   2320830  
  5980.000000   2322527   2324318   2326185   2328110   2330080  
  5970.000000   2332083   2334110   2336148   2338192   2340243  
  5960.000000   2342315   2344426   2346597   2348825   2351095  
  5950.000000   2353364   2355588   2357721   2359749   2361681  
  5940.000000   2363558   2365425   2367329   2369295   2371333  
  5930.000000   2373437   2375598   2377813   2380084   2382415  
  5920.000000   2384803   2387233   2389679   2392109   2394498  
  5910.000000   2396827   2399093   2401301   2403458   2405568  
  5900.000000   2407637   2409673   2411692   2413718   2415783  
  5890.000000   2417914   2420124   2422411   2424752   2427118  
  5880.000000   2429479   2431810   2434096   2436329   2438501  
  5870.000000   2440601   2442625   2444569   2446452   2448296  
  5860.000000   2450143   2452024   2453970   2455987   2458080  
  5850.000000   2460244   2462486   2464818   2467267   2469850  
  5840.000000   2472573   2475422   2478365   2481363   2484382  
  5830.000000   2487405   2490428   2493457   2496490   2499515  
  5820.000000   2502496   2505393   2508156   2510752   2513153  
  5810.000000   2515357   2517354   2519157   2520758   2522180  
  5800.000000   2523426   2524539   2525531   2526445   2527274  
  5790.000000   2528026   2528656   2529142   2529435   2529519  
  5780.000000   2529367   2528983   2528353   2527484   2526377  
  5770.000000   2525061   2523578   2522005   2520422   2518917  
  5760.000000   2517550   2516352   2515319   2514428   2513648  
  5750.000000   2512962   2512367   2511873   2511496   2511238  
  5740.000000   2511093   2511032   2511030   2511051   2511079  
  5730.000000   2511094   2511099   2511089   2511075   2511059  
  5720.000000   2511064   2511106   2511214   2511406   2511703  
  5710.000000   2512103   2512606   2513196   2513863   2514591  
  5700.000000   2515369   2516173   2516980   2517755   2518473  
  5690.000000   2519122   2519708   2520263   2520828   2521444  
  5680.000000   2522131   2522884   2523670   2524444   2525152  
  5670.000000   2525758   2526233   2526569   2526764   2526827  
  5660.000000   2526767   2526606   2526372   2526101   2525825  
  5650.000000   2525573   2525344   2525129   2524898   2524630  
  5640.000000   2524310   2523950   2523567   2523190   2522830  
  5630.000000   2522487   2522144   2521784   2521392   2520976  
  5620.000000   2520552   2520145   2519770   2519429   2519105  
  5610.000000   2518779   2518428   2518047   2517635   2517202  
  5600.000000   2516747   2516266   2515740   2515157   2514509  
  5590.000000   2513813   2513089   2512366   2511656   2510954  
  5580.000000   2510231   2509458   2508604   2507662   2506642  
  5570.000000   2505570   2504470   2503362   2502247   2501124  
  5560.000000   2499990   2498850   2497722   2496627   2495580  
  5550.000000   2494587   2493639   2492718   2491808   2490898  
  5540.000000   2489989   2489084   2488184   2487278   2486348  
  5530.000000   2485378   2484359   2483301   2482229   2481177  
  5520.000000   2480171   2479223   2478320   2477437   2476543  
  5510.000000   2475612   2474629   2473594   2472511   2471392  
  5500.000000   2470242   2469073   2467894   2466720   2465558  
  5490.000000   2464415   2463275   2462118   2460908   2459622  
  5480.000000   2458245   2456785   2455257   2453687   2452086  
  5470.000000   2450456   2448782   2447050   2445246   2443379  
  5460.000000   2441457   2439501   2437517   2435505   2433456  
  5450.000000   2431364   2429234   2427090   2424961   2422875  
  5440.000000   2420845   2418861   2416903   2414950   2413002  
  5430.000000   2411072   2409199   2407408   2405723   2404128  
  5420.000000   2402610   2401139   2399718   2398358   2397109  
  5410.000000   2396002   2395074   2394310   2393697   2393191  
  5400.000000   2392789   2392482   2392312   2392299   2392483  
  5390.000000   2392847   2393383   2394039   2394808   2395669  
  5380.000000   2396667   2397821   2399190   2400768   2402570  
  5370.000000   2404543   2406679   2408924   2411302   2413794  
  5360.000000   2416458   2419293   2422373   2425703   2429374  
  5350.000000   2433396   2437866   2442774   2448185   2454039  
  5340.000000   2460362   2467074   2474222   2481762   2489785  
  5330.000000   2498267   2507305   2516857   2526996   2537663  
  5320.000000   2548949   2560819   2573401   2586677   2600779  
  5310.000000   2615659   2631407   2647936   2665313   2683455  
  5300.000000   2702456   2722268   2743024   2764705   2787440  
  5290.000000   2811185   2835995   2861741   2888372   2915700  
  5280.000000   2943664   2972152   3001216   3030876   3061257  
  5270.000000   3092380   3124232   3156644   3189375   3222143  
  5260.000000   3254698   3286917   3318761   3350316   3381619  
  5250.000000   3412721   3443485   3473786   3503332   3531992  
  5240.000000   3559564   3586110   3611606   3636248   3660047  
  5230.000000   3683162   3705503   3727114   3747812   3767602  
  5220.000000   3786327   3804077   3820798   3836676   3851720  
  5210.000000   3866110   3879786   3892809   3904998   3916336  
  5200.000000   3926639   3935972   3944279   3951741   3958375  
  5190.000000   3964355   3969637   3974302   3978242   3981507  
  5180.000000   3984013   3985854   3986991   3987528   3987413  
  5170.000000   3986713   3985364   3983439   3980919   3977921  
  5160.000000   3974463   3970663   3966510   3962067   3957282  
  5150.000000   3952196   3946771   3941061   3935054   3928802  
  5140.000000   3922286   3915543   3908554   3901371   3894010  
  5130.000000   3886546   3879001   3871426   3863805   3856137  
  5120.000000   3848382   3840539   3832599   3824598   3816558  
  5110.000000   3808519   3800490   3792479   3784473   3776475  
  5100.000000   3768483   3760521   3752604   3744753   3736965  
  5090.000000   3729235   3721538   3713860   3706183   3698509  
  5080.000000   3690831   3683153   3675460   3667744   3659988  
  5070.000000   3652191   3644356   3636501   3628632   3620756  
  5060.000000   3612853   3604899   3596857   3588713   3580462  
  5050.000000   3572130   3563752   3555377   3547033   3538743  
  5040.000000   3530503   3522307   3514140   3505995   3497873  
  5030.000000   3489776   3481709   3473669   3465660   3457675  
  5020.000000   3449729   3441830   3434019   3426321   3418783  
  5010.000000   3411424   3404277   3397336   3390618   3384100  
  5000.000000   3377792   3371666   3365738   3359983   3354430  
  4990.000000   3349066   3343937   3339041   3334434   3330110  
  4980.000000   3326115   3322424   3319069   3316016   3313300  
  4970.000000   3310900   3308864   3307178   3305889   3304964  
  4960.000000   3304429   3304230   3304384   3304839   3305627  
  4950.000000   3306715   3308150   3309905   3312027   3314483  
  4940.000000   3317312   3320479   3324020   3327900   3332152  
  4930.000000   3336729   3341654   3346872   3352403   3358199  
  4920.000000   3364288   3370636   3377276   3384176   3391360  
  4910.000000   3398796   3406500   3414442   3422635   3431047  
  4900.000000   3439679   3448491   3457467   3466565   3475772  
  4890.000000   3485063   3494433   3503869   3513359   3522875  
  4880.000000   3532379   3541826   3551168   3560372   3569406  
  4870.000000   3578262   3586926   3595403   3603679   3611760  
  4860.000000   3619632   3627309   3634786   3642087   3649211  
  4850.000000   3656186   3663008   3669706   3676273   3682742  
  4840.000000   3689113   3695416   3701642   3707809   3713889  
  4830.000000   3719880   3725743   3731467   3737013   3742375  
  4820.000000   3747520   3752450   3757147   3761627   3765886  
  4810.000000   3769955   3773839   3777569   3781142   3784579  
  4800.000000   3787870   3791038   3794078   3797021   3799868  
  4790.000000   3802648   3805355   3808000   3810564   3813054  
  4780.000000   3815451   3817772   3820009   3822177   3824261  
  4770.000000   3826260   3828138   3829884   3831459   3832862  
  4760.000000   3834074   3835116   3835984   3836707   3837277  
  4750.000000   3837713   3837990   3838107   3838026   3837737  
  4740.000000   3837198   3836411   3835356   3834066   3832555  
  4730.000000   3830879   3829070   3827178   3825213   3823194  
  4720.000000   3821107   3818951   3816711   3814396   3812009  
  4710.000000   3809577   3807113   3804641   3802166   3799696  
  4700.000000   3797224   3794747   3792254   3789742   3787202  
  4690.000000   3784634   3782039   3779425   3776802   3774181  
  4680.000000   3771568   3768958   3766338   3763680   3760958  
  4670.000000   3758145   3755238   3752247   3749216   3746192  
  4660.000000   3743236   3740394   3737706   3735182   3732830  
  4650.000000   3730635   3728594   3726690   3724923   3723281  
  4640.000000   3721766   3720361   3719066   3717865   3716760  
  4630.000000   3715738   3714802   3713937   3713138   3712381  
  4620.000000   3711652   3710930   3710209   3709477   3708742  
  4610.000000   3708000   3707262   3706526   3705801   3705088  
  4600.000000   3704404   3703759   3703174   3702660   3702226  
  4590.000000   3701873   3701594   3701376   3701208   3701074  
  4580.000000   3700962   3700858   3700743   3700601   3700412  
  4570.000000   3700166   3699856   3699483   3699053   3698573  
  4560.000000   3698043   3697461   3696819   3696111   3695335  
  4550.000000   3694495   3693605   3692678   3691732   3690772  
  4540.000000   3689808   3688832   3687859   3686886   3685946  
  4530.000000   3685050   3684250   3683564   3683053   3682729  
  4520.000000   3682659   3682850   3683367   3684205   3685420  
  4510.000000   3686986   3688953   3691286   3694051   3697227  
  4500.000000   3700912   3705111   3709941   3715412   3721630  
  4490.000000   3728578   3736330   3744833   3754120   3764108  
  4480.000000   3774799   3786094   3797983   3810369   3823240  
  4470.000000   3836506   3850147   3864076   3878260   3892609  
  4460.000000   3907087   3921616   3936162   3950665   3965096  
  4450.000000   3979413   3993585   4007593   4021419   4035072  
  4440.000000   4048549   4061884   4075070   4088144   4101080  
  4430.000000   4113910   4126585   4139138   4151500   4163692  
  4420.000000   4175614   4187258   4198484   4209257   4219416  
  4410.000000   4228921   4237615   4245470   4252355   4258266  
  4400.000000   4263116   4266950   4269745   4271606   4272575  
  4390.000000   4272793   4272337   4271351   4269916   4268170  
  4380.000000   4266205   4264163   4262163   4260356   4258874  
  4370.000000   4257849   4257384   4257548   4258387   4259893  
  4360.000000   4262054   4264804   4268097   4271839   4275971  
  4350.000000   4280403   4285086   4289960   4295014   4300231  
  4340.000000   4305627   4311193   4316909   4322699   4328440  
  4330.000000   4333950   4339021   4343452   4347088   4349871  
  4320.000000   4351839   4353154   4354031   4354738   4355485  
  4310.000000   4356455   4357700   4359236   4360972   4362836  
  4300.000000   4364707   4366528   4368217   4369749   4371067  
  4290.000000   4372147   4372944   4373443   4373635   4373549  
  4280.000000   4373219   4372714   4372079   4371384   4370652  
  4270.000000   4369930   4369217   4368532   4367843   4367129  
  4260.000000   4366315   4365332   4364085   4362508   4360550  
  4250.000000   4358226   4355584   4352733   4349789   4346884  
  4240.000000   4344112   4341546   4339199   4337062   4335087  
  4230.000000   4333224   4331410   4329597   4327735   4325789  
  4220.000000   4323734   4321553   4319255   4316852   4314389  
  4210.000000   4311904   4309457   4307087   4304836   4302718  
  4200.000000   4300748   4298912   4297208   4295607   4294108  
  4190.000000   4292677   4291325   4290021   4288793   4287626  
  4180.000000   4286575   4285651   4284942   4284482   4284388  
  4170.000000   4284708   4285564   4286989   4289076   4291807  
  4160.000000   4295222   4299242   4303865   4308987   4314615  
  4150.000000   4320672   4327207   4334180   4341671   4349651  
  4140.000000   4358201   4367282   4376958   4387177   4397988  
  4130.000000   4409325   4421216   4433586   4446452   4459741  
  4120.000000   4473479   4487614   4502189   4517176   4532623  
  4110.000000   4548507   4564864   4581659   4598898   4616525  
  4100.000000   4634513   4652788   4671309   4690007   4708854  
  4090.000000   4727810   4746865   4766003   4785212   4804481  
  4080.000000   4823790   4843134   4862488   4881858   4901215  
  4070.000000   4920562   4939849   4959073   4978165   4997131  
  4060.000000   5015898   5034480   5052783   5070799   5088397  
  4050.000000   5105558   5122147   5138184   5153565   5168350  
  4040.000000   5182435   5195866   5208495   5220343   5231253  
  4030.000000   5241272   5250276   5258334   5265330   5271302  
  4020.000000   5276085   5279718   5282127   5283415   5283538  
  4010.000000   5282707   5281043   5278651   5275347   5271274  
  4000.000000   5266813  
##END= 
