##TITLE= Sample 004 By ssteindl date Dienstag, November 20 2018
##JCAMP-DX= 4.24
##DATA TYPE= INFRARED SPECTRUM
##ORIGIN= Exported PE Spectrum Data File
##OWNER= Sandra Steindl
##DATE= 18/11/20
##TIME= 09:54:46.00
##SPECTROMETER/DATA SYSTEM= PERKIN-ELMER Frontier FT-IR/NIR IR
##INSTRUMENT PARAMETERS=
  APODIZATION=stark
  DETECTOR=INGAAS
##RESOLUTION= 16.000000
##DELTAX= -2.000000
##XUNITS= 1/CM
##YUNITS= A
##XFACTOR= 1.00
##YFACTOR= 0.00000011920928955078
##FIRSTX= 10000.00
##LASTX= 4000.00
##NPOINTS= 3001
##FIRSTY= 0.229177
##MAXY= 0.652523
##MINY= 0.200849
##XYDATA= (X++(Y..Y))
 10000.000000   1922472   1921070   1917813   1910718   1900636  
  9990.000000   1890321   1882038   1877036   1876145   1879596  
  9980.000000   1886263   1893998   1900615   1904475   1904854  
  9970.000000   1901964   1896942   1891188   1885855   1881466  
  9960.000000   1877900   1874683   1871435   1868225   1865657  
  9950.000000   1864638   1865921   1869670   1875231   1881208  
  9940.000000   1885909   1887797   1886091   1880876   1873177  
  9930.000000   1864540   1856679   1851050   1848603   1849713  
  9920.000000   1854185   1861385   1870316   1879826   1888662  
  9910.000000   1895775   1900346   1902083   1901175   1898329  
  9900.000000   1894605   1891098   1888743   1887935   1888487  
  9890.000000   1889571   1889930   1888256   1883547   1875590  
  9880.000000   1865049   1853506   1842975   1835433   1832163  
  9870.000000   1833386   1838187   1844772   1851097   1855413  
  9860.000000   1856811   1855303   1851696   1847152   1842805  
  9850.000000   1839440   1837484   1837055   1838172   1840775  
  9840.000000   1844700   1849554   1854619   1858967   1861668  
  9830.000000   1862132   1860358   1856922   1852823   1849001  
  9820.000000   1846070   1844046   1842541   1841030   1839212  
  9810.000000   1837247   1835642   1835114   1836137   1838819  
  9800.000000   1842761   1847284   1851699   1855517   1858609  
  9790.000000   1860985   1862692   1863543   1863191   1861277  
  9780.000000   1857732   1852991   1847987   1843936   1841935  
  9770.000000   1842616   1845893   1851057   1856927   1862298  
  9760.000000   1866133   1867874   1867400   1865071   1861533  
  9750.000000   1857652   1854292   1852185   1851710   1852772  
  9740.000000   1854733   1856545   1857000   1855120   1850467  
  9730.000000   1843333   1834634   1825619   1817456   1810869  
  9720.000000   1806034   1802634   1800176   1798226   1796627  
  9710.000000   1795462   1794928   1795143   1796010   1797249  
  9700.000000   1798518   1799580   1800440   1801286   1802431  
  9690.000000   1804060   1806193   1808583   1810850   1812553  
  9680.000000   1813340   1812971   1811400   1808733   1805275  
  9670.000000   1801464   1797847   1794948   1793150   1792570  
  9660.000000   1793030   1794104   1795298   1796244   1796836  
  9650.000000   1797299   1798018   1799397   1801598   1804514  
  9640.000000   1807824   1811176   1814383   1817438   1820452  
  9630.000000   1823403   1826001   1827651   1827660   1825550  
  9620.000000   1821343   1815705   1809756   1804770   1801677  
  9610.000000   1800827   1801862   1803980   1806239   1807941  
  9600.000000   1808778   1808804   1808215   1807131   1805500  
  9590.000000   1803184   1800183   1796810   1793721   1791714  
  9580.000000   1791398   1792907   1795756   1799033   1801691  
  9570.000000   1802976   1802638   1800948   1798505   1795865  
  9560.000000   1793360   1790915   1788274   1785122   1781423  
  9550.000000   1777410   1773591   1770504   1768533   1767824  
  9540.000000   1768258   1769660   1771844   1774778   1778473  
  9530.000000   1782936   1788030   1793438   1798709   1803339  
  9520.000000   1806908   1809099   1809761   1808831   1806396  
  9510.000000   1802639   1797919   1792730   1787653   1783252  
  9500.000000   1779898   1777722   1776533   1775976   1775643  
  9490.000000   1775300   1774942   1774790   1775119   1776093  
  9480.000000   1777638   1779470   1781196   1782508   1783294  
  9470.000000   1783709   1784088   1784805   1786090   1787899  
  9460.000000   1789888   1791490   1792069   1791094   1788273  
  9450.000000   1783626   1777488   1770475   1763377   1757030  
  9440.000000   1752126   1749052   1747783   1747885   1748672  
  9430.000000   1749389   1749473   1748680   1747136   1745248  
  9420.000000   1743542   1742466   1742303   1743121   1744892  
  9410.000000   1747514   1750894   1754861   1759127   1763233  
  9400.000000   1766595   1768643   1769019   1767723   1765192  
  9390.000000   1762140   1759352   1757376   1756368   1756093  
  9380.000000   1756045   1755723   1754797   1753298   1751559  
  9370.000000   1750094   1749350   1749541   1750561   1752066  
  9360.000000   1753585   1754679   1755040   1754571   1753413  
  9350.000000   1751919   1750560   1749796   1749926   1750991  
  9340.000000   1752708   1754520   1755712   1755630   1753918  
  9330.000000   1750681   1746494   1742206   1738657   1736384  
  9320.000000   1735464   1735498   1735788   1735624   1734566  
  9310.000000   1732636   1730257   1728108   1726816   1726785  
  9300.000000   1728068   1730372   1733194   1735918   1738031  
  9290.000000   1739134   1739051   1737752   1735380   1732218  
  9280.000000   1728687   1725308   1722614   1721026   1720750  
  9270.000000   1721728   1723663   1726089   1728472   1730355  
  9260.000000   1731452   1731694   1731218   1730267   1729171  
  9250.000000   1728236   1727763   1727927   1728788   1730253  
  9240.000000   1732102   1734068   1735845   1737240   1738182  
  9230.000000   1738821   1739433   1740331   1741714   1743567  
  9220.000000   1745636   1747446   1748413   1748042   1746106  
  9210.000000   1742760   1738511   1734120   1730393   1727986  
  9200.000000   1727189   1727870   1729480   1731276   1732518  
  9190.000000   1732709   1731703   1729771   1727475   1725470  
  9180.000000   1724261   1724041   1724687   1725786   1726828  
  9170.000000   1727338   1727068   1726010   1724367   1722434  
  9160.000000   1720485   1718723   1717260   1716140   1715382  
  9150.000000   1714989   1714979   1715335   1715984   1716791  
  9140.000000   1717570   1718148   1718406   1718326   1718001  
  9130.000000   1717580   1717235   1717069   1717120   1717330  
  9120.000000   1717586   1717755   1717719   1717432   1716897  
  9110.000000   1716208   1715476   1714876   1714550   1714622  
  9100.000000   1715108   1715934   1716913   1717750   1718105  
  9090.000000   1717649   1716194   1713679   1710229   1706093  
  9080.000000   1701656   1697331   1693494   1690448   1688383  
  9070.000000   1687425   1687581   1688808   1690943   1693788  
  9060.000000   1697056   1700418   1703518   1706017   1707689  
  9050.000000   1708369   1708026   1706679   1704478   1701597  
  9040.000000   1698277   1694776   1691407   1688496   1686322  
  9030.000000   1685088   1684840   1685490   1686769   1688344  
  9020.000000   1689868   1691093   1691924   1692415   1692750  
  9010.000000   1693127   1693716   1694552   1695578   1696635  
  9000.000000   1697560   1698218   1698560   1698621   1698499  
  8990.000000   1698329   1698233   1698312   1698608   1699120  
  8980.000000   1699774   1700457   1701011   1701298   1701225  
  8970.000000   1700800   1700122   1699368   1698719   1698290  
  8960.000000   1698073   1697937   1697678   1697108   1696135  
  8950.000000   1694826   1693375   1692046   1691057   1690515  
  8940.000000   1690395   1690555   1690826   1691057   1691172  
  8930.000000   1691139   1690952   1690585   1690023   1689271  
  8920.000000   1688437   1687710   1687374   1687674   1688738  
  8910.000000   1690466   1692528   1694468   1695857   1696492  
  8900.000000   1696467   1696171   1696143   1696871   1698607  
  8890.000000   1701233   1704292   1707112   1709030   1709583  
  8880.000000   1708629   1706373   1703303   1700063   1697301  
  8870.000000   1695534   1695024   1695756   1697429   1699556  
  8860.000000   1701549   1702896   1703290   1702737   1701561  
  8850.000000   1700277   1699444   1699420   1700273   1701714  
  8840.000000   1703245   1704319   1704588   1704034   1703004  
  8830.000000   1702087   1701893   1702834   1704965   1707975  
  8820.000000   1711289   1714263   1716384   1717420   1717466  
  8810.000000   1716885   1716166   1715769   1715990   1716887  
  8800.000000   1718305   1719917   1721346   1722250   1722411  
  8790.000000   1721792   1720517   1718887   1717258   1716026  
  8780.000000   1715481   1715800   1716973   1718824   1721042  
  8770.000000   1723224   1724983   1725978   1726014   1725017  
  8760.000000   1723081   1720412   1717329   1714197   1711407  
  8750.000000   1709311   1708197   1708251   1709517   1711897  
  8740.000000   1715113   1718769   1722401   1725577   1728005  
  8730.000000   1729559   1730348   1730600   1730650   1730751  
  8720.000000   1731055   1731534   1732072   1732521   1732832  
  8710.000000   1733095   1733519   1734364   1735796   1737830  
  8700.000000   1740264   1742773   1745001   1746716   1747891  
  8690.000000   1748712   1749512   1750615   1752218   1754293  
  8680.000000   1756605   1758780   1760456   1761376   1761487  
  8670.000000   1760926   1759982   1759008   1758337   1758222  
  8660.000000   1758791   1760048   1761873   1764080   1766440  
  8650.000000   1768754   1770864   1772721   1774364   1775910  
  8640.000000   1777488   1779169   1780947   1782680   1784166  
  8630.000000   1785160   1785510   1785161   1784213   1782887  
  8620.000000   1781492   1780358   1779750   1779855   1780729  
  8610.000000   1782352   1784606   1787349   1790412   1793643  
  8600.000000   1796900   1800049   1802968   1805524   1807612  
  8590.000000   1809129   1810036   1810357   1810220   1809835  
  8580.000000   1809455   1809339   1809672   1810551   1811941  
  8570.000000   1813723   1815720   1817752   1819657   1821300  
  8560.000000   1822563   1823350   1823600   1823334   1822696  
  8550.000000   1821960   1821510   1821729   1822901   1825087  
  8540.000000   1828078   1831427   1834561   1836969   1838356  
  8530.000000   1838733   1838398   1837839   1837583   1838029  
  8520.000000   1839343   1841431   1843998   1846646   1848986  
  8510.000000   1850733   1851757   1852097   1851913   1851459  
  8500.000000   1851008   1850802   1850987   1851597   1852555  
  8490.000000   1853715   1854901   1855979   1856890   1857665  
  8480.000000   1858380   1859110   1859878   1860625   1861238  
  8470.000000   1861595   1861652   1861462   1861191   1861063  
  8460.000000   1861291   1861996   1863166   1864663   1866278  
  8450.000000   1867805   1869098   1870115   1870906   1871589  
  8440.000000   1872296   1873135   1874172   1875416   1876821  
  8430.000000   1878302   1879739   1881008   1881983   1882604  
  8420.000000   1882871   1882892   1882827   1882872   1883170  
  8410.000000   1883769   1884572   1885376   1885922   1885997  
  8400.000000   1885499   1884482   1883134   1881722   1880491  
  8390.000000   1879607   1879098   1878887   1878834   1878811  
  8380.000000   1878753   1878674   1878653   1878776   1879090  
  8370.000000   1879560   1880080   1880497   1880685   1880572  
  8360.000000   1880188   1879644   1879111   1878772   1878760  
  8350.000000   1879142   1879899   1880954   1882181   1883435  
  8340.000000   1884565   1885437   1885940   1886006   1885619  
  8330.000000   1884829   1883769   1882623   1881600   1880868  
  8320.000000   1880514   1880520   1880746   1881005   1881098  
  8310.000000   1880927   1880513   1880012   1879644   1879628  
  8300.000000   1880081   1880971   1882098   1883157   1883834  
  8290.000000   1883908   1883326   1882214   1880834   1879494  
  8280.000000   1878440   1877776   1877436   1877232   1876922  
  8270.000000   1876325   1875373   1874157   1872873   1871771  
  8260.000000   1871028   1870717   1870756   1870963   1871116  
  8250.000000   1871033   1870637   1869955   1869093   1868172  
  8240.000000   1867264   1866372   1865429   1864349   1863080  
  8230.000000   1861654   1860194   1858885   1857897   1857328  
  8220.000000   1857142   1857186   1857213   1856963   1856237  
  8210.000000   1854962   1853216   1851201   1849187   1847430  
  8200.000000   1846101   1845248   1844786   1844539   1844281  
  8190.000000   1843817   1843028   1841914   1840571   1839164  
  8180.000000   1837863   1836786   1835969   1835352   1834812  
  8170.000000   1834196   1833384   1832321   1831036   1829633  
  8160.000000   1828245   1827010   1826013   1825293   1824827  
  8150.000000   1824552   1824385   1824228   1823993   1823588  
  8140.000000   1822940   1821990   1820721   1819167   1817422  
  8130.000000   1815633   1813968   1812585   1811588   1811014  
  8120.000000   1810812   1810873   1811053   1811211   1811235  
  8110.000000   1811058   1810654   1810021   1809179   1808148  
  8100.000000   1806966   1805677   1804357   1803093   1801983  
  8090.000000   1801102   1800475   1800071   1799791   1799516  
  8080.000000   1799132   1798584   1797886   1797127   1796418  
  8070.000000   1795856   1795468   1795204   1794946   1794553  
  8060.000000   1793921   1793012   1791880   1790628   1789365  
  8050.000000   1788149   1786964   1785735   1784371   1782830  
  8040.000000   1781162   1779512   1778084   1777067   1776561  
  8030.000000   1776527   1776790   1777089   1777164   1776832  
  8020.000000   1776055   1774935   1773685   1772544   1771720  
  8010.000000   1771316   1771322   1771621   1772040   1772390  
  8000.000000   1772527   1772370   1771917   1771229   1770404  
  7990.000000   1769552   1768765   1768108   1767613   1767287  
  7980.000000   1767125   1767122   1767267   1767548   1767926  
  7970.000000   1768337   1768686   1768872   1768809   1768459  
  7960.000000   1767851   1767075   1766258   1765528   1764973  
  7950.000000   1764619   1764427   1764317   1764190   1763969  
  7940.000000   1763606   1763101   1762481   1761798   1761111  
  7930.000000   1760478   1759949   1759550   1759287   1759121  
  7920.000000   1758986   1758797   1758483   1758018   1757442  
  7910.000000   1756865   1756428   1756266   1756450   1756956  
  7900.000000   1757667   1758398   1758959   1759201   1759061  
  7890.000000   1758552   1757764   1756805   1755786   1754777  
  7880.000000   1753824   1752945   1752154   1751474   1750939  
  7870.000000   1750593   1750476   1750622   1751042   1751723  
  7860.000000   1752613   1753625   1754640   1755523   1756158  
  7850.000000   1756473   1756472   1756227   1755864   1755510  
  7840.000000   1755250   1755090   1754956   1754735   1754318  
  7830.000000   1753665   1752819   1751917   1751126   1750606  
  7820.000000   1750433   1750596   1750989   1751457   1751840  
  7810.000000   1752012   1751908   1751519   1750883   1750069  
  7800.000000   1749166   1748273   1747493   1746922   1746624  
  7790.000000   1746623   1746874   1747287   1747732   1748092  
  7780.000000   1748282   1748280   1748110   1747827   1747477  
  7770.000000   1747073   1746593   1745990   1745228   1744307  
  7760.000000   1743274   1742221   1741246   1740440   1739842  
  7750.000000   1739453   1739229   1739113   1739047   1738975  
  7740.000000   1738848   1738607   1738188   1737527   1736590  
  7730.000000   1735396   1734039   1732678   1731510   1730719  
  7720.000000   1730417   1730611   1731188   1731949   1732658  
  7710.000000   1733103   1733149   1732763   1732011   1731027  
  7700.000000   1729974   1728999   1728206   1727640   1727291  
  7690.000000   1727108   1727017   1726948   1726844   1726680  
  7680.000000   1726456   1726195   1725923   1725660   1725408  
  7670.000000   1725152   1724871   1724556   1724225   1723920  
  7660.000000   1723708   1723641   1723739   1723959   1724206  
  7650.000000   1724345   1724260   1723891   1723263   1722495  
  7640.000000   1721762   1721251   1721101   1721367   1722003  
  7630.000000   1722880   1723829   1724678   1725301   1725622  
  7620.000000   1725626   1725341   1724831   1724184   1723510  
  7610.000000   1722931   1722572   1722533   1722865   1723547  
  7600.000000   1724485   1725531   1726512   1727272   1727710  
  7590.000000   1727793   1727571   1727144   1726651   1726222  
  7580.000000   1725970   1725961   1726223   1726739   1727459  
  7570.000000   1728313   1729218   1730100   1730902   1731594  
  7560.000000   1732179   1732675   1733118   1733536   1733962  
  7550.000000   1734404   1734876   1735376   1735905   1736461  
  7540.000000   1737044   1737652   1738292   1738976   1739733  
  7530.000000   1740592   1741588   1742728   1743998   1745344  
  7520.000000   1746698   1747983   1749155   1750208   1751190  
  7510.000000   1752170   1753229   1754411   1755725   1757118  
  7500.000000   1758519   1759843   1761034   1762076   1763002  
  7490.000000   1763877   1764789   1765831   1767087   1768607  
  7480.000000   1770408   1772450   1774645   1776857   1778933  
  7470.000000   1780732   1782176   1783270   1784120   1784897  
  7460.000000   1785800   1786983   1788528   1790399   1792477  
  7450.000000   1794591   1796586   1798368   1799929   1801338  
  7440.000000   1802721   1804204   1805878   1807770   1809852  
  7430.000000   1812056   1814301   1816522   1818695   1820828  
  7420.000000   1822956   1825111   1827302   1829499   1831638  
  7410.000000   1833638   1835431   1836991   1838357   1839622  
  7400.000000   1840914   1842359   1844032   1845950   1848055  
  7390.000000   1850253   1852436   1854528   1856501   1858363  
  7380.000000   1860148   1861872   1863537   1865107   1866547  
  7370.000000   1867836   1869001   1870114   1871284   1872629  
  7360.000000   1874242   1876179   1878435   1880969   1883699  
  7350.000000   1886529   1889347   1892032   1894477   1896589  
  7340.000000   1898331   1899713   1900814   1901750   1902651  
  7330.000000   1903630   1904753   1906044   1907486   1909059  
  7320.000000   1910745   1912563   1914529   1916663   1918932  
  7310.000000   1921263   1923537   1925628   1927443   1928945  
  7300.000000   1930168   1931184   1932083   1932927   1933735  
  7290.000000   1934493   1935167   1935748   1936261   1936775  
  7280.000000   1937380   1938159   1939156   1940359   1941699  
  7270.000000   1943070   1944365   1945505   1946467   1947278  
  7260.000000   1948016   1948773   1949645   1950687   1951918  
  7250.000000   1953300   1954771   1956241   1957646   1958939  
  7240.000000   1960140   1961301   1962525   1963912   1965559  
  7230.000000   1967502   1969745   1972220   1974850   1977529  
  7220.000000   1980190   1982784   1985330   1987870   1990499  
  7210.000000   1993292   1996321   1999595   2003088   2006713  
  7200.000000   2010383   2014009   2017568   2021079   2024623  
  7190.000000   2028288   2032154   2036231   2040476   2044764  
  7180.000000   2048972   2052979   2056752   2060317   2063789  
  7170.000000   2067295   2070971   2074893   2079101   2083564  
  7160.000000   2088243   2093078   2098040   2103097   2108245  
  7150.000000   2113456   2118719   2123997   2129292   2134602  
  7140.000000   2139978   2145463   2151124   2156977   2163032  
  7130.000000   2169238   2175549   2181891   2188230   2194539  
  7120.000000   2200846   2207182   2213615   2220191   2226965  
  7110.000000   2233947   2241141   2248511   2256018   2263598  
  7100.000000   2271210   2278806   2286374   2293907   2301419  
  7090.000000   2308916   2316408   2323887   2331351   2338788  
  7080.000000   2346202   2353596   2360983   2368370   2375763  
  7070.000000   2383160   2390562   2397969   2405387   2412821  
  7060.000000   2420272   2427722   2435147   2442513   2449802  
  7050.000000   2457014   2464177   2471341   2478553   2485848  
  7040.000000   2493227   2500669   2508135   2515596   2523031  
  7030.000000   2530442   2537822   2545159   2552402   2559492  
  7020.000000   2566358   2572970   2579338   2585532   2591645  
  7010.000000   2597777   2603980   2610261   2616563   2622816  
  7000.000000   2628938   2634894   2640669   2646295   2651798  
  6990.000000   2657215   2662557   2667845   2673080   2678293  
  6980.000000   2683494   2688705   2693903   2699055   2704093  
  6970.000000   2708961   2713605   2718021   2722215   2726229  
  6960.000000   2730088   2733821   2737429   2740932   2744342  
  6950.000000   2747710   2751078   2754498   2757974   2761486  
  6940.000000   2764960   2768324   2771504   2774481   2777263  
  6930.000000   2779909   2782473   2785006   2787514   2789986  
  6920.000000   2792383   2794680   2796860   2798939   2800939  
  6910.000000   2802892   2804810   2806695   2808522   2810272  
  6900.000000   2811919   2813468   2814934   2816362   2817801  
  6890.000000   2819306   2820905   2822606   2824372   2826143  
  6880.000000   2827841   2829398   2830772   2831965   2833016  
  6870.000000   2833988   2834944   2835926   2836948   2838002  
  6860.000000   2839072   2840156   2841266   2842432   2843674  
  6850.000000   2844997   2846368   2847737   2849041   2850239  
  6840.000000   2851315   2852281   2853155   2853943   2854628  
  6830.000000   2855181   2855575   2855824   2855986   2856173  
  6820.000000   2856502   2857077   2857922   2858997   2860182  
  6810.000000   2861342   2862343   2863110   2863618   2863901  
  6800.000000   2864013   2864021   2863975   2863921   2863891  
  6790.000000   2863918   2864015   2864186   2864392   2864585  
  6780.000000   2864690   2864655   2864451   2864097   2863639  
  6770.000000   2863136   2862623   2862107   2861556   2860925  
  6760.000000   2860179   2859318   2858383   2857453   2856610  
  6750.000000   2855924   2855419   2855077   2854839   2854631  
  6740.000000   2854381   2854041   2853595   2853060   2852477  
  6730.000000   2851897   2851356   2850869   2850413   2849938  
  6720.000000   2849387   2848716   2847919   2847042   2846162  
  6710.000000   2845369   2844718   2844217   2843808   2843396  
  6700.000000   2842876   2842180   2841293   2840261   2839159  
  6690.000000   2838065   2837022   2836037   2835079   2834109  
  6680.000000   2833101   2832051   2830971   2829875   2828763  
  6670.000000   2827619   2826414   2825134   2823785   2822410  
  6660.000000   2821060   2819796   2818644   2817609   2816655  
  6650.000000   2815746   2814835   2813899   2812908   2811841  
  6640.000000   2810661   2809331   2807819   2806120   2804262  
  6630.000000   2802306   2800321   2798363   2796451   2794571  
  6620.000000   2792681   2790758   2788803   2786868   2785024  
  6610.000000   2783347   2781869   2780572   2779382   2778202  
  6600.000000   2776938   2775528   2773960   2772253   2770448  
  6590.000000   2768581   2766681   2764764   2762846   2760946  
  6580.000000   2759088   2757292   2755567   2753902   2752277  
  6570.000000   2750669   2749063   2747464   2745888   2744355  
  6560.000000   2742880   2741461   2740089   2738749   2737440  
  6550.000000   2736168   2734946   2733778   2732653   2731532  
  6540.000000   2730374   2729139   2727820   2726437   2725040  
  6530.000000   2723685   2722415   2721239   2720143   2719087  
  6520.000000   2718034   2716960   2715863   2714760   2713682  
  6510.000000   2712659   2711718   2710877   2710152   2709538  
  6500.000000   2709019   2708548   2708062   2707483   2706751  
  6490.000000   2705835   2704756   2703583   2702411   2701330  
  6480.000000   2700399   2699626   2698975   2698388   2697805  
  6470.000000   2697189   2696527   2695822   2695079   2694294  
  6460.000000   2693457   2692559   2691607   2690636   2689698  
  6450.000000   2688852   2688140   2687569   2687111   2686709  
  6440.000000   2686298   2685822   2685247   2684560   2683765  
  6430.000000   2682873   2681902   2680871   2679811   2678757  
  6420.000000   2677753   2676835   2676026   2675329   2674732  
  6410.000000   2674213   2673753   2673344   2672986   2672681  
  6400.000000   2672428   2672209   2671999   2671767   2671489  
  6390.000000   2671151   2670758   2670321   2669858   2669386  
  6380.000000   2668922   2668482   2668082   2667740   2667465  
  6370.000000   2667255   2667091   2666944   2666782   2666587  
  6360.000000   2666357   2666110   2665869   2665650   2665445  
  6350.000000   2665228   2664956   2664594   2664118   2663538  
  6340.000000   2662876   2662164   2661420   2660652   2659846  
  6330.000000   2658991   2658077   2657117   2656131   2655148  
  6320.000000   2654184   2653245   2652316   2651382   2650424  
  6310.000000   2649441   2648435   2647419   2646397   2645372  
  6300.000000   2644340   2643303   2642267   2641246   2640245  
  6290.000000   2639256   2638246   2637166   2635960   2634594  
  6280.000000   2633062   2631402   2629678   2627966   2626315  
  6270.000000   2624747   2623242   2621757   2620239   2618653  
  6260.000000   2616980   2615230   2613417   2611568   2609701  
  6250.000000   2607833   2605975   2604142   2602337   2600561  
  6240.000000   2598797   2597022   2595208   2593337   2591408  
  6230.000000   2589442   2587469   2585521   2583616   2581754  
  6220.000000   2579919   2578092   2576261   2574429   2572611  
  6210.000000   2570826   2569079   2567364   2565657   2563929  
  6200.000000   2562161   2560353   2558521   2556692   2554890  
  6190.000000   2553127   2551399   2549692   2547989   2546281  
  6180.000000   2544567   2542855   2541152   2539458   2537769  
  6170.000000   2536075   2534370   2532655   2530938   2529230  
  6160.000000   2527543   2525881   2524244   2522625   2521023  
  6150.000000   2519435   2517866   2516316   2514783   2513260  
  6140.000000   2511736   2510203   2508662   2507119   2505590  
  6130.000000   2504087   2502620   2501192   2499799   2498436  
  6120.000000   2497102   2495793   2494511   2493248   2491996  
  6110.000000   2490743   2489484   2488225   2486989   2485806  
  6100.000000   2484710   2483716   2482823   2482003   2481223  
  6090.000000   2480446   2479659   2478866   2478098   2477382  
  6080.000000   2476745   2476186   2475695   2475239   2474794  
  6070.000000   2474337   2473873   2473409   2472972   2472579  
  6060.000000   2472253   2471997   2471821   2471715   2471680  
  6050.000000   2471698   2471764   2471863   2472002   2472187  
  6040.000000   2472447   2472810   2473308   2473948   2474727  
  6030.000000   2475608   2476556   2477522   2478487   2479440  
  6020.000000   2480405   2481401   2482459   2483588   2484790  
  6010.000000   2486047   2487349   2488678   2490038   2491428  
  6000.000000   2492864   2494348   2495888   2497470   2499090  
  5990.000000   2500724   2502364   2503992   2505616   2507238  
  5980.000000   2508890   2510600   2512416   2514370   2516494  
  5970.000000   2518790   2521248   2523834   2526521   2529272  
  5960.000000   2532078   2534928   2537831   2540784   2543788  
  5950.000000   2546822   2549871   2552912   2555935   2558933  
  5940.000000   2561910   2564871   2567823   2570773   2573727  
  5930.000000   2576703   2579713   2582776   2585895   2589059  
  5920.000000   2592233   2595373   2598427   2601360   2604153  
  5910.000000   2606813   2609354   2611794   2614140   2616394  
  5900.000000   2618550   2620618   2622622   2624610   2626635  
  5890.000000   2628750   2630976   2633314   2635728   2638173  
  5880.000000   2640598   2642968   2645264   2647478   2649614  
  5870.000000   2651670   2653657   2655580   2657468   2659352  
  5860.000000   2661284   2663303   2665445   2667721   2670129  
  5850.000000   2672649   2675264   2677954   2680712   2683527  
  5840.000000   2686397   2689308   2692251   2695215   2698193  
  5830.000000   2701181   2704173   2707158   2710114   2713013  
  5820.000000   2715829   2718551   2721178   2723735   2726240  
  5810.000000   2728715   2731145   2733512   2735761   2737865  
  5800.000000   2739791   2741559   2743183   2744711   2746152  
  5790.000000   2747522   2748786   2749922   2750875   2751626  
  5780.000000   2752140   2752412   2752418   2752155   2751613  
  5770.000000   2750816   2749799   2748639   2747410   2746195  
  5760.000000   2745039   2743966   2742959   2741997   2741060  
  5750.000000   2740152   2739293   2738518   2737851   2737300  
  5740.000000   2736850   2736469   2736129   2735807   2735504  
  5730.000000   2735224   2734982   2734776   2734604   2734450  
  5720.000000   2734311   2734187   2734097   2734057   2734090  
  5710.000000   2734198   2734377   2734610   2734886   2735197  
  5700.000000   2735545   2735932   2736356   2736807   2737261  
  5690.000000   2737700   2738107   2738480   2738826   2739154  
  5680.000000   2739460   2739727   2739919   2740001   2739938  
  5670.000000   2739720   2739350   2738850   2738239   2737539  
  5660.000000   2736755   2735901   2734987   2734041   2733090  
  5650.000000   2732167   2731286   2730450   2729637   2728824  
  5640.000000   2727988   2727127   2726253   2725392   2724564  
  5630.000000   2723781   2723039   2722321   2721610   2720892  
  5620.000000   2720162   2719424   2718681   2717936   2717186  
  5610.000000   2716431   2715676   2714933   2714222   2713556  
  5600.000000   2712936   2712348   2711761   2711142   2710463  
  5590.000000   2709714   2708900   2708041   2707153   2706246  
  5580.000000   2705318   2704367   2703384   2702375   2701346  
  5570.000000   2700312   2699273   2698224   2697144   2696017  
  5560.000000   2694827   2693578   2692280   2690957   2689623  
  5550.000000   2688289   2686951   2685604   2684243   2682874  
  5540.000000   2681507   2680157   2678828   2677515   2676202  
  5530.000000   2674874   2673525   2672165   2670816   2669507  
  5520.000000   2668258   2667075   2665948   2664851   2663760  
  5510.000000   2662653   2661516   2660342   2659129   2657874  
  5500.000000   2656579   2655253   2653915   2652597   2651326  
  5490.000000   2650124   2648982   2647874   2646750   2645564  
  5480.000000   2644277   2642881   2641385   2639816   2638198  
  5470.000000   2636550   2634869   2633151   2631388   2629583  
  5460.000000   2627740   2625872   2623981   2622066   2620115  
  5450.000000   2618126   2616101   2614063   2612042   2610069  
  5440.000000   2608167   2606335   2604566   2602837   2601144  
  5430.000000   2599479   2597854   2596269   2594729   2593219  
  5420.000000   2591740   2590289   2588904   2587625   2586517  
  5410.000000   2585607   2584911   2584387   2583990   2583656  
  5400.000000   2583367   2583112   2582938   2582876   2582978  
  5390.000000   2583242   2583671   2584225   2584902   2585686  
  5380.000000   2586613   2587698   2588984   2590455   2592118  
  5370.000000   2593923   2595872   2597930   2600141   2602506  
  5360.000000   2605098   2607920   2611040   2614449   2618211  
  5350.000000   2622317   2626835   2631743   2637089   2642817  
  5340.000000   2648956   2655440   2662326   2669579   2677292  
  5330.000000   2685440   2694107   2703242   2712905   2723033  
  5320.000000   2733709   2744906   2756754   2769247   2782519  
  5310.000000   2796532   2811381   2826983   2843408   2860577  
  5300.000000   2878580   2897374   2917081   2937677   2959281  
  5290.000000   2981841   3005408   3029850   3055126   3081055  
  5280.000000   3107590   3134626   3162231   3190435   3219388  
  5270.000000   3249128   3279683   3310909   3342606   3374503  
  5260.000000   3406374   3438084   3469602   3500998   3532325  
  5250.000000   3563622   3594775   3625642   3655947   3685533  
  5240.000000   3714207   3742008   3768926   3795144   3820685  
  5230.000000   3845687   3870057   3893803   3916731   3938817  
  5220.000000   3959902   3980059   3999242   4017622   4035206  
  5210.000000   4052156   4068409   4084021   4098828   4112826  
  5200.000000   4125860   4138006   4149222   4159680   4169386  
  5190.000000   4178489   4186928   4194762   4201866   4208277  
  5180.000000   4213899   4218817   4222990   4226527   4229390  
  5170.000000   4231670   4233324   4234441   4234999   4235099  
  5160.000000   4234718   4233927   4232664   4230964   4228764  
  5150.000000   4226123   4223032   4219593   4215824   4211802  
  5140.000000   4207501   4202945   4198087   4192956   4187549  
  5130.000000   4181943   4176170   4170303   4164349   4158329  
  5120.000000   4152219   4146028   4139750   4133426   4127076  
  5110.000000   4120744   4114431   4108147   4101870   4095596  
  5100.000000   4089313   4083037   4076769   4070524   4064288  
  5090.000000   4058053   4051788   4045486   4039129   4032733  
  5080.000000   4026292   4019813   4013267   4006631   3999854  
  5070.000000   3992909   3985763   3978422   3970885   3963184  
  5060.000000   3955327   3947345   3939245   3931058   3922798  
  5050.000000   3914503   3906189   3897884   3889586   3881304  
  5040.000000   3873021   3864737   3856443   3848145   3839841  
  5030.000000   3831533   3823209   3814858   3806466   3798029  
  5020.000000   3789561   3781082   3772630   3764235   3755930  
  5010.000000   3747726   3739639   3731663   3723813   3716086  
  5000.000000   3708511   3701090   3693861   3686820   3680007  
  4990.000000   3673415   3667089   3661027   3655279   3649839  
  4980.000000   3644747   3639981   3635571   3631485   3627759  
  4970.000000   3624366   3621349   3618680   3616392   3614434  
  4960.000000   3612820   3611488   3610456   3609680   3609206  
  4950.000000   3609013   3609159   3609620   3610437   3611568  
  4940.000000   3613038   3614803   3616897   3619293   3622041  
  4930.000000   3625118   3628573   3632372   3636548   3641058  
  4920.000000   3645926   3651105   3656616   3662415   3668518  
  4910.000000   3674886   3681539   3688442   3695619   3703042  
  4900.000000   3710724   3718635   3726772   3735100   3743610  
  4890.000000   3752270   3761065   3769963   3778938   3787947  
  4880.000000   3796944   3805884   3814715   3823401   3831898  
  4870.000000   3840181   3848214   3855983   3863460   3870652  
  4860.000000   3877553   3884197   3890599   3896804   3902822  
  4850.000000   3908690   3914405   3919995   3925458   3930832  
  4840.000000   3936122   3941369   3946571   3951751   3956881  
  4830.000000   3961959   3966946   3971831   3976576   3981171  
  4820.000000   3985582   3989800   3993796   3997573   4001123  
  4810.000000   4004471   4007636   4010664   4013583   4016440  
  4800.000000   4019259   4022074   4024895   4027742   4030605  
  4790.000000   4033482   4036341   4039162   4041910   4044573  
  4780.000000   4047138   4049623   4052038   4054413   4056752  
  4770.000000   4059067   4061338   4063558   4065697   4067752  
  4760.000000   4069699   4071540   4073252   4074831   4076247  
  4750.000000   4077493   4078541   4079395   4080040   4080494  
  4740.000000   4080750   4080827   4080721   4080455   4080035  
  4730.000000   4079496   4078853   4078139   4077358   4076523  
  4720.000000   4075617   4074636   4073562   4072404   4071168  
  4710.000000   4069883   4068566   4067244   4065922   4064608  
  4700.000000   4063294   4061978   4060655   4059330   4058001  
  4690.000000   4056673   4055338   4053990   4052615   4051204  
  4680.000000   4049749   4048249   4046709   4045130   4043523  
  4670.000000   4041888   4040239   4038582   4036945   4035347  
  4660.000000   4033825   4032402   4031111   4029962   4028976  
  4650.000000   4028154   4027512   4027053   4026795   4026738  
  4640.000000   4026890   4027234   4027756   4028419   4029195  
  4630.000000   4030039   4030923   4031812   4032685   4033517  
  4620.000000   4034297   4035009   4035649   4036208   4036685  
  4610.000000   4037077   4037386   4037615   4037773   4037877  
  4600.000000   4037946   4038009   4038092   4038222   4038413  
  4590.000000   4038677   4039008   4039395   4039815   4040247  
  4580.000000   4040661   4041036   4041348   4041585   4041738  
  4570.000000   4041809   4041802   4041726   4041585   4041382  
  4560.000000   4041110   4040767   4040342   4039838   4039255  
  4550.000000   4038611   4037921   4037211   4036498   4035800  
  4540.000000   4035126   4034478   4033857   4033251   4032655  
  4530.000000   4032049   4031438   4030811   4030203   4029625  
  4520.000000   4029146   4028793   4028647   4028718   4029073  
  4510.000000   4029697   4030655   4031932   4033620   4035737  
  4500.000000   4038407   4041672   4045659   4050405   4056012  
  4490.000000   4062487   4069890   4078174   4087323   4097203  
  4480.000000   4107697   4118586   4129702   4140827   4151845  
  4470.000000   4162641   4173215   4183569   4193779   4203884  
  4460.000000   4213940   4223952   4233917   4243801   4253575  
  4450.000000   4263213   4272711   4282087   4291373   4300626  
  4440.000000   4309897   4319249   4328718   4338349   4348147  
  4430.000000   4358129   4368269   4378565   4388968   4399463  
  4420.000000   4409977   4420473   4430848   4441043   4450936  
  4410.000000   4460460   4469502   4478017   4485919   4493198  
  4400.000000   4499799   4505739   4510988   4515589   4519545  
  4390.000000   4522935   4525806   4528273   4530413   4532349  
  4380.000000   4534150   4535915   4537687   4539537   4541501  
  4370.000000   4543646   4546017   4548672   4551642   4554938  
  4360.000000   4558537   4562389   4566420   4570557   4574723  
  4350.000000   4578879   4582992   4587080   4591156   4595274  
  4340.000000   4599449   4603710   4608006   4612266   4616320  
  4330.000000   4619974   4622977   4625114   4626211   4626220  
  4320.000000   4625204   4623375   4621011   4618454   4615990  
  4310.000000   4613866   4612190   4611008   4610255   4609847  
  4300.000000   4609663   4609611   4609598   4609567   4609475  
  4290.000000   4609302   4609055   4608768   4608506   4608349  
  4280.000000   4608381   4608677   4609266   4610153   4611275  
  4270.000000   4612556   4613865   4615075   4616032   4616597  
  4260.000000   4616632   4616035   4614740   4612748   4610117  
  4250.000000   4606982   4603512   4599915   4596367   4593033  
  4240.000000   4589991   4587288   4584884   4582729   4580729  
  4230.000000   4578810   4576893   4574922   4572852   4570649  
  4220.000000   4568305   4565818   4563227   4560578   4557963  
  4210.000000   4555463   4553173   4551146   4549412   4547937  
  4200.000000   4546671   4545515   4544399   4543240   4542028  
  4190.000000   4540749   4539475   4538250   4537183   4536323  
  4180.000000   4535766   4535534   4535696   4536245   4537237  
  4170.000000   4538658   4540563   4542932   4545810   4549156  
  4160.000000   4552992   4557244   4561918   4566931   4572309  
  4150.000000   4577997   4584065   4590497   4597395   4604763  
  4140.000000   4612697   4621188   4630305   4640011   4650347  
  4130.000000   4661250   4672741   4684749   4697286   4710283  
  4120.000000   4723757   4737650   4751983   4766705   4781837  
  4110.000000   4797327   4813187   4829358   4845832   4862548  
  4100.000000   4879490   4896606   4913894   4931336   4948948  
  4090.000000   4966732   4984695   5002821   5021079   5039434  
  4080.000000   5057833   5076260   5094682   5113115   5131532  
  4070.000000   5149944   5168284   5186529   5204577   5222407  
  4060.000000   5239921   5257127   5273933   5290350   5306265  
  4050.000000   5321682   5336485   5350712   5364282   5377265  
  4040.000000   5389574   5401253   5412157   5422292   5431498  
  4030.000000   5439814   5447138   5453569   5459058   5463706  
  4020.000000   5467425   5470300   5472291   5473474   5473763  
  4010.000000   5473290   5472115   5470261   5467492   5463915  
  4000.000000   5459936  
##END= 
