##TITLE= Sample 018 By ssteindl date Dienstag, November 20 2018
##JCAMP-DX= 4.24
##DATA TYPE= INFRARED SPECTRUM
##ORIGIN= Exported PE Spectrum Data File
##OWNER= Sandra Steindl
##DATE= 18/11/20
##TIME= 10:14:32.00
##SPECTROMETER/DATA SYSTEM= PERKIN-ELMER Frontier FT-IR/NIR IR
##INSTRUMENT PARAMETERS=
  APODIZATION=stark
  DETECTOR=INGAAS
##RESOLUTION= 16.000000
##DELTAX= -2.000000
##XUNITS= 1/CM
##YUNITS= A
##XFACTOR= 1.00
##YFACTOR= 0.00000011920928955078
##FIRSTX= 10000.00
##LASTX= 4000.00
##NPOINTS= 3001
##FIRSTY= 0.192053
##MAXY= 0.648969
##MINY= 0.163858
##XYDATA= (X++(Y..Y))
 10000.000000   1611053   1612713   1613255   1611476   1607694  
  9990.000000   1603090   1598331   1593644   1589552   1586877  
  9980.000000   1586096   1587139   1589534   1592476   1594962  
  9970.000000   1596100   1595473   1593202   1589838   1586156  
  9960.000000   1582883   1580549   1579426   1579609   1581071  
  9950.000000   1583716   1587324   1591504   1595665   1599081  
  9940.000000   1601042   1601028   1598880   1594829   1589472  
  9930.000000   1583568   1577889   1573035   1569371   1567059  
  9920.000000   1566043   1566186   1567167   1568653   1570173  
  9910.000000   1571363   1571909   1571738   1570955   1569793  
  9900.000000   1568525   1567242   1565887   1564116   1561532  
  9890.000000   1557678   1552332   1545492   1537550   1529163  
  9880.000000   1521238   1514734   1510487   1509043   1510462  
  9870.000000   1514340   1519863   1526076   1532180   1537733  
  9860.000000   1542768   1547589   1552552   1557702   1562667  
  9850.000000   1566674   1568915   1568875   1566710   1563243  
  9840.000000   1559754   1557494   1557177   1558737   1561305  
  9830.000000   1563637   1564536   1563366   1560206   1555821  
  9820.000000   1551326   1547813   1546001   1546104   1547834  
  9810.000000   1550597   1553657   1556351   1558180   1558934  
  9800.000000   1558690   1557852   1557006   1556789   1557613  
  9790.000000   1559474   1561865   1563875   1564508   1563037  
  9780.000000   1559326   1553894   1547759   1542036   1537554  
  9770.000000   1534550   1532714   1531377   1529905   1527973  
  9760.000000   1525661   1523406   1521699   1520973   1521398  
  9750.000000   1523021   1525785   1529656   1534554   1540207  
  9740.000000   1546053   1551157   1554463   1555016   1552419  
  9730.000000   1546940   1539554   1531564   1524212   1518291  
  9720.000000   1513999   1511107   1509202   1508070   1507727  
  9710.000000   1508434   1510332   1513299   1516760   1519893  
  9700.000000   1521894   1522307   1521235   1519215   1517023  
  9690.000000   1515252   1514154   1513559   1513068   1512301  
  9680.000000   1511044   1509363   1507438   1505501   1503636  
  9670.000000   1501846   1500081   1498367   1496849   1495676  
  9660.000000   1494921   1494357   1493524   1491783   1488647  
  9650.000000   1483992   1478265   1472389   1467536   1464722  
  9640.000000   1464500   1466798   1471009   1476226   1481539  
  9630.000000   1486253   1490000   1492701   1494484   1495568  
  9620.000000   1496208   1496642   1497110   1497789   1498793  
  9610.000000   1500083   1501479   1502690   1503376   1503311  
  9600.000000   1502377   1500681   1498441   1495986   1493647  
  9590.000000   1491720   1490405   1489768   1489696   1489901  
  9580.000000   1489963   1489440   1488031   1485695   1482740  
  9570.000000   1479740   1477381   1476206   1476419   1477802  
  9560.000000   1479801   1481771   1483231   1484077   1484561  
  9550.000000   1485165   1486292   1488087   1490311   1492452  
  9540.000000   1493937   1494328   1493510   1491641   1489075  
  9530.000000   1486169   1483128   1480020   1476757   1473326  
  9520.000000   1469795   1466454   1463671   1461830   1461138  
  9510.000000   1461549   1462717   1464057   1464873   1464476  
  9500.000000   1462405   1458473   1452957   1446486   1440024  
  9490.000000   1434580   1430973   1429592   1430290   1432490  
  9480.000000   1435390   1438273   1440703   1442632   1444289  
  9470.000000   1445970   1447813   1449618   1450957   1451267  
  9460.000000   1450227   1447822   1444476   1440818   1437520  
  9450.000000   1435046   1433571   1433029   1433214   1433953  
  9440.000000   1435134   1436737   1438714   1440963   1443275  
  9430.000000   1445451   1447366   1449057   1450695   1452462  
  9420.000000   1454444   1456491   1458260   1459312   1459293  
  9410.000000   1458112   1455961   1453300   1450643   1448449  
  9400.000000   1446951   1446190   1446026   1446258   1446655  
  9390.000000   1446980   1446962   1446313   1444779   1442252  
  9380.000000   1438862   1435014   1431330   1428486   1427032  
  9370.000000   1427173   1428718   1431129   1433701   1435783  
  9360.000000   1436912   1436904   1435860   1434108   1432151  
  9350.000000   1430523   1429686   1429899   1431123   1433020  
  9340.000000   1434977   1436303   1436444   1435243   1433054  
  9330.000000   1430625   1428803   1428140   1428629   1429665  
  9320.000000   1430272   1429473   1426728   1422225   1416915  
  9310.000000   1412165   1409255   1408907   1411048   1414880  
  9300.000000   1419166   1422674   1424572   1424658   1423341  
  9290.000000   1421401   1419693   1418871   1419282   1420889  
  9280.000000   1423345   1426037   1428285   1429490   1429311  
  9270.000000   1427767   1425189   1422231   1419614   1418012  
  9260.000000   1417759   1418779   1420634   1422687   1424374  
  9250.000000   1425295   1425270   1424243   1422195   1419116  
  9240.000000   1415030   1410114   1404800   1399850   1396234  
  9230.000000   1394848   1396148   1399919   1405281   1410937  
  9220.000000   1415571   1418182   1418377   1416390   1412992  
  9210.000000   1409117   1405615   1403042   1401714   1401713  
  9200.000000   1402976   1405299   1408348   1411690   1414788  
  9190.000000   1417153   1418415   1418529   1417773   1416666  
  9180.000000   1415761   1415421   1415739   1416484   1417248  
  9170.000000   1417608   1417292   1416275   1414715   1412877  
  9160.000000   1411019   1409351   1408019   1407128   1406726  
  9150.000000   1406797   1407202   1407702   1407976   1407785  
  9140.000000   1407069   1406059   1405206   1405051   1405973  
  9130.000000   1407966   1410581   1413033   1414504   1414394  
  9120.000000   1412552   1409316   1405400   1401608   1398555  
  9110.000000   1396527   1395469   1395143   1395241   1395553  
  9100.000000   1395979   1396514   1397146   1397799   1398342  
  9090.000000   1398626   1398568   1398137   1397362   1396280  
  9080.000000   1394926   1393333   1391566   1389811   1388373  
  9070.000000   1387641   1387916   1389274   1391462   1393901  
  9060.000000   1395839   1396547   1395590   1392944   1389036  
  9050.000000   1384576   1380365   1377072   1375098   1374541  
  9040.000000   1375231   1376857   1379061   1381518   1383937  
  9030.000000   1386088   1387788   1388913   1389402   1389279  
  9020.000000   1388692   1387835   1386956   1386241   1385836  
  9010.000000   1385763   1385946   1386225   1386416   1386363  
  9000.000000   1385993   1385339   1384551   1383856   1383490  
  8990.000000   1383626   1384318   1385501   1387017   1388711  
  8980.000000   1390468   1392281   1394195   1396280   1398542  
  8970.000000   1400875   1403069   1404849   1405986   1406325  
  8960.000000   1405852   1404660   1402924   1400847   1398615  
  8950.000000   1396437   1394533   1393177   1392602   1392980  
  8940.000000   1394305   1396380   1398792   1401054   1402714  
  8930.000000   1403504   1403379   1402516   1401235   1399867  
  8920.000000   1398673   1397765   1397164   1396789   1396557  
  8910.000000   1396367   1396128   1395741   1395097   1394136  
  8900.000000   1392879   1391501   1390287   1389613   1389820  
  8890.000000   1391102   1393423   1396490   1399847   1402943  
  8880.000000   1405308   1406596   1406712   1405746   1403986  
  8870.000000   1401802   1399626   1397857   1396824   1396734  
  8860.000000   1397636   1399455   1402000   1405049   1408350  
  8850.000000   1411696   1414896   1417784   1420190   1421949  
  8840.000000   1422972   1423252   1422956   1422350   1421789  
  8830.000000   1421562   1421820   1422512   1423411   1424250  
  8820.000000   1424825   1425129   1425332   1425741   1426632  
  8810.000000   1428151   1430211   1432549   1434809   1436696  
  8800.000000   1438067   1438950   1439507   1439914   1440299  
  8790.000000   1440673   1440968   1441073   1440922   1440510  
  8780.000000   1439923   1439276   1438708   1438326   1438227  
  8770.000000   1438488   1439179   1440339   1441954   1443948  
  8760.000000   1446195   1448568   1450985   1453445   1456031  
  8750.000000   1458845   1461943   1465232   1468487   1471374  
  8740.000000   1473591   1474958   1475507   1475471   1475221  
  8730.000000   1475131   1475466   1476301   1477533   1478955  
  8720.000000   1480336   1481525   1482461   1483213   1483907  
  8710.000000   1484732   1485859   1487438   1489546   1492154  
  8700.000000   1495128   1498198   1501044   1503319   1504793  
  8690.000000   1505377   1505195   1504520   1503723   1503157  
  8680.000000   1503101   1503721   1505083   1507179   1509941  
  8670.000000   1513274   1517016   1520958   1524817   1528311  
  8660.000000   1531224   1533478   1535173   1536515   1537772  
  8650.000000   1539116   1540601   1542106   1543425   1544365  
  8640.000000   1544844   1544974   1545004   1545282   1546103  
  8630.000000   1547652   1549921   1552745   1555850   1558920  
  8620.000000   1561668   1563862   1565378   1566199   1566450  
  8610.000000   1566363   1566266   1566502   1567363   1569006  
  8600.000000   1571399   1574347   1577533   1580641   1583411  
  8590.000000   1585738   1587652   1589285   1590790   1592261  
  8580.000000   1593733   1595134   1596355   1597258   1597754  
  8570.000000   1597814   1597490   1596943   1596408   1596203  
  8560.000000   1596626   1597934   1600227   1603421   1607215  
  8550.000000   1611161   1614776   1617648   1619554   1620482  
  8540.000000   1620630   1620305   1619841   1619501   1619452  
  8530.000000   1619768   1620467   1621540   1622959   1624683  
  8520.000000   1626615   1628623   1630528   1632169   1633434  
  8510.000000   1634307   1634869   1635271   1635693   1636294  
  8500.000000   1637181   1638395   1639917   1641679   1643573  
  8490.000000   1645460   1647190   1648611   1649605   1650108  
  8480.000000   1650149   1649833   1649341   1648872   1648616  
  8470.000000   1648723   1649286   1650347   1651889   1653863  
  8460.000000   1656169   1658670   1661186   1663527   1665544  
  8450.000000   1667151   1668353   1669220   1669876   1670424  
  8440.000000   1670936   1671424   1671875   1672297   1672731  
  8430.000000   1673280   1674046   1675123   1676520   1678173  
  8420.000000   1679943   1681680   1683270   1684661   1685852  
  8410.000000   1686856   1687670   1688257   1688568   1688585  
  8400.000000   1688368   1688076   1687922   1688115   1688751  
  8390.000000   1689785   1691022   1692192   1693044   1693441  
  8380.000000   1693408   1693107   1692758   1692542   1692532  
  8370.000000   1692693   1692918   1693117   1693268   1693464  
  8360.000000   1693864   1694635   1695843   1697410   1699110  
  8350.000000   1700632   1701683   1702064   1701744   1700843  
  8340.000000   1699610   1698320   1697208   1696414   1695969  
  8330.000000   1695833   1695922   1696167   1696524   1696994  
  8320.000000   1697582   1698293   1699085   1699894   1700635  
  8310.000000   1701239   1701678   1701965   1702155   1702308  
  8300.000000   1702458   1702588   1702635   1702518   1702178  
  8290.000000   1701613   1700887   1700117   1699426   1698907  
  8280.000000   1698586   1698424   1698340   1698261   1698146  
  8270.000000   1698019   1697931   1697956   1698130   1698474  
  8260.000000   1698959   1699561   1700253   1701025   1701865  
  8250.000000   1702717   1703469   1703921   1703847   1703040  
  8240.000000   1701408   1699018   1696101   1693022   1690176  
  8230.000000   1687928   1686494   1685938   1686134   1686850  
  8220.000000   1687779   1688634   1689172   1689235   1688760  
  8210.000000   1687763   1686340   1684624   1682778   1680952  
  8200.000000   1679280   1677858   1676744   1675961   1675494  
  8190.000000   1675316   1675354   1675521   1675682   1675701  
  8180.000000   1675442   1674820   1673816   1672490   1670973  
  8170.000000   1669421   1667974   1666715   1665641   1664671  
  8160.000000   1663675   1662520   1661114   1659437   1657542  
  8150.000000   1655548   1653603   1651850   1650384   1649238  
  8140.000000   1648372   1647703   1647132   1646584   1646028  
  8130.000000   1645482   1644992   1644605   1644320   1644078  
  8120.000000   1643758   1643219   1642354   1641134   1639636  
  8110.000000   1638006   1636413   1634970   1633683   1632455  
  8100.000000   1631113   1629502   1627550   1625335   1623068  
  8090.000000   1621046   1619541   1618718   1618567   1618907  
  8080.000000   1619449   1619859   1619877   1619336   1618222  
  8070.000000   1616618   1614698   1612661   1610710   1609027  
  8060.000000   1607757   1607009   1606836   1607234   1608124  
  8050.000000   1609363   1610742   1612014   1612928   1613260  
  8040.000000   1612855   1611656   1609734   1607272   1604559  
  8030.000000   1601923   1599672   1598028   1597067   1596721  
  8020.000000   1596784   1596989   1597060   1596800   1596106  
  8010.000000   1594998   1593587   1592035   1590518   1589175  
  8000.000000   1588097   1587300   1586747   1586343   1585976  
  7990.000000   1585536   1584953   1584219   1583391   1582575  
  7980.000000   1581886   1581402   1581137   1581025   1580964  
  7970.000000   1580834   1580575   1580183   1579722   1579274  
  7960.000000   1578903   1578621   1578389   1578153   1577880  
  7950.000000   1577601   1577404   1577413   1577724   1578356  
  7940.000000   1579222   1580148   1580918   1581338   1581293  
  7930.000000   1580758   1579801   1578534   1577090   1575591  
  7920.000000   1574149   1572864   1571827   1571111   1570748  
  7910.000000   1570709   1570897   1571167   1571362   1571361  
  7900.000000   1571111   1570636   1570025   1569391   1568846  
  7890.000000   1568470   1568311   1568389   1568703   1569231  
  7880.000000   1569922   1570688   1571411   1571963   1572243  
  7870.000000   1572211   1571913   1571455   1570977   1570589  
  7860.000000   1570334   1570174   1570008   1569738   1569304  
  7850.000000   1568735   1568126   1567618   1567320   1567276  
  7840.000000   1567430   1567656   1567791   1567699   1567312  
  7830.000000   1566647   1565788   1564860   1563979   1563230  
  7820.000000   1562640   1562192   1561832   1561499   1561139  
  7810.000000   1560723   1560243   1559714   1559155   1558584  
  7800.000000   1558011   1557431   1556838   1556230   1555621  
  7790.000000   1555038   1554508   1554051   1553661   1553313  
  7780.000000   1552965   1552590   1552185   1551781   1551424  
  7770.000000   1551149   1550946   1550752   1550458   1549949  
  7760.000000   1549150   1548058   1546757   1545380   1544073  
  7750.000000   1542931   1541977   1541162   1540402   1539628  
  7740.000000   1538819   1538018   1537305   1536761   1536428  
  7730.000000   1536297   1536308   1536383   1536452   1536472  
  7720.000000   1536423   1536294   1536073   1535738   1535271  
  7710.000000   1534672   1533971   1533219   1532472   1531757  
  7700.000000   1531069   1530358   1529569   1528673   1527691  
  7690.000000   1526706   1525834   1525189   1524832   1524761  
  7680.000000   1524914   1525195   1525521   1525834   1526112  
  7670.000000   1526343   1526513   1526581   1526503   1526242  
  7660.000000   1525806   1525245   1524656   1524130   1523731  
  7650.000000   1523460   1523268   1523082   1522841   1522534  
  7640.000000   1522209   1521959   1521889   1522072   1522529  
  7630.000000   1523218   1524048   1524901   1525671   1526267  
  7620.000000   1526647   1526801   1526768   1526620   1526452  
  7610.000000   1526364   1526439   1526719   1527199   1527825  
  7600.000000   1528523   1529215   1529845   1530384   1530825  
  7590.000000   1531166   1531413   1531559   1531616   1531607  
  7580.000000   1531594   1531651   1531863   1532280   1532919  
  7570.000000   1533741   1534683   1535677   1536682   1537686  
  7560.000000   1538708   1539770   1540892   1542068   1543297  
  7550.000000   1544561   1545863   1547188   1548521   1549803  
  7540.000000   1550964   1551926   1552660   1553218   1553747  
  7530.000000   1554464   1555592   1557278   1559539   1562238  
  7520.000000   1565137   1567953   1570463   1572536   1574181  
  7510.000000   1575481   1576578   1577587   1578610   1579711  
  7500.000000   1580959   1582415   1584145   1586178   1588497  
  7490.000000   1591023   1593644   1596248   1598772   1601213  
  7480.000000   1603628   1606074   1608585   1611114   1613583  
  7470.000000   1615896   1618023   1620009   1621992   1624132  
  7460.000000   1626558   1629301   1632286   1635365   1638384  
  7450.000000   1641255   1643986   1646668   1649431   1652366  
  7440.000000   1655495   1658749   1662016   1665179   1668172  
  7430.000000   1670987   1673671   1676292   1678907   1681555  
  7420.000000   1684249   1687000   1689818   1692717   1695695  
  7410.000000   1698722   1701741   1704677   1707464   1710070  
  7400.000000   1712512   1714849   1717151   1719478   1721863  
  7390.000000   1724311   1726822   1729400   1732064   1734840  
  7380.000000   1737733   1740714   1743720   1746674   1749518  
  7370.000000   1752243   1754891   1757537   1760255   1763076  
  7360.000000   1765979   1768900   1771766   1774532   1777203  
  7350.000000   1779824   1782454   1785131   1787846   1790555  
  7340.000000   1793203   1795769   1798271   1800770   1803326  
  7330.000000   1805972   1808677   1811370   1813948   1816345  
  7320.000000   1818542   1820592   1822574   1824571   1826620  
  7310.000000   1828709   1830776   1832747   1834557   1836182  
  7300.000000   1837622   1838904   1840055   1841106   1842090  
  7290.000000   1843061   1844074   1845198   1846466   1847875  
  7280.000000   1849370   1850865   1852267   1853516   1854609  
  7270.000000   1855585   1856507   1857420   1858335   1859220  
  7260.000000   1860040   1860780   1861486   1862256   1863223  
  7250.000000   1864488   1866098   1867994   1870050   1872082  
  7240.000000   1873942   1875523   1876834   1877947   1879018  
  7230.000000   1880204   1881677   1883553   1885924   1888799  
  7220.000000   1892140   1895827   1899714   1903620   1907408  
  7210.000000   1910983   1914366   1917637   1920955   1924444  
  7200.000000   1928210   1932244   1936500   1940857   1945230  
  7190.000000   1949544   1953804   1958039   1962328   1966728  
  7180.000000   1971303   1976071   1981051   1986224   1991580  
  7170.000000   1997070   2002658   2008279   2013902   2019502  
  7160.000000   2025113   2030777   2036572   2042532   2048685  
  7150.000000   2054983   2061380   2067794   2074196   2080564  
  7140.000000   2086946   2093390   2099970   2106726   2113704  
  7130.000000   2120914   2128383   2136108   2144096   2152304  
  7120.000000   2160679   2169117   2177534   2185846   2194037  
  7110.000000   2202125   2210181   2218269   2226456   2234757  
  7100.000000   2243179   2251692   2260288   2268947   2277672  
  7090.000000   2286440   2295224   2303970   2312638   2321205  
  7080.000000   2329705   2338210   2346826   2355637   2364686  
  7070.000000   2373942   2383322   2392711   2402012   2411167  
  7060.000000   2420172   2429058   2437866   2446629   2455361  
  7050.000000   2464068   2472753   2481432   2490121   2498835  
  7040.000000   2507552   2516225   2524775   2533129   2541229  
  7030.000000   2549075   2556694   2564167   2571561   2578948  
  7020.000000   2586351   2593784   2601218   2608628   2615957  
  7010.000000   2623162   2630176   2636963   2643489   2649783  
  7000.000000   2655892   2661911   2667910   2673948   2680006  
  6990.000000   2686034   2691936   2697645   2703116   2708380  
  6980.000000   2713477   2718484   2723427   2728319   2733117  
  6970.000000   2737797   2742332   2746743   2751047   2755269  
  6960.000000   2759380   2763327   2767010   2770365   2773363  
  6950.000000   2776068   2778595   2781101   2783705   2786483  
  6940.000000   2789414   2792438   2795448   2798371   2801147  
  6930.000000   2803779   2806275   2808673   2810990   2813249  
  6920.000000   2815455   2817620   2819745   2821825   2823831  
  6910.000000   2825727   2827464   2829019   2830392   2831634  
  6900.000000   2832819   2834043   2835370   2836844   2838455  
  6890.000000   2840171   2841938   2843711   2845445   2847107  
  6880.000000   2848663   2850080   2851328   2852383   2853246  
  6870.000000   2853936   2854492   2854965   2855409   2855883  
  6860.000000   2856446   2857165   2858096   2859283   2860717  
  6850.000000   2862343   2864045   2865690   2867152   2868364  
  6840.000000   2869332   2870131   2870864   2871616   2872417  
  6830.000000   2873233   2873993   2874629   2875116   2875496  
  6820.000000   2875851   2876287   2876867   2877613   2878474  
  6810.000000   2879385   2880272   2881101   2881859   2882558  
  6800.000000   2883190   2883733   2884138   2884368   2884410  
  6790.000000   2884306   2884131   2883977   2883902   2883923  
  6780.000000   2883989   2884025   2883947   2883709   2883305  
  6770.000000   2882776   2882175   2881559   2880954   2880376  
  6760.000000   2879821   2879293   2878792   2878327   2877892  
  6750.000000   2877474   2877042   2876567   2876026   2875413  
  6740.000000   2874729   2873982   2873168   2872277   2871295  
  6730.000000   2870228   2869103   2867979   2866915   2865960  
  6720.000000   2865116   2864341   2863553   2862674   2861651  
  6710.000000   2860485   2859219   2857926   2856662   2855459  
  6700.000000   2854300   2853154   2851982   2850772   2849534  
  6690.000000   2848302   2847097   2845923   2844753   2843540  
  6680.000000   2842240   2840829   2839307   2837701   2836037  
  6670.000000   2834338   2832610   2830855   2829080   2827316  
  6660.000000   2825607   2824011   2822562   2821262   2820064  
  6650.000000   2818890   2817640   2816234   2814620   2812794  
  6640.000000   2810790   2808672   2806510   2804379   2802328  
  6630.000000   2800394   2798577   2796853   2795162   2793429  
  6620.000000   2791572   2789532   2787279   2784829   2782235  
  6610.000000   2779574   2776924   2774346   2771874   2769516  
  6600.000000   2767262   2765097   2763006   2760979   2759006  
  6590.000000   2757082   2755198   2753347   2751523   2749724  
  6580.000000   2747951   2746197   2744458   2742719   2740970  
  6570.000000   2739197   2737400   2735579   2733744   2731900  
  6560.000000   2730061   2728234   2726440   2724699   2723041  
  6550.000000   2721484   2720033   2718666   2717343   2716009  
  6540.000000   2714626   2713177   2711683   2710188   2708747  
  6530.000000   2707395   2706146   2704978   2703857   2702749  
  6520.000000   2701641   2700539   2699465   2698434   2697450  
  6510.000000   2696489   2695521   2694519   2693476   2692410  
  6500.000000   2691359   2690360   2689435   2688580   2687765  
  6490.000000   2686952   2686105   2685212   2684274   2683312  
  6480.000000   2682343   2681380   2680420   2679453   2678465  
  6470.000000   2677445   2676385   2675284   2674144   2672970  
  6460.000000   2671770   2670563   2669367   2668205   2667084  
  6450.000000   2666001   2664936   2663859   2662744   2661583  
  6440.000000   2660388   2659184   2658004   2656864   2655765  
  6430.000000   2654686   2653607   2652514   2651417   2650344  
  6420.000000   2649335   2648416   2647590   2646830   2646094  
  6410.000000   2645334   2644518   2643635   2642699   2641738  
  6400.000000   2640784   2639865   2639006   2638226   2637540  
  6390.000000   2636950   2636444   2635984   2635516   2634971  
  6380.000000   2634291   2633443   2632433   2631301   2630115  
  6370.000000   2628946   2627854   2626881   2626047   2625359  
  6360.000000   2624810   2624383   2624039   2623724   2623363  
  6350.000000   2622889   2622249   2621435   2620478   2619442  
  6340.000000   2618398   2617400   2616464   2615572   2614687  
  6330.000000   2613776   2612822   2611840   2610848   2609870  
  6320.000000   2608899   2607916   2606881   2605772   2604578  
  6310.000000   2603325   2602042   2600761   2599480   2598184  
  6300.000000   2596827   2595381   2593829   2592191   2590496  
  6290.000000   2588781   2587051   2585296   2583473   2581549  
  6280.000000   2579496   2577325   2575058   2572739   2570391  
  6270.000000   2568034   2565658   2563259   2560828   2558375  
  6260.000000   2555906   2553431   2550935   2548398   2545781  
  6250.000000   2543063   2540238   2537334   2534388   2531445  
  6240.000000   2528526   2525635   2522752   2519857   2516941  
  6230.000000   2514013   2511098   2508220   2505390   2502602  
  6220.000000   2499835   2497071   2494305   2491556   2488856  
  6210.000000   2486237   2483713   2481269   2478866   2476454  
  6200.000000   2473991   2471456   2468856   2466215   2463565  
  6190.000000   2460934   2458342   2455798   2453309   2450876  
  6180.000000   2448497   2446156   2443826   2441471   2439060  
  6170.000000   2436581   2434049   2431500   2428988   2426554  
  6160.000000   2424219   2421969   2419773   2417594   2415410  
  6150.000000   2413222   2411053   2408928   2406864   2404851  
  6140.000000   2402863   2400861   2398824   2396746   2394656  
  6130.000000   2392585   2390569   2388621   2386734   2384883  
  6120.000000   2383048   2381217   2379405   2377635   2375944  
  6110.000000   2374352   2372873   2371493   2370194   2368948  
  6100.000000   2367738   2366545   2365368   2364200   2363052  
  6090.000000   2361927   2360848   2359825   2358886   2358034  
  6080.000000   2357275   2356588   2355961   2355368   2354810  
  6070.000000   2354291   2353842   2353488   2353267   2353186  
  6060.000000   2353254   2353446   2353749   2354125   2354560  
  6050.000000   2355026   2355520   2356032   2356580   2357172  
  6040.000000   2357848   2358628   2359544   2360596   2361782  
  6030.000000   2363068   2364424   2365819   2367245   2368707  
  6020.000000   2370231   2371834   2373533   2375313   2377149  
  6010.000000   2378998   2380828   2382613   2384352   2386054  
  6000.000000   2387739   2389417   2391093   2392758   2394400  
  5990.000000   2396005   2397574   2399111   2400640   2402186  
  5980.000000   2403782   2405454   2407226   2409107   2411096  
  5970.000000   2413178   2415333   2417534   2419765   2422014  
  5960.000000   2424286   2426588   2428931   2431309   2433714  
  5950.000000   2436113   2438483   2440796   2443047   2445241  
  5940.000000   2447401   2449551   2451717   2453911   2456146  
  5930.000000   2458426   2460762   2463164   2465645   2468207  
  5920.000000   2470841   2473525   2476228   2478917   2481569  
  5910.000000   2484173   2486730   2489240   2491710   2494135  
  5900.000000   2496516   2498852   2501152   2503438   2505733  
  5890.000000   2508060   2510429   2512834   2515255   2517667  
  5880.000000   2520044   2522376   2524658   2526894   2529090  
  5870.000000   2531242   2533348   2535398   2537393   2539338  
  5860.000000   2541255   2543166   2545103   2547090   2549159  
  5850.000000   2551333   2553642   2556111   2558760   2561594  
  5840.000000   2564600   2567745   2570982   2574263   2577547  
  5830.000000   2580809   2584033   2587216   2590348   2593422  
  5820.000000   2596413   2599301   2602057   2604675   2607134  
  5810.000000   2609442   2611579   2613549   2615326   2616916  
  5800.000000   2618300   2619501   2620517   2621380   2622087  
  5790.000000   2622659   2623078   2623351   2623455   2623395  
  5780.000000   2623148   2622713   2622067   2621212   2620143  
  5770.000000   2618893   2617502   2616042   2614581   2613185  
  5760.000000   2611892   2610724   2609678   2608748   2607930  
  5750.000000   2607226   2606645   2606187   2605845   2605591  
  5740.000000   2605398   2605230   2605080   2604942   2604841  
  5730.000000   2604791   2604813   2604901   2605052   2605244  
  5720.000000   2605473   2605736   2606049   2606417   2606853  
  5710.000000   2607344   2607880   2608435   2609002   2609575  
  5700.000000   2610167   2610794   2611469   2612198   2612981  
  5690.000000   2613812   2614690   2615619   2616601   2617639  
  5680.000000   2618711   2619788   2620818   2621751   2622539  
  5670.000000   2623157   2623594   2623862   2623977   2623960  
  5660.000000   2623826   2623595   2623279   2622902   2622479  
  5650.000000   2622030   2621564   2621090   2620606   2620123  
  5640.000000   2619647   2619193   2618769   2618381   2618016  
  5630.000000   2617656   2617283   2616888   2616478   2616078  
  5620.000000   2615713   2615404   2615149   2614925   2614695  
  5610.000000   2614427   2614100   2613715   2613290   2612848  
  5600.000000   2612397   2611934   2611433   2610872   2610231  
  5590.000000   2609512   2608728   2607906   2607059   2606196  
  5580.000000   2605302   2604364   2603362   2602298   2601176  
  5570.000000   2600011   2598812   2597583   2596318   2595014  
  5560.000000   2593671   2592304   2590935   2589587   2588274  
  5550.000000   2586997   2585745   2584503   2583261   2582023  
  5540.000000   2580804   2579620   2578483   2577393   2576341  
  5530.000000   2575311   2574293   2573284   2572290   2571320  
  5520.000000   2570379   2569461   2568557   2567654   2566742  
  5510.000000   2565822   2564892   2563954   2562998   2562010  
  5500.000000   2560971   2559874   2558720   2557532   2556331  
  5490.000000   2555142   2553960   2552771   2551535   2550221  
  5480.000000   2548802   2547281   2545664   2543976   2542227  
  5470.000000   2540423   2538553   2536615   2534611   2532560  
  5460.000000   2530482   2528399   2526309   2524196   2522025  
  5450.000000   2519770   2517420   2514995   2512537   2510098  
  5440.000000   2507722   2505431   2503232   2501113   2499072  
  5430.000000   2497104   2495223   2493428   2491722   2490084  
  5420.000000   2488504   2486965   2485489   2484094   2482835  
  5410.000000   2481731   2480802   2480016   2479350   2478755  
  5400.000000   2478235   2477792   2477481   2477332   2477391  
  5390.000000   2477649   2478103   2478709   2479465   2480355  
  5380.000000   2481416   2482654   2484108   2485751   2487589  
  5370.000000   2489567   2491696   2493943   2496358   2498937  
  5360.000000   2501744   2504769   2508074   2511645   2515563  
  5350.000000   2519833   2524554   2529724   2535416   2541580  
  5340.000000   2548253   2555363   2562966   2571019   2579614  
  5330.000000   2588714   2598400   2608607   2619392   2630687  
  5320.000000   2642584   2655058   2668255   2682167   2696936  
  5310.000000   2712511   2728984   2746261   2764416   2783371  
  5300.000000   2803234   2823969   2845719   2868467   2892343  
  5290.000000   2917291   2943357   2970391   2998328   3026955  
  5280.000000   3056197   3085926   3116193   3147031   3178588  
  5270.000000   3210914   3244023   3277764   3311895   3346116  
  5260.000000   3380148   3413840   3447127   3480088   3512755  
  5250.000000   3545186   3577245   3608805   3639570   3669405  
  5240.000000   3698105   3725745   3752308   3778013   3802881  
  5230.000000   3827081   3850515   3873220   3894987   3915806  
  5220.000000   3935492   3954123   3971629   3988194   4003821  
  5210.000000   4018706   4032800   4046193   4058720   4070389  
  5200.000000   4081022   4090687   4099318   4107084   4113986  
  5190.000000   4120186   4125630   4130395   4134370   4137615  
  5180.000000   4140055   4141806   4142850   4143318   4143181  
  5170.000000   4142526   4141293   4139551   4137262   4134521  
  5160.000000   4131318   4127743   4123765   4119436   4114702  
  5150.000000   4109611   4104141   4098366   4092291   4085984  
  5140.000000   4079426   4072649   4065616   4058360   4050878  
  5130.000000   4043234   4035455   4027605   4019688   4011725  
  5120.000000   4003693   3995600   3987434   3979230   3971000  
  5110.000000   3962782   3954579   3946400   3938227   3930056  
  5100.000000   3921877   3913704   3905545   3897417   3889320  
  5090.000000   3881251   3873193   3865137   3857071   3848997  
  5080.000000   3840914   3832830   3824736   3816626   3808487  
  5070.000000   3800317   3792116   3783906   3775700   3767521  
  5060.000000   3759369   3751244   3743123   3734989   3726819  
  5050.000000   3718606   3710340   3702025   3693657   3685240  
  5040.000000   3676772   3668261   3659719   3651169   3642637  
  5030.000000   3634149   3625726   3617377   3609107   3600911  
  5020.000000   3592788   3584734   3576760   3568869   3561086  
  5010.000000   3553416   3545892   3538521   3531339   3524349  
  5000.000000   3517589   3511049   3504754   3498677   3492839  
  4990.000000   3487212   3481830   3476682   3471823   3467252  
  4980.000000   3463025   3459124   3455591   3452390   3449557  
  4970.000000   3447061   3444948   3443196   3441857   3440901  
  4960.000000   3440365   3440197   3440419   3440971   3441879  
  4950.000000   3443095   3444656   3446525   3448748   3451292  
  4940.000000   3454205   3457457   3461098   3465099   3469499  
  4930.000000   3474257   3479391   3484844   3490623   3496672  
  4920.000000   3503007   3509590   3516453   3523569   3530973  
  4910.000000   3538642   3546599   3554816   3563301   3572016  
  4900.000000   3580954   3590072   3599355   3608768   3618303  
  4890.000000   3627940   3637675   3647493   3657377   3667296  
  4880.000000   3677212   3687087   3696874   3706541   3716049  
  4870.000000   3725376   3734485   3743365   3751989   3760367  
  4860.000000   3768497   3776421   3784157   3791754   3799217  
  4850.000000   3806575   3813805   3820917   3827879   3834704  
  4840.000000   3841371   3847899   3854270   3860503   3866574  
  4830.000000   3872503   3878273   3883906   3889391   3894745  
  4820.000000   3899939   3904972   3909803   3914427   3918818  
  4810.000000   3922997   3926964   3930759   3934389   3937886  
  4800.000000   3941245   3944491   3947617   3950654   3953603  
  4790.000000   3956493   3959318   3962089   3964777   3967377  
  4780.000000   3969859   3972229   3974470   3976602   3978615  
  4770.000000   3980523   3982304   3983962   3985472   3986842  
  4760.000000   3988055   3989130   3990052   3990835   3991453  
  4750.000000   3991912   3992181   3992267   3992145   3991832  
  4740.000000   3991313   3990610   3989715   3988656   3987431  
  4730.000000   3986072   3984576   3982963   3981215   3979335  
  4720.000000   3977295   3975099   3972742   3970259   3967678  
  4710.000000   3965054   3962419   3959809   3957223   3954660  
  4700.000000   3952093   3949510   3946894   3944251   3941585  
  4690.000000   3938913   3936237   3933563   3930877   3928168  
  4680.000000   3925419   3922614   3919744   3916802   3913792  
  4670.000000   3910718   3907595   3904444   3901298   3898189  
  4660.000000   3895160   3892240   3889461   3886836   3884383  
  4650.000000   3882100   3879998   3878072   3876330   3874761  
  4640.000000   3873362   3872107   3870980   3869946   3868990  
  4630.000000   3868085   3867227   3866400   3865609   3864841  
  4620.000000   3864101   3863376   3862666   3861959   3861252  
  4610.000000   3860531   3859787   3859007   3858189   3857333  
  4600.000000   3856452   3855566   3854702   3853882   3853121  
  4590.000000   3852425   3851783   3851182   3850600   3850021  
  4580.000000   3849429   3848819   3848184   3847523   3846837  
  4570.000000   3846126   3845391   3844636   3843859   3843063  
  4560.000000   3842244   3841398   3840519   3839601   3838642  
  4550.000000   3837639   3836596   3835513   3834398   3833253  
  4540.000000   3832099   3830948   3829833   3828777   3827821  
  4530.000000   3826976   3826277   3825713   3825314   3825063  
  4520.000000   3825000   3825117   3825474   3826063   3826954  
  4510.000000   3828130   3829666   3831551   3833882   3836671  
  4500.000000   3840041   3844015   3848715   3854143   3860391  
  4490.000000   3867426   3875309   3883978   3893465   3903683  
  4480.000000   3914630   3926195   3938352   3950983   3964064  
  4470.000000   3977500   3991284   4005344   4019679   4034225  
  4460.000000   4048962   4063818   4078750   4093677   4108540  
  4450.000000   4123270   4137812   4152129   4166201   4180042  
  4440.000000   4193664   4207123   4220437   4233663   4246790  
  4430.000000   4259856   4272811   4285678   4298377   4310921  
  4420.000000   4323204   4335219   4346825   4357986   4368532  
  4410.000000   4378409   4387445   4395596   4402724   4408828  
  4400.000000   4413833   4417804   4420738   4422754   4423897  
  4390.000000   4424308   4424052   4423266   4422029   4420481  
  4380.000000   4418722   4416903   4415142   4413590   4412362  
  4370.000000   4411577   4411327   4411674   4412671   4414322  
  4360.000000   4416629   4419539   4423002   4426918   4431208  
  4350.000000   4435762   4440515   4445405   4450423   4455569  
  4340.000000   4460872   4466337   4471945   4477617   4483219  
  4330.000000   4488563   4493439   4497652   4501058   4503611  
  4320.000000   4505358   4506465   4507144   4507662   4508230  
  4310.000000   4509034   4510136   4511557   4513210   4515020  
  4300.000000   4516858   4518659   4520336   4521869   4523214  
  4290.000000   4524363   4525284   4525965   4526379   4526532  
  4280.000000   4526423   4526099   4525593   4524981   4524309  
  4270.000000   4523645   4523003   4522403   4521798   4521138  
  4260.000000   4520323   4519268   4517875   4516097   4513911  
  4250.000000   4511360   4508521   4505514   4502460   4499482  
  4240.000000   4496663   4494062   4491683   4489510   4487492  
  4230.000000   4485579   4483711   4481838   4479913   4477897  
  4220.000000   4475760   4473473   4471034   4468448   4465754  
  4210.000000   4463000   4460258   4457591   4455065   4452716  
  4200.000000   4450572   4448625   4446870   4445272   4443819  
  4190.000000   4442468   4441219   4440035   4438935   4437894  
  4180.000000   4436960   4436133   4435499   4435084   4435004  
  4170.000000   4435301   4436102   4437438   4439417   4442035  
  4160.000000   4445359   4449339   4453997   4459248   4465098  
  4150.000000   4471451   4478326   4485644   4493451   4501691  
  4140.000000   4510436   4519652   4529419   4539703   4550571  
  4130.000000   4561971   4573943   4586421   4599434   4612924  
  4120.000000   4626930   4641409   4656405   4671876   4687847  
  4110.000000   4704265   4721134   4738391   4756030   4773985  
  4100.000000   4792242   4810737   4829447   4848317   4867331  
  4090.000000   4886462   4905706   4925059   4944519   4964090  
  4080.000000   4983761   5003538   5023395   5043333   5063300  
  4070.000000   5083277   5103176   5122962   5142535   5161882  
  4060.000000   5180918   5199661   5218028   5236032   5253559  
  4050.000000   5270615   5287077   5302977   5318212   5332843  
  4040.000000   5346755   5359987   5372382   5383959   5394563  
  4030.000000   5404248   5412903   5420608   5427258   5432899  
  4020.000000   5437373   5440721   5442876   5443944   5443893  
  4010.000000   5442937   5441196   5438775   5435494   5431489  
  4000.000000   5427115  
##END= 
