##TITLE= Sample 055 By ssteindl date Dienstag, November 20 2018
##JCAMP-DX= 4.24
##DATA TYPE= INFRARED SPECTRUM
##ORIGIN= Exported PE Spectrum Data File
##OWNER= Sandra Steindl
##DATE= 18/11/20
##TIME= 13:04:43.00
##SPECTROMETER/DATA SYSTEM= PERKIN-ELMER Frontier FT-IR/NIR IR
##INSTRUMENT PARAMETERS=
  APODIZATION=stark
  DETECTOR=INGAAS
##RESOLUTION= 16.000000
##DELTAX= -2.000000
##XUNITS= 1/CM
##YUNITS= A
##XFACTOR= 1.00
##YFACTOR= 0.00000011920928955078
##FIRSTX= 10000.00
##LASTX= 4000.00
##NPOINTS= 3001
##FIRSTY= 0.198328
##MAXY= 0.597013
##MINY= 0.170626
##XYDATA= (X++(Y..Y))
 10000.000000   1663693   1658482   1653766   1650410   1648844  
  9990.000000   1648702   1649068   1648777   1646947   1643196  
  9980.000000   1637944   1632083   1626728   1622663   1620174  
  9970.000000   1618919   1618262   1617577   1616640   1615717  
  9960.000000   1615439   1616520   1619324   1623762   1629178  
  9950.000000   1634666   1639359   1642722   1644742   1645734  
  9940.000000   1646171   1646256   1645814   1644243   1640840  
  9930.000000   1635122   1627238   1618051   1609020   1601805  
  9920.000000   1597650   1597112   1599675   1604194   1609128  
  9910.000000   1613306   1616197   1618079   1619771   1622072  
  9900.000000   1625359   1629123   1632211   1633010   1630237  
  9890.000000   1623275   1612633   1599793   1586892   1576181  
  9880.000000   1569415   1567570   1570616   1577722   1587418  
  9870.000000   1597983   1607691   1615157   1619505   1620563  
  9860.000000   1618830   1615361   1611502   1608498   1607250  
  9850.000000   1607995   1610380   1613498   1616222   1617485  
  9840.000000   1616525   1613090   1607370   1600000   1591829  
  9830.000000   1583852   1577010   1572107   1569657   1569785  
  9820.000000   1572185   1576139   1580697   1584864   1587851  
  9810.000000   1589204   1588863   1587076   1584319   1581129  
  9800.000000   1578095   1575742   1574575   1574942   1576979  
  9790.000000   1580478   1584836   1589155   1592416   1593811  
  9780.000000   1592977   1590171   1586190   1582132   1579037  
  9770.000000   1577568   1577832   1579419   1581607   1583645  
  9760.000000   1585008   1585496   1585211   1584409   1583323  
  9750.000000   1582083   1580669   1579023   1577138   1575149  
  9740.000000   1573380   1572248   1572182   1573426   1575939  
  9730.000000   1579319   1582832   1585598   1586797   1585969  
  9720.000000   1583184   1579104   1574825   1571598   1570434  
  9710.000000   1571790   1575376   1580237   1585014   1588397  
  9700.000000   1589470   1588001   1584387   1579506   1574389  
  9690.000000   1569925   1566706   1564899   1564366   1564668  
  9680.000000   1565219   1565360   1564467   1562153   1558365  
  9670.000000   1553575   1548695   1544917   1543362   1544662  
  9660.000000   1548725   1554626   1560896   1565903   1568396  
  9650.000000   1567842   1564591   1559683   1554499   1550293  
  9640.000000   1547876   1547456   1548742   1551136   1553965  
  9630.000000   1556643   1558721   1559945   1560198   1559577  
  9620.000000   1558307   1556774   1555365   1554395   1553971  
  9610.000000   1553964   1554074   1553953   1553367   1552268  
  9600.000000   1550786   1549083   1547240   1545119   1542455  
  9590.000000   1538959   1534569   1529570   1524587   1520454  
  9580.000000   1517897   1517367   1518838   1521933   1526022  
  9570.000000   1530487   1534822   1538681   1541800   1543885  
  9560.000000   1544637   1543753   1541167   1537070   1532048  
  9550.000000   1526840   1522191   1518535   1515901   1513975  
  9540.000000   1512287   1510546   1508764   1507362   1506906  
  9530.000000   1507914   1510502   1514341   1518695   1522707  
  9520.000000   1525715   1527428   1528008   1527844   1527364  
  9510.000000   1526764   1525984   1524742   1522781   1519997  
  9500.000000   1516612   1513073   1509935   1507632   1506299  
  9490.000000   1505787   1505687   1505631   1505399   1505117  
  9480.000000   1505163   1506032   1508098   1511411   1515649  
  9470.000000   1520109   1523947   1526316   1526672   1524832  
  9460.000000   1521082   1516081   1510706   1505902   1502428  
  9450.000000   1500806   1501172   1503362   1506900   1511140  
  9440.000000   1515324   1518730   1520741   1520983   1519351  
  9430.000000   1516058   1511558   1506466   1501449   1497092  
  9420.000000   1493858   1491979   1491485   1492123   1493418  
  9410.000000   1494679   1495164   1494215   1491505   1487121  
  9400.000000   1481674   1476138   1471703   1469425   1469952  
  9390.000000   1473342   1479013   1486009   1493227   1499809  
  9380.000000   1505249   1509483   1512742   1515344   1517519  
  9370.000000   1519195   1520085   1519727   1517768   1514064  
  9360.000000   1508799   1502464   1495757   1489522   1484516  
  9350.000000   1481353   1480267   1481142   1483441   1486380  
  9340.000000   1489069   1490755   1491031   1489949   1488017  
  9330.000000   1485984   1484593   1484283   1485088   1486643  
  9320.000000   1488377   1489740   1490413   1490418   1490057  
  9310.000000   1489733   1489723   1490035   1490423   1490458  
  9300.000000   1489744   1488010   1485259   1481734   1477875  
  9290.000000   1474200   1471191   1469251   1468639   1469484  
  9280.000000   1471718   1475072   1479067   1483104   1486585  
  9270.000000   1489050   1490278   1490325   1489504   1488251  
  9260.000000   1487011   1486079   1485562   1485394   1485386  
  9250.000000   1485339   1485052   1484431   1483451   1482218  
  9240.000000   1480874   1479610   1478550   1477731   1477020  
  9230.000000   1476157   1474821   1472762   1469943   1466589  
  9220.000000   1463179   1460274   1458337   1457490   1457462  
  9210.000000   1457654   1457424   1456290   1454180   1451435  
  9200.000000   1448745   1446834   1446218   1447004   1448921  
  9190.000000   1451451   1454053   1456377   1458349   1460139  
  9180.000000   1461981   1464053   1466344   1468695   1470836  
  9170.000000   1472489   1473453   1473611   1472972   1471584  
  9160.000000   1469554   1466986   1464018   1460828   1457605  
  9150.000000   1454545   1451769   1449406   1447552   1446389  
  9140.000000   1446099   1446919   1448971   1452214   1456294  
  9130.000000   1460582   1464291   1466663   1467212   1465807  
  9120.000000   1462770   1458701   1454372   1450419   1447246  
  9110.000000   1444929   1443312   1442117   1441045   1439920  
  9100.000000   1438697   1437519   1436611   1436262   1436706  
  9090.000000   1438052   1440225   1442926   1445722   1448086  
  9080.000000   1449602   1450032   1449464   1448230   1446832  
  9070.000000   1445742   1445264   1445446   1446101   1446929  
  9060.000000   1447658   1448165   1448484   1448787   1449239  
  9050.000000   1449943   1450843   1451780   1452554   1453017  
  9040.000000   1453140   1452981   1452646   1452217   1451721  
  9030.000000   1451145   1450451   1449648   1448798   1448025  
  9020.000000   1447453   1447170   1447188   1447439   1447795  
  9010.000000   1448108   1448235   1448052   1447458   1446400  
  9000.000000   1444911   1443127   1441303   1439756   1438795  
  8990.000000   1438589   1439100   1440047   1440998   1441495  
  8980.000000   1441234   1440175   1438584   1436936   1435751  
  8970.000000   1435413   1436060   1437556   1439574   1441709  
  8960.000000   1443613   1445067   1446007   1446483   1446591  
  8950.000000   1446449   1446158   1445824   1445538   1445381  
  8940.000000   1445391   1445554   1445783   1445952   1445941  
  8930.000000   1445672   1445141   1444388   1443479   1442434  
  8920.000000   1441225   1439781   1438064   1436125   1434155  
  8910.000000   1432462   1431413   1431317   1432317   1434325  
  8900.000000   1437028   1439974   1442695   1444836   1446240  
  8890.000000   1446975   1447303   1447571   1448105   1449099  
  8880.000000   1450573   1452364   1454196   1455744   1456748  
  8870.000000   1457057   1456680   1455749   1454479   1453098  
  8860.000000   1451810   1450752   1450005   1449594   1449521  
  8850.000000   1449789   1450395   1451351   1452658   1454324  
  8840.000000   1456340   1458687   1461319   1464136   1466993  
  8830.000000   1469673   1471956   1473644   1474640   1474971  
  8820.000000   1474786   1474343   1473916   1473755   1473994  
  8810.000000   1474659   1475666   1476870   1478083   1479115  
  8800.000000   1479774   1479885   1479323   1478047   1476164  
  8790.000000   1473920   1471692   1469891   1468868   1468801  
  8780.000000   1469655   1471199   1473123   1475134   1477063  
  8770.000000   1478872   1480627   1482405   1484230   1486024  
  8760.000000   1487677   1489090   1490299   1491439   1492746  
  8750.000000   1494401   1496465   1498783   1501044   1502875  
  8740.000000   1503999   1504348   1504094   1503608   1503310  
  8730.000000   1503575   1504596   1506399   1508832   1511683  
  8720.000000   1514706   1517690   1520442   1522784   1524564  
  8710.000000   1525668   1526066   1525827   1525117   1524163  
  8700.000000   1523200   1522420   1521950   1521859   1522196  
  8690.000000   1522994   1524271   1525982   1527998   1530075  
  8680.000000   1531905   1533184   1533750   1533652   1533186  
  8670.000000   1532819   1533064   1534311   1536718   1540174  
  8660.000000   1544345   1548777   1553017   1556704   1559628  
  8650.000000   1561714   1563006   1563607   1563684   1563434  
  8640.000000   1563094   1562891   1563007   1563538   1564465  
  8630.000000   1565696   1567073   1568486   1569879   1571306  
  8620.000000   1572863   1574630   1576609   1578669   1580590  
  8610.000000   1582102   1583005   1583224   1582870   1582208  
  8600.000000   1581604   1581428   1581961   1583334   1585477  
  8590.000000   1588172   1591087   1593875   1596248   1598052  
  8580.000000   1599297   1600130   1600769   1601415   1602182  
  8570.000000   1603061   1603948   1604696   1605212   1605506  
  8560.000000   1605724   1606077   1606761   1607853   1609269  
  8550.000000   1610773   1612061   1612899   1613219   1613181  
  8540.000000   1613100   1613390   1614393   1616301   1619051  
  8530.000000   1622394   1625956   1629329   1632157   1634176  
  8520.000000   1635262   1635387   1634628   1633134   1631161  
  8510.000000   1629022   1627057   1625579   1624819   1624890  
  8500.000000   1625750   1627267   1629228   1631441   1633721  
  8490.000000   1635940   1638003   1639837   1641392   1642617  
  8480.000000   1643528   1644167   1644655   1645106   1645645  
  8470.000000   1646304   1647056   1647800   1648426   1648872  
  8460.000000   1649152   1649397   1649794   1650559   1651841  
  8450.000000   1653710   1656127   1658962   1662012   1665041  
  8440.000000   1667819   1670128   1671786   1672683   1672815  
  8430.000000   1672303   1671383   1670378   1669621   1669378  
  8420.000000   1669748   1670651   1671844   1673012   1673856  
  8410.000000   1674185   1673957   1673287   1672385   1671488  
  8400.000000   1670784   1670399   1670391   1670783   1671564  
  8390.000000   1672726   1674233   1676034   1678021   1680046  
  8380.000000   1681928   1683492   1684608   1685187   1685207  
  8370.000000   1684682   1683675   1682279   1680628   1678897  
  8360.000000   1677301   1676080   1675436   1675491   1676224  
  8350.000000   1677484   1679000   1680453   1681548   1682090  
  8340.000000   1682042   1681520   1680754   1680016   1679554  
  8330.000000   1679538   1680030   1680985   1682261   1683680  
  8320.000000   1685050   1686217   1687065   1687534   1687597  
  8310.000000   1687262   1686553   1685511   1684193   1682681  
  8300.000000   1681092   1679571   1678262   1677284   1676686  
  8290.000000   1676437   1676424   1676483   1676450   1676210  
  8280.000000   1675738   1675099   1674427   1673873   1673557  
  8270.000000   1673539   1673814   1674333   1675030   1675848  
  8260.000000   1676742   1677667   1678563   1679329   1679838  
  8250.000000   1679954   1679579   1678684   1677339   1675700  
  8240.000000   1673972   1672371   1671053   1670119   1669558  
  8230.000000   1669319   1669289   1669369   1669463   1669508  
  8220.000000   1669453   1669257   1668873   1668248   1667323  
  8210.000000   1666056   1664446   1662556   1660520   1658527  
  8200.000000   1656778   1655440   1654588   1654188   1654078  
  8190.000000   1654023   1653762   1653101   1651956   1650396  
  8180.000000   1648605   1646846   1645366   1644344   1643839  
  8170.000000   1643782   1643992   1644221   1644209   1643736  
  8160.000000   1642671   1640991   1638787   1636241   1633591  
  8150.000000   1631077   1628899   1627155   1625843   1624861  
  8140.000000   1624056   1623279   1622426   1621483   1620498  
  8130.000000   1619577   1618825   1618312   1618052   1617995  
  8120.000000   1618055   1618116   1618070   1617821   1617303  
  8110.000000   1616473   1615332   1613917   1612305   1610607  
  8100.000000   1608939   1607404   1606059   1604908   1603906  
  8090.000000   1602980   1602063   1601116   1600134   1599146  
  8080.000000   1598185   1597281   1596445   1595671   1594955  
  8070.000000   1594292   1593691   1593152   1592668   1592195  
  8060.000000   1591671   1591015   1590167   1589098   1587844  
  8050.000000   1586482   1585126   1583889   1582864   1582102  
  8040.000000   1581614   1581379   1581357   1581497   1581743  
  8030.000000   1582040   1582333   1582570   1582715   1582744  
  8020.000000   1582659   1582474   1582215   1581904   1581556  
  8010.000000   1581172   1580739   1580237   1579639   1578929  
  8000.000000   1578093   1577141   1576100   1575019   1573959  
  7990.000000   1572984   1572140   1571440   1570859   1570344  
  7980.000000   1569834   1569283   1568681   1568048   1567433  
  7970.000000   1566876   1566400   1565992   1565629   1565280  
  7960.000000   1564946   1564652   1564438   1564338   1564347  
  7950.000000   1564423   1564492   1564499   1564429   1564329  
  7940.000000   1564297   1564425   1564747   1565195   1565601  
  7930.000000   1565736   1565401   1564492   1563064   1561313  
  7920.000000   1559527   1557994   1556914   1556357   1556259  
  7910.000000   1556471   1556829   1557210   1557557   1557877  
  7900.000000   1558198   1558537   1558871   1559144   1559293  
  7890.000000   1559277   1559106   1558839   1558568   1558383  
  7880.000000   1558340   1558443   1558639   1558846   1558968  
  7870.000000   1558932   1558700   1558279   1557710   1557052  
  7860.000000   1556362   1555673   1554991   1554296   1553555  
  7850.000000   1552749   1551881   1550996   1550163   1549467  
  7840.000000   1548972   1548704   1548642   1548713   1548822  
  7830.000000   1548869   1548788   1548546   1548157   1547671  
  7820.000000   1547157   1546694   1546355   1546201   1546262  
  7810.000000   1546540   1546983   1547507   1547989   1548315  
  7800.000000   1548395   1548202   1547771   1547186   1546545  
  7790.000000   1545910   1545280   1544578   1543691   1542515  
  7780.000000   1541016   1539271   1537458   1535830   1534619  
  7770.000000   1533989   1533959   1534421   1535153   1535907  
  7760.000000   1536466   1536706   1536608   1536233   1535684  
  7750.000000   1535049   1534379   1533669   1532892   1532011  
  7740.000000   1531026   1529962   1528882   1527849   1526913  
  7730.000000   1526098   1525400   1524809   1524312   1523919  
  7720.000000   1523642   1523495   1523465   1523520   1523602  
  7710.000000   1523652   1523633   1523536   1523385   1523206  
  7700.000000   1523015   1522776   1522420   1521840   1520955  
  7690.000000   1519727   1518211   1516550   1514947   1513630  
  7680.000000   1512773   1512480   1512738   1513453   1514458  
  7670.000000   1515571   1516618   1517455   1517986   1518150  
  7660.000000   1517937   1517365   1516502   1515432   1514274  
  7650.000000   1513132   1512108   1511263   1510628   1510202  
  7640.000000   1509961   1509881   1509937   1510115   1510407  
  7630.000000   1510794   1511256   1511751   1512242   1512679  
  7620.000000   1513036   1513296   1513472   1513590   1513702  
  7610.000000   1513864   1514136   1514559   1515150   1515892  
  7600.000000   1516733   1517593   1518394   1519066   1519578  
  7590.000000   1519930   1520161   1520319   1520454   1520591  
  7580.000000   1520744   1520910   1521098   1521335   1521667  
  7570.000000   1522148   1522813   1523661   1524646   1525684  
  7560.000000   1526687   1527588   1528370   1529061   1529736  
  7550.000000   1530468   1531314   1532276   1533319   1534368  
  7540.000000   1535362   1536258   1537066   1537825   1538604  
  7530.000000   1539460   1540431   1541515   1542688   1543910  
  7520.000000   1545151   1546404   1547689   1549041   1550500  
  7510.000000   1552083   1553784   1555552   1557321   1558990  
  7500.000000   1560475   1561701   1562647   1563341   1563874  
  7490.000000   1564376   1565006   1565914   1567216   1568955  
  7480.000000   1571096   1573523   1576079   1578585   1580892  
  7470.000000   1582901   1584598   1586032   1587321   1588597  
  7460.000000   1590002   1591637   1593573   1595812   1598314  
  7450.000000   1600994   1603751   1606482   1609106   1611577  
  7440.000000   1613894   1616097   1618251   1620423   1622666  
  7430.000000   1625012   1627461   1629999   1632601   1635252  
  7420.000000   1637933   1640629   1643301   1645890   1648314  
  7410.000000   1650483   1652333   1653839   1655044   1656043  
  7400.000000   1656969   1657958   1659114   1660503   1662138  
  7390.000000   1664004   1666070   1668309   1670699   1673217  
  7380.000000   1675829   1678475   1681084   1683580   1685916  
  7370.000000   1688077   1690096   1692035   1693975   1695981  
  7360.000000   1698097   1700329   1702657   1705042   1707439  
  7350.000000   1709807   1712105   1714303   1716374   1718317  
  7340.000000   1720145   1721897   1723629   1725397   1727242  
  7330.000000   1729175   1731172   1733185   1735145   1737002  
  7320.000000   1738719   1740303   1741773   1743176   1744553  
  7310.000000   1745947   1747379   1748862   1750383   1751918  
  7300.000000   1753422   1754842   1756115   1757194   1758052  
  7290.000000   1758705   1759196   1759605   1760018   1760518  
  7280.000000   1761162   1761977   1762964   1764097   1765335  
  7270.000000   1766624   1767909   1769135   1770262   1771263  
  7260.000000   1772151   1772955   1773745   1774584   1775538  
  7250.000000   1776633   1777872   1779212   1780613   1782031  
  7240.000000   1783466   1784942   1786526   1788276   1790246  
  7230.000000   1792430   1794792   1797240   1799690   1802060  
  7220.000000   1804329   1806512   1808695   1810975   1813472  
  7210.000000   1816257   1819361   1822730   1826271   1829838  
  7200.000000   1833319   1836627   1839769   1842806   1845872  
  7190.000000   1849093   1852586   1856385   1860470   1864740  
  7180.000000   1869084   1873388   1877603   1881715   1885778  
  7170.000000   1889839   1893963   1898150   1902393   1906628  
  7160.000000   1910820   1914934   1918999   1923072   1927272  
  7150.000000   1931722   1936560   1941871   1947697   1953981  
  7140.000000   1960607   1967383   1974130   1980678   1986962  
  7130.000000   1992977   1998819   2004601   2010466   2016493  
  7120.000000   2022740   2029187   2035809   2042562   2049435  
  7110.000000   2056421   2063528   2070742   2078034   2085346  
  7100.000000   2092633   2099864   2107063   2114272   2121557  
  7090.000000   2128950   2136450   2143995   2151511   2158917  
  7080.000000   2166186   2173326   2180397   2187455   2194541  
  7070.000000   2201648   2208741   2215776   2222738   2229660  
  7060.000000   2236621   2243717   2251023   2258567   2266307  
  7050.000000   2274157   2282004   2289758   2297356   2304782  
  7040.000000   2312038   2319137   2326077   2332851   2339446  
  7030.000000   2345871   2352144   2358310   2364404   2370460  
  7020.000000   2376472   2382423   2388268   2393981   2399536  
  7010.000000   2404949   2410241   2415459   2420636   2425810  
  7000.000000   2430990   2436184   2441369   2446533   2451642  
  6990.000000   2456688   2461647   2466521   2471299   2475975  
  6980.000000   2480515   2484884   2489029   2492920   2496548  
  6970.000000   2499960   2503232   2506475   2509765   2513154  
  6960.000000   2516613   2520081   2523452   2526656   2529651  
  6950.000000   2532472   2535177   2537856   2540558   2543304  
  6940.000000   2546057   2548766   2551365   2553816   2556094  
  6930.000000   2558207   2560154   2561948   2563591   2565106  
  6920.000000   2566515   2567872   2569223   2570611   2572042  
  6910.000000   2573501   2574941   2576323   2577618   2578830  
  6900.000000   2579979   2581098   2582203   2583297   2584362  
  6890.000000   2585386   2586370   2587342   2588343   2589419  
  6880.000000   2590584   2591826   2593094   2594329   2595476  
  6870.000000   2596513   2597449   2598323   2599179   2600056  
  6860.000000   2600972   2601930   2602917   2603912   2604886  
  6850.000000   2605805   2606626   2607311   2607829   2608182  
  6840.000000   2608403   2608562   2608742   2609024   2609454  
  6830.000000   2610043   2610761   2611566   2612410   2613269  
  6820.000000   2614128   2614988   2615836   2616651   2617394  
  6810.000000   2618026   2618513   2618848   2619035   2619100  
  6800.000000   2619064   2618954   2618784   2618582   2618366  
  6790.000000   2618169   2617997   2617849   2617686   2617458  
  6780.000000   2617106   2616605   2615963   2615236   2614495  
  6770.000000   2613810   2613208   2612677   2612164   2611616  
  6760.000000   2610997   2610319   2609629   2608995   2608463  
  6750.000000   2608042   2607690   2607337   2606903   2606336  
  6740.000000   2605622   2604783   2603864   2602914   2601966  
  6730.000000   2601040   2600141   2599276   2598447   2597665  
  6720.000000   2596930   2596240   2595574   2594915   2594242  
  6710.000000   2593550   2592839   2592117   2591379   2590615  
  6700.000000   2589799   2588903   2587903   2586796   2585590  
  6690.000000   2584305   2582961   2581575   2580153   2578711  
  6680.000000   2577261   2575836   2574467   2573186   2572000  
  6670.000000   2570893   2569817   2568719   2567542   2566257  
  6660.000000   2564858   2563371   2561834   2560291   2558771  
  6650.000000   2557291   2555847   2554427   2553006   2551558  
  6640.000000   2550056   2548485   2546834   2545113   2543339  
  6630.000000   2541547   2539763   2538008   2536284   2534577  
  6620.000000   2532865   2531126   2529348   2527533   2525691  
  6610.000000   2523840   2521987   2520139   2518295   2516461  
  6600.000000   2514648   2512877   2511167   2509534   2507976  
  6590.000000   2506471   2504984   2503471   2501892   2500215  
  6580.000000   2498428   2496529   2494538   2492490   2490435  
  6570.000000   2488431   2486537   2484797   2483220   2481782  
  6560.000000   2480423   2479072   2477662   2476163   2474586  
  6550.000000   2472980   2471410   2469925   2468543   2467236  
  6540.000000   2465952   2464626   2463215   2461710   2460144  
  6530.000000   2458574   2457069   2455689   2454469   2453419  
  6520.000000   2452523   2451737   2451008   2450265   2449449  
  6510.000000   2448507   2447424   2446215   2444937   2443662  
  6500.000000   2442466   2441396   2440459   2439623   2438830  
  6490.000000   2438022   2437158   2436229   2435252   2434255  
  6480.000000   2433262   2432282   2431306   2430317   2429300  
  6470.000000   2428256   2427195   2426134   2425091   2424076  
  6460.000000   2423089   2422130   2421194   2420285   2419398  
  6450.000000   2418524   2417645   2416731   2415751   2414686  
  6440.000000   2413532   2412304   2411030   2409739   2408454  
  6430.000000   2407187   2405944   2404730   2403561   2402457  
  6420.000000   2401439   2400521   2399702   2398964   2398284  
  6410.000000   2397642   2397028   2396446   2395904   2395401  
  6400.000000   2394926   2394450   2393942   2393375   2392745  
  6390.000000   2392064   2391361   2390658   2389970   2389288  
  6380.000000   2388592   2387865   2387100   2386317   2385547  
  6370.000000   2384834   2384204   2383667   2383205   2382785  
  6360.000000   2382365   2381908   2381388   2380789   2380104  
  6350.000000   2379335   2378488   2377584   2376652   2375733  
  6340.000000   2374866   2374090   2373416   2372845   2372346  
  6330.000000   2371884   2371410   2370884   2370262   2369520  
  6320.000000   2368635   2367610   2366460   2365224   2363950  
  6310.000000   2362693   2361483   2360336   2359223   2358105  
  6300.000000   2356924   2355647   2354250   2352747   2351159  
  6290.000000   2349517   2347833   2346118   2344362   2342569  
  6280.000000   2340745   2338915   2337098   2335314   2333552  
  6270.000000   2331793   2329992   2328116   2326137   2324060  
  6260.000000   2321898   2319685   2317441   2315182   2312906  
  6250.000000   2310608   2308281   2305936   2303583   2301249  
  6240.000000   2298949   2296695   2294483   2292305   2290143  
  6230.000000   2287980   2285797   2283580   2281317   2279001  
  6220.000000   2276634   2274227   2271802   2269383   2266996  
  6210.000000   2264657   2262377   2260157   2257995   2255887  
  6200.000000   2253827   2251807   2249813   2247825   2245821  
  6190.000000   2243789   2241730   2239663   2237622   2235637  
  6180.000000   2233727   2231885   2230089   2228301   2226493  
  6170.000000   2224655   2222800   2220952   2219136   2217362  
  6160.000000   2215623   2213897   2212167   2210428   2208693  
  6150.000000   2206987   2205332   2203727   2202150   2200553  
  6140.000000   2198895   2197149   2195326   2193462   2191616  
  6130.000000   2189836   2188155   2186575   2185080   2183647  
  6120.000000   2182263   2180921   2179632   2178399   2177227  
  6110.000000   2176102   2175015   2173954   2172926   2171943  
  6100.000000   2171026   2170182   2169412   2168691   2167999  
  6090.000000   2167311   2166627   2165954   2165318   2164740  
  6080.000000   2164239   2163815   2163474   2163211   2163037  
  6070.000000   2162957   2162982   2163094   2163273   2163470  
  6060.000000   2163649   2163774   2163851   2163897   2163961  
  6050.000000   2164077   2164285   2164591   2165007   2165528  
  6040.000000   2166169   2166943   2167876   2168971   2170225  
  6030.000000   2171598   2173049   2174527   2176008   2177481  
  6020.000000   2178969   2180489   2182069   2183712   2185415  
  6010.000000   2187158   2188925   2190698   2192468   2194220  
  6000.000000   2195944   2197622   2199246   2200813   2202342  
  5990.000000   2203861   2205409   2207014   2208693   2210439  
  5980.000000   2212235   2214061   2215911   2217788   2219714  
  5970.000000   2221710   2223790   2225951   2228184   2230472  
  5960.000000   2232810   2235194   2237635   2240132   2242680  
  5950.000000   2245247   2247801   2250301   2252724   2255067  
  5940.000000   2257351   2259612   2261890   2264216   2266611  
  5930.000000   2269085   2271638   2274269   2276967   2279716  
  5920.000000   2282483   2285226   2287897   2290452   2292866  
  5910.000000   2295133   2297271   2299310   2301280   2303212  
  5900.000000   2305125   2307040   2308972   2310944   2312970  
  5890.000000   2315063   2317215   2319411   2321619   2323810  
  5880.000000   2325964   2328070   2330130   2332145   2334117  
  5870.000000   2336036   2337898   2339701   2341467   2343225  
  5860.000000   2345028   2346917   2348925   2351057   2353304  
  5850.000000   2355641   2358054   2360538   2363102   2365760  
  5840.000000   2368519   2371369   2374287   2377237   2380186  
  5830.000000   2383113   2386011   2388885   2391739   2394574  
  5820.000000   2397375   2400125   2402795   2405371   2407827  
  5810.000000   2410158   2412341   2414368   2416210   2417870  
  5800.000000   2419337   2420646   2421809   2422874   2423845  
  5790.000000   2424736   2425511   2426148   2426591   2426817  
  5780.000000   2426785   2426487   2425905   2425050   2423929  
  5770.000000   2422586   2421069   2419461   2417836   2416273  
  5760.000000   2414817   2413494   2412296   2411208   2410212  
  5750.000000   2409304   2408489   2407777   2407175   2406670  
  5740.000000   2406247   2405869   2405516   2405166   2404824  
  5730.000000   2404490   2404185   2403912   2403685   2403503  
  5720.000000   2403377   2403312   2403325   2403420   2403603  
  5710.000000   2403861   2404181   2404541   2404930   2405341  
  5700.000000   2405777   2406240   2406731   2407245   2407775  
  5690.000000   2408318   2408879   2409473   2410115   2410816  
  5680.000000   2411565   2412337   2413084   2413757   2414306  
  5670.000000   2414699   2414913   2414945   2414791   2414464  
  5660.000000   2413974   2413355   2412646   2411904   2411180  
  5650.000000   2410515   2409920   2409383   2408865   2408331  
  5640.000000   2407747   2407110   2406428   2405730   2405040  
  5630.000000   2404377   2403750   2403160   2402613   2402114  
  5620.000000   2401672   2401292   2400963   2400664   2400363  
  5610.000000   2400031   2399653   2399231   2398780   2398323  
  5600.000000   2397875   2397438   2397002   2396553   2396077  
  5590.000000   2395576   2395051   2394510   2393944   2393341  
  5580.000000   2392674   2391924   2391083   2390168   2389205  
  5570.000000   2388229   2387258   2386297   2385330   2384337  
  5560.000000   2383298   2382214   2381094   2379962   2378835  
  5550.000000   2377722   2376619   2375521   2374422   2373329  
  5540.000000   2372256   2371220   2370228   2369276   2368342  
  5530.000000   2367404   2366442   2365455   2364451   2363451  
  5520.000000   2362471   2361515   2360578   2359643   2358695  
  5510.000000   2357725   2356727   2355704   2354655   2353580  
  5500.000000   2352474   2351343   2350194   2349053   2347937  
  5490.000000   2346864   2345823   2344792   2343728   2342597  
  5480.000000   2341375   2340065   2338686   2337269   2335833  
  5470.000000   2334390   2332930   2331442   2329908   2328329  
  5460.000000   2326702   2325032   2323306   2321509   2319617  
  5450.000000   2317616   2315517   2313357   2311195   2309092  
  5440.000000   2307092   2305209   2303432   2301731   2300082  
  5430.000000   2298467   2296893   2295363   2293892   2292472  
  5420.000000   2291106   2289785   2288534   2287376   2286366  
  5410.000000   2285529   2284889   2284416   2284080   2283820  
  5400.000000   2283615   2283439   2283323   2283284   2283369  
  5390.000000   2283588   2283963   2284479   2285151   2285970  
  5380.000000   2286967   2288135   2289494   2291009   2292673  
  5370.000000   2294433   2296296   2298235   2300297   2302484  
  5360.000000   2304861   2307427   2310246   2313315   2316712  
  5350.000000   2320447   2324609   2329194   2334264   2339767  
  5340.000000   2345729   2352081   2358872   2366064   2373744  
  5330.000000   2381882   2390555   2399701   2409367   2419479  
  5320.000000   2430109   2441224   2452948   2465272   2478331  
  5310.000000   2492091   2506648   2521932   2538022   2554855  
  5300.000000   2572528   2591008   2610412   2630713   2652010  
  5290.000000   2674237   2697427   2721440   2746226   2771609  
  5280.000000   2797544   2823937   2850854   2878327   2906493  
  5270.000000   2935382   2964997   2995185   3025722   3056334  
  5260.000000   3086778   3116922   3146725   3176264   3205588  
  5250.000000   3234756   3263668   3292218   3320153   3347345  
  5240.000000   3373607   3398976   3423417   3447085   3469974  
  5230.000000   3492205   3513684   3534438   3554305   3573299  
  5220.000000   3591298   3608401   3624577   3640003   3654684  
  5210.000000   3668775   3682206   3695023   3707051   3718278  
  5200.000000   3728544   3737921   3746371   3754068   3761029  
  5190.000000   3767408   3773158   3778342   3782853   3786736  
  5180.000000   3789914   3792480   3794406   3795790   3796587  
  5170.000000   3796855   3796527   3795663   3794233   3792340  
  5160.000000   3789989   3787277   3784184   3780757   3776945  
  5150.000000   3772791   3768274   3763475   3758412   3753166  
  5140.000000   3747734   3742147   3736368   3730409   3724248  
  5130.000000   3717923   3711447   3704873   3698214   3691504  
  5120.000000   3684740   3677947   3671129   3664320   3657531  
  5110.000000   3650784   3644073   3637391   3630713   3624032  
  5100.000000   3617339   3610655   3603994   3597379   3590810  
  5090.000000   3584280   3577760   3571227   3564651   3558029  
  5080.000000   3551354   3544642   3537896   3531126   3524320  
  5070.000000   3517470   3510550   3503545   3496426   3489179  
  5060.000000   3481786   3474250   3466576   3458800   3450955  
  5050.000000   3443095   3435257   3427476   3419758   3412101  
  5040.000000   3404478   3396867   3389243   3381595   3373920  
  5030.000000   3366224   3358519   3350818   3343139   3335497  
  5020.000000   3327914   3320405   3312992   3305677   3298473  
  5010.000000   3291370   3284374   3277475   3270694   3264031  
  5000.000000   3257524   3251180   3245042   3239111   3233424  
  4990.000000   3227973   3222792   3217868   3213234   3208867  
  4980.000000   3204793   3200978   3197445   3194166   3191180  
  4970.000000   3188474   3186102   3184053   3182370   3181018  
  4960.000000   3180015   3179308   3178916   3178795   3178984  
  4950.000000   3179458   3180262   3181367   3182803   3184526  
  4940.000000   3186565   3188883   3191525   3194477   3197792  
  4930.000000   3201448   3205478   3209832   3214516   3219468  
  4920.000000   3224694   3230146   3235842   3241752   3247903  
  4910.000000   3254267   3260871   3267691   3274750   3282026  
  4900.000000   3289531   3297239   3305147   3313220   3321446  
  4890.000000   3329794   3338247   3346780   3355366   3363969  
  4880.000000   3372543   3381044   3389423   3397648   3405687  
  4870.000000   3413533   3421166   3428591   3435789   3442765  
  4860.000000   3449498   3455999   3462256   3468295   3474115  
  4850.000000   3479751   3485206   3490521   3495702   3500793  
  4840.000000   3505797   3510752   3515646   3520497   3525276  
  4830.000000   3529982   3534579   3539062   3543400   3547588  
  4820.000000   3551598   3555425   3559044   3562458   3565659  
  4810.000000   3568673   3571511   3574216   3576808   3579321  
  4800.000000   3581763   3584153   3586485   3588774   3591009  
  4790.000000   3593205   3595350   3597454   3599503   3601499  
  4780.000000   3603428   3605297   3607095   3608830   3610491  
  4770.000000   3612084   3613594   3615023   3616360   3617613  
  4760.000000   3618772   3619844   3620809   3621661   3622366  
  4750.000000   3622917   3623287   3623489   3623521   3623417  
  4740.000000   3623185   3622852   3622404   3621842   3621135  
  4730.000000   3620276   3619245   3618055   3616715   3615260  
  4720.000000   3613710   3612101   3610443   3608759   3607052  
  4710.000000   3605336   3603616   3601910   3600222   3598567  
  4700.000000   3596946   3595366   3593817   3592296   3590789  
  4690.000000   3589283   3587761   3586211   3584622   3582988  
  4680.000000   3581312   3579594   3577843   3576057   3574243  
  4670.000000   3572393   3570513   3568606   3566694   3564799  
  4660.000000   3562964   3561221   3559611   3558155   3556877  
  4650.000000   3555782   3554879   3554164   3553641   3553297  
  4640.000000   3553127   3553104   3553210   3553409   3553683  
  4630.000000   3554001   3554353   3554719   3555091   3555448  
  4620.000000   3555779   3556065   3556301   3556480   3556614  
  4610.000000   3556714   3556799   3556882   3556975   3557083  
  4600.000000   3557208   3557353   3557521   3557719   3557951  
  4590.000000   3558222   3558528   3558866   3559225   3559594  
  4580.000000   3559963   3560324   3560668   3560991   3561286  
  4570.000000   3561552   3561786   3561990   3562167   3562319  
  4560.000000   3562447   3562550   3562624   3562663   3562663  
  4550.000000   3562619   3562534   3562408   3562246   3562052  
  4540.000000   3561834   3561598   3561360   3561128   3560931  
  4530.000000   3560775   3560690   3560679   3560771   3560963  
  4520.000000   3561297   3561768   3562432   3563283   3564380  
  4510.000000   3565711   3567341   3569259   3571552   3574231  
  4500.000000   3577412   3581126   3585495   3590544   3596369  
  4490.000000   3602964   3610385   3618585   3627573   3637255  
  4480.000000   3647590   3658440   3669728   3681302   3693089  
  4470.000000   3704972   3716921   3728876   3740852   3752834  
  4460.000000   3764850   3776896   3788979   3801077   3813163  
  4450.000000   3825196   3837126   3848917   3860531   3871967  
  4440.000000   3883219   3894329   3905313   3916227   3927076  
  4430.000000   3937899   3948662   3959377   3969973   3980442  
  4420.000000   3990692   4000708   4010383   4019696   4028534  
  4410.000000   4036867   4044579   4051648   4057973   4063558  
  4400.000000   4068341   4072363   4075610   4078154   4080013  
  4390.000000   4081279   4081995   4082269   4082169   4081816  
  4380.000000   4081299   4080744   4080245   4079918   4079852  
  4370.000000   4080138   4080846   4082028   4083716   4085903  
  4360.000000   4088573   4091669   4095138   4098901   4102899  
  4350.000000   4107070   4111374   4115787   4120302   4124926  
  4340.000000   4129668   4134530   4139480   4144442   4149275  
  4330.000000   4153794   4157771   4160997   4163303   4164635  
  4320.000000   4165042   4164714   4163899   4162907   4161990  
  4310.000000   4161363   4161110   4161263   4161746   4162486  
  4300.000000   4163366   4164314   4165249   4166128   4166902  
  4290.000000   4167543   4168026   4168347   4168513   4168558  
  4280.000000   4168518   4168446   4168376   4168352   4168376  
  4270.000000   4168464   4168584   4168711   4168768   4168678  
  4260.000000   4168326   4167613   4166439   4164758   4162564  
  4250.000000   4159924   4156941   4153768   4150548   4147423  
  4240.000000   4144480   4141775   4139300   4137024   4134879  
  4230.000000   4132805   4130741   4128643   4126488   4124262  
  4220.000000   4121970   4119617   4117224   4114807   4112406  
  4210.000000   4110052   4107800   4105686   4103751   4102005  
  4200.000000   4100449   4099048   4097772   4096562   4095401  
  4190.000000   4094250   4093131   4092042   4091043   4090150  
  4180.000000   4089435   4088913   4088657   4088679   4089059  
  4170.000000   4089813   4091027   4092712   4094942   4097697  
  4160.000000   4101022   4104862   4109235   4114071   4119391  
  4150.000000   4125130   4131330   4137940   4145013   4152509  
  4140.000000   4160487   4168913   4177847   4187254   4197187  
  4130.000000   4207597   4218521   4229896   4241747   4254015  
  4120.000000   4266728   4279842   4293394   4307348   4321736  
  4110.000000   4336521   4351724   4367302   4383259   4399543  
  4100.000000   4416140   4432987   4450060   4467305   4484707  
  4090.000000   4502233   4519876   4537616   4555437   4573321  
  4080.000000   4591242   4609195   4627160   4645149   4663136  
  4070.000000   4681124   4699048   4716884   4734538   4751986  
  4060.000000   4769140   4786005   4802499   4818635   4834317  
  4050.000000   4849555   4864247   4878426   4892009   4905055  
  4040.000000   4917472   4929301   4940413   4950827   4960408  
  4030.000000   4969201   4977104   4984192   4990380   4995719  
  4020.000000   5000081   5003514   5005964   5007513   5008106  
  4010.000000   5007905   5006998   5005444   5003042   4999903  
  4000.000000   4996395  
##END= 
