##TITLE= Sample 035 By ssteindl date Dienstag, November 20 2018
##JCAMP-DX= 4.24
##DATA TYPE= INFRARED SPECTRUM
##ORIGIN= Exported PE Spectrum Data File
##OWNER= Sandra Steindl
##DATE= 18/11/20
##TIME= 11:54:50.00
##SPECTROMETER/DATA SYSTEM= PERKIN-ELMER Frontier FT-IR/NIR IR
##INSTRUMENT PARAMETERS=
  APODIZATION=stark
  DETECTOR=INGAAS
##RESOLUTION= 16.000000
##DELTAX= -2.000000
##XUNITS= 1/CM
##YUNITS= A
##XFACTOR= 1.00
##YFACTOR= 0.00000011920928955078
##FIRSTX= 10000.00
##LASTX= 4000.00
##NPOINTS= 3001
##FIRSTY= 0.188471
##MAXY= 0.626281
##MINY= 0.164976
##XYDATA= (X++(Y..Y))
 10000.000000   1581011   1577865   1574852   1572117   1569583  
  9990.000000   1566822   1563305   1558673   1553116   1547226  
  9980.000000   1541902   1537819   1535344   1534261   1534015  
  9970.000000   1533865   1533272   1532070   1530553   1529393  
  9960.000000   1529442   1531531   1536200   1543570   1553173  
  9950.000000   1564007   1574672   1583660   1589770   1592371  
  9940.000000   1591615   1588294   1583553   1578459   1573649  
  9930.000000   1569216   1564853   1560213   1555217   1550262  
  9920.000000   1545989   1543089   1541764   1541719   1542109  
  9910.000000   1542034   1540902   1538746   1536219   1534235  
  9900.000000   1533559   1534350   1536107   1537824   1538497  
  9890.000000   1537505   1534921   1531363   1527755   1524847  
  9880.000000   1523030   1522210   1522050   1522128   1522217  
  9870.000000   1522250   1522337   1522587   1523053   1523749  
  9860.000000   1524668   1525961   1527862   1530708   1534732  
  9850.000000   1539963   1546135   1552743   1559124   1564596  
  9840.000000   1568507   1570294   1569559   1566122   1560221  
  9830.000000   1552524   1544153   1536420   1530462   1526885  
  9820.000000   1525492   1525455   1525619   1525120   1523706  
  9810.000000   1521946   1520852   1521453   1524169   1528611  
  9800.000000   1533670   1537995   1540577   1541114   1540090  
  9790.000000   1538403   1536910   1535948   1535277   1534217  
  9780.000000   1532142   1528743   1524236   1519137   1513996  
  9770.000000   1509125   1504539   1500189   1496196   1493123  
  9760.000000   1491807   1493096   1497302   1503934   1511700  
  9750.000000   1518916   1524143   1526672   1526775   1525382  
  9740.000000   1523617   1522152   1521011   1519615   1517310  
  9730.000000   1513815   1509560   1505549   1502872   1502202  
  9720.000000   1503342   1505390   1507062   1507402   1506185  
  9710.000000   1504055   1502179   1501641   1502893   1505511  
  9700.000000   1508406   1510332   1510472   1508756   1505861  
  9690.000000   1502810   1500491   1499288   1498990   1499034  
  9680.000000   1498843   1498138   1497019   1495828   1494890  
  9670.000000   1494317   1493922   1493385   1492422   1491008  
  9660.000000   1489408   1488051   1487333   1487373   1487972  
  9650.000000   1488654   1488901   1488331   1486878   1484746  
  9640.000000   1482341   1480089   1478291   1477102   1476501  
  9630.000000   1476442   1476877   1477841   1479397   1481562  
  9620.000000   1484229   1487098   1489704   1491470   1491835  
  9610.000000   1490393   1487035   1482042   1476091   1470144  
  9600.000000   1465234   1462193   1461399   1462642   1465163  
  9590.000000   1467864   1469649   1469733   1467876   1464396  
  9580.000000   1460054   1455776   1452432   1450589   1450491  
  9570.000000   1452011   1454808   1458385   1462229   1465883  
  9560.000000   1468990   1471357   1472929   1473832   1474313  
  9550.000000   1474693   1475288   1476285   1477722   1479429  
  9540.000000   1481096   1482351   1482830   1482309   1480704  
  9530.000000   1478167   1475014   1471752   1468920   1467018  
  9520.000000   1466300   1466719   1467852   1469053   1469607  
  9510.000000   1469000   1467058   1464020   1460431   1456928  
  9500.000000   1454039   1451971   1450636   1449669   1448677  
  9490.000000   1447336   1445541   1443370   1441042   1438839  
  9480.000000   1437047   1435947   1435781   1436731   1438853  
  9470.000000   1441988   1445762   1449580   1452808   1454902  
  9460.000000   1455628   1455079   1453659   1451879   1450201  
  9450.000000   1448882   1447968   1447382   1447047   1447018  
  9440.000000   1447425   1448446   1450059   1452064   1454001  
  9430.000000   1455406   1455939   1455561   1454535   1453267  
  9420.000000   1452151   1451292   1450493   1449259   1447080  
  9410.000000   1443656   1439104   1433969   1429047   1425170  
  9400.000000   1422933   1422605   1424082   1427004   1430852  
  9390.000000   1435050   1439038   1442302   1444448   1445255  
  9380.000000   1444748   1443221   1441200   1439320   1438165  
  9370.000000   1438064   1439013   1440650   1442407   1443680  
  9360.000000   1444003   1443155   1441145   1438187   1434589  
  9350.000000   1430739   1427044   1423942   1421835   1421041  
  9340.000000   1421678   1423608   1426387   1429352   1431758  
  9330.000000   1433000   1432785   1431180   1428591   1425561  
  9320.000000   1422648   1420226   1418466   1417311   1416586  
  9310.000000   1416104   1415746   1415503   1415417   1415565  
  9300.000000   1415964   1416584   1417323   1418046   1418643  
  9290.000000   1419030   1419218   1419238   1419165   1419033  
  9280.000000   1418858   1418591   1418188   1417617   1416926  
  9270.000000   1416247   1415743   1415592   1415860   1416563  
  9260.000000   1417604   1418894   1420363   1422008   1423871  
  9250.000000   1425944   1428080   1429893   1430815   1430240  
  9240.000000   1427777   1423435   1417720   1411593   1406224  
  9230.000000   1402679   1401525   1402709   1405552   1409046  
  9220.000000   1412155   1414106   1414571   1413635   1411718  
  9210.000000   1409293   1406769   1404337   1402082   1400016  
  9200.000000   1398220   1396848   1396123   1396268   1397416  
  9190.000000   1399577   1402594   1406175   1409924   1413415  
  9180.000000   1416244   1418076   1418687   1418075   1416486  
  9170.000000   1414433   1412557   1411479   1411623   1413078  
  9160.000000   1415529   1418255   1420303   1420757   1419030  
  9150.000000   1414995   1409040   1401993   1394983   1389140  
  9140.000000   1385314   1383919   1384877   1387703   1391624  
  9130.000000   1395834   1399687   1402859   1405316   1407230  
  9120.000000   1408825   1410229   1411444   1412297   1412605  
  9110.000000   1412232   1411260   1409927   1408573   1407496  
  9100.000000   1406834   1406551   1406426   1406215   1405716  
  9090.000000   1404918   1403958   1403105   1402621   1402699  
  9080.000000   1403388   1404604   1406158   1407817   1409340  
  9070.000000   1410484   1411039   1410847   1409881   1408252  
  9060.000000   1406238   1404210   1402566   1401578   1401287  
  9050.000000   1401503   1401868   1402047   1401834   1401285  
  9040.000000   1400659   1400348   1400670   1401734   1403367  
  9030.000000   1405159   1406644   1407399   1407214   1406075  
  9020.000000   1404185   1401815   1399240   1396685   1394340  
  9010.000000   1392390   1390998   1390343   1390545   1391657  
  9000.000000   1393562   1396039   1398757   1401379   1403598  
  8990.000000   1405166   1405965   1405909   1405036   1403372  
  8980.000000   1401062   1398267   1395220   1392172   1389353  
  8970.000000   1387011   1385342   1384585   1384923   1386576  
  8960.000000   1389640   1394057   1399463   1405215   1410466  
  8950.000000   1414298   1415974   1415100   1411837   1406795  
  8940.000000   1400941   1395280   1390662   1387559   1386011  
  8930.000000   1385696   1386089   1386694   1387153   1387370  
  8920.000000   1387420   1387517   1387847   1388539   1389622  
  8910.000000   1391024   1392659   1394406   1396203   1397957  
  8900.000000   1399572   1400895   1401767   1402039   1401649  
  8890.000000   1400666   1399322   1397953   1396910   1396452  
  8880.000000   1396672   1397474   1398610   1399777   1400728  
  8870.000000   1401350   1401684   1401877   1402108   1402507  
  8860.000000   1403117   1403897   1404780   1405713   1406714  
  8850.000000   1407840   1409170   1410704   1412365   1413960  
  8840.000000   1415280   1416142   1416490   1416405   1416103  
  8830.000000   1415874   1415993   1416675   1418013   1420017  
  8820.000000   1422603   1425649   1428976   1432374   1435589  
  8810.000000   1438352   1440412   1441569   1441753   1441013  
  8800.000000   1439571   1437727   1435846   1434251   1433190  
  8790.000000   1432799   1433068   1433907   1435142   1436622  
  8780.000000   1438225   1439927   1441769   1443842   1446200  
  8770.000000   1448800   1451468   1453908   1455811   1456928  
  8760.000000   1457233   1456898   1456308   1455886   1455948  
  8750.000000   1456580   1457586   1458600   1459226   1459262  
  8740.000000   1458809   1458288   1458287   1459320   1461595  
  8730.000000   1464891   1468607   1471939   1474171   1474905  
  8720.000000   1474235   1472694   1471101   1470271   1470755  
  8710.000000   1472688   1475772   1479425   1482985   1485916  
  8700.000000   1487960   1489158   1489800   1490276   1490931  
  8690.000000   1491943   1493291   1494787   1496197   1497338  
  8680.000000   1498170   1498820   1499532   1500596   1502226  
  8670.000000   1504487   1507258   1510244   1513080   1515393  
  8660.000000   1516937   1517620   1517553   1516998   1516316  
  8650.000000   1515895   1516070   1517076   1518986   1521723  
  8640.000000   1525055   1528681   1532269   1535547   1538339  
  8630.000000   1540587   1542354   1543737   1544850   1545729  
  8620.000000   1546379   1546758   1546853   1546719   1546500  
  8610.000000   1546437   1546787   1547789   1549572   1552134  
  8600.000000   1555314   1558832   1562337   1565477   1567974  
  8590.000000   1569664   1570551   1570806   1570745   1570750  
  8580.000000   1571176   1572259   1574051   1576414   1579040  
  8570.000000   1581570   1583678   1585182   1586052   1586410  
  8560.000000   1586452   1586380   1586341   1586403   1586588  
  8550.000000   1586880   1587264   1587736   1588292   1588935  
  8540.000000   1589649   1590439   1591321   1592352   1593594  
  8530.000000   1595094   1596848   1598753   1600644   1602305  
  8520.000000   1603575   1604371   1604727   1604775   1604703  
  8510.000000   1604699   1604899   1605398   1606259   1607526  
  8500.000000   1609217   1611293   1613639   1616019   1618110  
  8490.000000   1619573   1620180   1619891   1618905   1617620  
  8480.000000   1616550   1616161   1616747   1618364   1620846  
  8470.000000   1623878   1627069   1630067   1632607   1634548  
  8460.000000   1635852   1636595   1636947   1637142   1637438  
  8450.000000   1638050   1639099   1640546   1642197   1643753  
  8440.000000   1644927   1645543   1645597   1645270   1644852  
  8430.000000   1644644   1644827   1645431   1646343   1647399  
  8420.000000   1648476   1649558   1650731   1652132   1653845  
  8410.000000   1655833   1657900   1659769   1661164   1661932  
  8400.000000   1662093   1661855   1661532   1661448   1661794  
  8390.000000   1662603   1663707   1664832   1665664   1665959  
  8380.000000   1665614   1664682   1663335   1661795   1660246  
  8370.000000   1658785   1657414   1656061   1654674   1653267  
  8360.000000   1651981   1651044   1650694   1651090   1652206  
  8350.000000   1653844   1655663   1657322   1658607   1659517  
  8340.000000   1660263   1661145   1662406   1664085   1665979  
  8330.000000   1667675   1668720   1668789   1667836   1666117  
  8320.000000   1664086   1662246   1660960   1660386   1660435  
  8310.000000   1660890   1661496   1662084   1662573   1662953  
  8300.000000   1663198   1663250   1663013   1662428   1661528  
  8290.000000   1660467   1659489   1658839   1658650   1658883  
  8280.000000   1659318   1659662   1659661   1659219   1658421  
  8270.000000   1657476   1656619   1655976   1655513   1655049  
  8260.000000   1654360   1653291   1651845   1650194   1648611  
  8250.000000   1647378   1646675   1646547   1646894   1647553  
  8240.000000   1648341   1649123   1649804   1650322   1650619  
  8230.000000   1650640   1650343   1649725   1648842   1647796  
  8220.000000   1646699   1645632   1644607   1643582   1642483  
  8210.000000   1641269   1639954   1638623   1637373   1636273  
  8200.000000   1635306   1634380   1633352   1632111   1630639  
  8190.000000   1629039   1627512   1626274   1625465   1625083  
  8180.000000   1624975   1624896   1624594   1623910   1622826  
  8170.000000   1621478   1620098   1618934   1618149   1617779  
  8160.000000   1617707   1617716   1617555   1617008   1615962  
  8150.000000   1614418   1612495   1610379   1608263   1606297  
  8140.000000   1604549   1603013   1601628   1600341   1599127  
  8130.000000   1598029   1597126   1596513   1596237   1596262  
  8120.000000   1596463   1596637   1596576   1596110   1595183  
  8110.000000   1593844   1592246   1590580   1589029   1587723  
  8100.000000   1586720   1586027   1585610   1585433   1585452  
  8090.000000   1585631   1585910   1586207   1586400   1586356  
  8080.000000   1585951   1585110   1583832   1582197   1580353  
  8070.000000   1578484   1576766   1575326   1574211   1573373  
  8060.000000   1572681   1571956   1571016   1569737   1568087  
  8050.000000   1566154   1564116   1562208   1560642   1559558  
  8040.000000   1558983   1558831   1558939   1559104   1559154  
  8030.000000   1558959   1558461   1557648   1556546   1555196  
  8020.000000   1553667   1552048   1550474   1549107   1548119  
  8010.000000   1547636   1547702   1548243   1549072   1549928  
  8000.000000   1550545   1550718   1550359   1549510   1548330  
  7990.000000   1547033   1545842   1544921   1544358   1544149  
  7980.000000   1544221   1544459   1544738   1544946   1544999  
  7970.000000   1544852   1544493   1543947   1543265   1542523  
  7960.000000   1541805   1541190   1540741   1540485   1540414  
  7950.000000   1540485   1540625   1540753   1540789   1540679  
  7940.000000   1540394   1539941   1539356   1538691   1538006  
  7930.000000   1537352   1536765   1536255   1535811   1535405  
  7920.000000   1535008   1534591   1534145   1533677   1533211  
  7910.000000   1532779   1532412   1532129   1531936   1531815  
  7900.000000   1531745   1531701   1531671   1531658   1531687  
  7890.000000   1531783   1531973   1532259   1532623   1533016  
  7880.000000   1533373   1533631   1533737   1533674   1533453  
  7870.000000   1533126   1532757   1532427   1532197   1532108  
  7860.000000   1532166   1532331   1532529   1532651   1532583  
  7850.000000   1532217   1531488   1530392   1528999   1527451  
  7840.000000   1525938   1524668   1523814   1523492   1523722  
  7830.000000   1524442   1525507   1526740   1527959   1529013  
  7820.000000   1529803   1530278   1530436   1530296   1529892  
  7810.000000   1529255   1528417   1527419   1526315   1525190  
  7800.000000   1524137   1523262   1522632   1522273   1522122  
  7790.000000   1522059   1521905   1521484   1520668   1519418  
  7780.000000   1517809   1516005   1514225   1512671   1511472  
  7770.000000   1510655   1510142   1509796   1509473   1509080  
  7760.000000   1508602   1508099   1507659   1507361   1507222  
  7750.000000   1507186   1507149   1506986   1506625   1506046  
  7740.000000   1505310   1504506   1503726   1503015   1502369  
  7730.000000   1501739   1501080   1500376   1499672   1499058  
  7720.000000   1498641   1498503   1498660   1499063   1499603  
  7710.000000   1500156   1500620   1500935   1501095   1501123  
  7700.000000   1501060   1500932   1500750   1500511   1500207  
  7690.000000   1499835   1499400   1498906   1498354   1497742  
  7680.000000   1497066   1496342   1495607   1494924   1494361  
  7670.000000   1493972   1493769   1493712   1493720   1493696  
  7660.000000   1493563   1493286   1492894   1492450   1492040  
  7650.000000   1491723   1491526   1491430   1491401   1491398  
  7640.000000   1491411   1491450   1491552   1491754   1492075  
  7630.000000   1492509   1493023   1493571   1494108   1494602  
  7620.000000   1495037   1495407   1495717   1495964   1496150  
  7610.000000   1496272   1496332   1496331   1496274   1496163  
  7600.000000   1496005   1495812   1495608   1495429   1495322  
  7590.000000   1495330   1495483   1495773   1496169   1496613  
  7580.000000   1497054   1497466   1497865   1498301   1498850  
  7570.000000   1499567   1500479   1501552   1502715   1503870  
  7560.000000   1504945   1505890   1506713   1507444   1508140  
  7550.000000   1508837   1509565   1510326   1511128   1511979  
  7540.000000   1512911   1513964   1515174   1516555   1518091  
  7530.000000   1519739   1521444   1523158   1524862   1526552  
  7520.000000   1528246   1529940   1531608   1533183   1534590  
  7510.000000   1535765   1536702   1537462   1538177   1539012  
  7500.000000   1540125   1541608   1543462   1545593   1547850  
  7490.000000   1550064   1552110   1553913   1555486   1556883  
  7480.000000   1558198   1559513   1560902   1562410   1564083  
  7470.000000   1565957   1568074   1570457   1573099   1575949  
  7460.000000   1578918   1581892   1584768   1587469   1589984  
  7450.000000   1592337   1594591   1596793   1598981   1601151  
  7440.000000   1603290   1605384   1607444   1609513   1611654  
  7430.000000   1613936   1616396   1619043   1621833   1624702  
  7420.000000   1627574   1630380   1633068   1635595   1637934  
  7410.000000   1640058   1641957   1643637   1645140   1646542  
  7400.000000   1647946   1649458   1651164   1653116   1655313  
  7390.000000   1657725   1660290   1662952   1665660   1668377  
  7380.000000   1671076   1673726   1676303   1678780   1681145  
  7370.000000   1683394   1685549   1687639   1689706   1691787  
  7360.000000   1693915   1696118   1698417   1700831   1703363  
  7350.000000   1706010   1708736   1711502   1714247   1716928  
  7340.000000   1719518   1722018   1724443   1726806   1729101  
  7330.000000   1731295   1733336   1735177   1736797   1738222  
  7320.000000   1739520   1740797   1742150   1743663   1745359  
  7310.000000   1747227   1749202   1751215   1753187   1755067  
  7300.000000   1756815   1758418   1759872   1761180   1762355  
  7290.000000   1763410   1764362   1765227   1766014   1766736  
  7280.000000   1767401   1768035   1768674   1769372   1770181  
  7270.000000   1771146   1772281   1773570   1774970   1776421  
  7260.000000   1777873   1779280   1780630   1781907   1783116  
  7250.000000   1784245   1785306   1786307   1787305   1788371  
  7240.000000   1789615   1791124   1792962   1795120   1797545  
  7230.000000   1800131   1802786   1805431   1808056   1810674  
  7220.000000   1813343   1816090   1818938   1821852   1824801  
  7210.000000   1827733   1830646   1833547   1836499   1839558  
  7200.000000   1842797   1846253   1849954   1853893   1858066  
  7190.000000   1862434   1866971   1871611   1876306   1880981  
  7180.000000   1885602   1890138   1894614   1899057   1903527  
  7170.000000   1908049   1912655   1917331   1922077   1926875  
  7160.000000   1931742   1936691   1941759   1946960   1952316  
  7150.000000   1957819   1963482   1969300   1975304   1981497  
  7140.000000   1987897   1994457   2001127   2007803   2014413  
  7130.000000   2020890   2027253   2033554   2039914   2046448  
  7120.000000   2053270   2060429   2067933   2075720   2083710  
  7110.000000   2091795   2099890   2107909   2115809   2123562  
  7100.000000   2131189   2138727   2146252   2153831   2161528  
  7090.000000   2169361   2177323   2185362   2193427   2201466  
  7080.000000   2209454   2217387   2225273   2233120   2240931  
  7070.000000   2248698   2256427   2264130   2271841   2279591  
  7060.000000   2287398   2295244   2303073   2310812   2318396  
  7050.000000   2325815   2333107   2340372   2347714   2355221  
  7040.000000   2362906   2370730   2378594   2386398   2394050  
  7030.000000   2401506   2408740   2415752   2422523   2429041  
  7020.000000   2435290   2441305   2447150   2452946   2458805  
  7010.000000   2464819   2470990   2477260   2483495   2489576  
  7000.000000   2495407   2500989   2506367   2511645   2516897  
  6990.000000   2522164   2527415   2532596   2537628   2542472  
  6980.000000   2547111   2551578   2555900   2560121   2564247  
  6970.000000   2568297   2572269   2576188   2580061   2583904  
  6960.000000   2587688   2591371   2594874   2598139   2601119  
  6950.000000   2603835   2606335   2608710   2611035   2613380  
  6940.000000   2615764   2618196   2620649   2623106   2625530  
  6930.000000   2627899   2630168   2632308   2634289   2636120  
  6920.000000   2637831   2639486   2641147   2642861   2644630  
  6910.000000   2646419   2648168   2649836   2651406   2652910  
  6900.000000   2654394   2655902   2657436   2658958   2660396  
  6890.000000   2661691   2662822   2663837   2664828   2665904  
  6880.000000   2667140   2668551   2670083   2671643   2673125  
  6870.000000   2674464   2675637   2676671   2677611   2678504  
  6860.000000   2679376   2680238   2681094   2681951   2682815  
  6850.000000   2683696   2684583   2685456   2686276   2687025  
  6840.000000   2687705   2688358   2689047   2689833   2690738  
  6830.000000   2691734   2692740   2693655   2694392   2694915  
  6820.000000   2695243   2695454   2695637   2695875   2696214  
  6810.000000   2696663   2697196   2697780   2698369   2698926  
  6800.000000   2699399   2699744   2699916   2699900   2699709  
  6790.000000   2699411   2699093   2698859   2698772   2698849  
  6780.000000   2699037   2699246   2699364   2699314   2699051  
  6770.000000   2698596   2697993   2697313   2696609   2695924  
  6760.000000   2695273   2694665   2694092   2693549   2693017  
  6750.000000   2692479   2691912   2691305   2690656   2689989  
  6740.000000   2689334   2688725   2688177   2687684   2687209  
  6730.000000   2686708   2686140   2685491   2684768   2684002  
  6720.000000   2683221   2682444   2681659   2680841   2679955  
  6710.000000   2678979   2677912   2676782   2675624   2674486  
  6700.000000   2673393   2672356   2671357   2670368   2669343  
  6690.000000   2668243   2667031   2665686   2664206   2662610  
  6680.000000   2660934   2659231   2657546   2655926   2654392  
  6670.000000   2652953   2651597   2650310   2649068   2647853  
  6660.000000   2646638   2645399   2644099   2642712   2641219  
  6650.000000   2639624   2637947   2636227   2634497   2632780  
  6640.000000   2631067   2629339   2627562   2625721   2623821  
  6630.000000   2621896   2619987   2618136   2616357   2614636  
  6620.000000   2612934   2611206   2609411   2607532   2605571  
  6610.000000   2603548   2601489   2599421   2597369   2595360  
  6600.000000   2593419   2591570   2589820   2588155   2586527  
  6590.000000   2584876   2583134   2581259   2579246   2577135  
  6580.000000   2574998   2572912   2570940   2569108   2567403  
  6570.000000   2565779   2564176   2562540   2560832   2559040  
  6560.000000   2557176   2555275   2553387   2551568   2549873  
  6550.000000   2548335   2546959   2545713   2544535   2543348  
  6540.000000   2542085   2540708   2539222   2537660   2536078  
  6530.000000   2534518   2533010   2531553   2530135   2528743  
  6520.000000   2527375   2526042   2524757   2523523   2522330  
  6510.000000   2521155   2519973   2518777   2517582   2516422  
  6500.000000   2515333   2514333   2513410   2512522   2511614  
  6490.000000   2510640   2509582   2508452   2507284   2506109  
  6480.000000   2504942   2503774   2502580   2501343   2500065  
  6470.000000   2498774   2497511   2496311   2495184   2494111  
  6460.000000   2493052   2491968   2490844   2489696   2488564  
  6450.000000   2487492   2486507   2485601   2484740   2483876  
  6440.000000   2482970   2482008   2481003   2479981   2478970  
  6430.000000   2477978   2477000   2476015   2475003   2473952  
  6420.000000   2472861   2471739   2470594   2469434   2468266  
  6410.000000   2467109   2465992   2464953   2464027   2463228  
  6400.000000   2462542   2461923   2461312   2460657   2459935  
  6390.000000   2459154   2458351   2457567   2456831   2456140  
  6380.000000   2455471   2454792   2454079   2453337   2452594  
  6370.000000   2451889   2451256   2450705   2450220   2449769  
  6360.000000   2449313   2448826   2448292   2447705   2447060  
  6350.000000   2446347   2445554   2444683   2443748   2442790  
  6340.000000   2441863   2441020   2440290   2439674   2439135  
  6330.000000   2438624   2438083   2437476   2436781   2435997  
  6320.000000   2435127   2434179   2433150   2432049   2430888  
  6310.000000   2429699   2428516   2427378   2426293   2425252  
  6300.000000   2424204   2423095   2421862   2420470   2418905  
  6290.000000   2417187   2415344   2413416   2411432   2409421  
  6280.000000   2407394   2405369   2403339   2401305   2399242  
  6270.000000   2397138   2394970   2392744   2390477   2388216  
  6260.000000   2386003   2383873   2381823   2379817   2377785  
  6250.000000   2375653   2373359   2370886   2368251   2365512  
  6240.000000   2362734   2359982   2357294   2354688   2352159  
  6230.000000   2349697   2347284   2344905   2342546   2340192  
  6220.000000   2337829   2335449   2333052   2330651   2328264  
  6210.000000   2325911   2323607   2321352   2319136   2316940  
  6200.000000   2314750   2312551   2310338   2308105   2305849  
  6190.000000   2303562   2301239   2298880   2296504   2294138  
  6180.000000   2291821   2289590   2287471   2285469   2283573  
  6170.000000   2281759   2280001   2278275   2276563   2274847  
  6160.000000   2273110   2271327   2269480   2267555   2265559  
  6150.000000   2263518   2261478   2259488   2257591   2255805  
  6140.000000   2254125   2252521   2250949   2249368   2247748  
  6130.000000   2246077   2244363   2242625   2240891   2239179  
  6120.000000   2237508   2235875   2234272   2232682   2231095  
  6110.000000   2229508   2227942   2226433   2225031   2223779  
  6100.000000   2222709   2221814   2221069   2220416   2219806  
  6090.000000   2219193   2218569   2217942   2217346   2216803  
  6080.000000   2216333   2215922   2215554   2215191   2214822  
  6070.000000   2214436   2214055   2213693   2213381   2213125  
  6060.000000   2212940   2212821   2212779   2212819   2212966  
  6050.000000   2213231   2213631   2214157   2214801   2215533  
  6040.000000   2216341   2217204   2218134   2219135   2220237  
  6030.000000   2221450   2222795   2224265   2225859   2227553  
  6020.000000   2229329   2231155   2233010   2234868   2236718  
  6010.000000   2238549   2240366   2242170   2243972   2245766  
  6000.000000   2247547   2249297   2251003   2252651   2254249  
  5990.000000   2255809   2257364   2258947   2260597   2262339  
  5980.000000   2264198   2266183   2268297   2270532   2272874  
  5970.000000   2275300   2277790   2280316   2282866   2285426  
  5960.000000   2288000   2290583   2293181   2295783   2298386  
  5950.000000   2300976   2303555   2306128   2308716   2311337  
  5940.000000   2314008   2316729   2319485   2322253   2325011  
  5930.000000   2327747   2330468   2333194   2335945   2338734  
  5920.000000   2341553   2344379   2347180   2349928   2352607  
  5910.000000   2355219   2357772   2360273   2362721   2365106  
  5900.000000   2367415   2369648   2371821   2373972   2376145  
  5890.000000   2378381   2380700   2383097   2385543   2388003  
  5880.000000   2390449   2392865   2395256   2397630   2399996  
  5870.000000   2402347   2404672   2406947   2409164   2411320  
  5860.000000   2413440   2415551   2417697   2419909   2422220  
  5850.000000   2424649   2427216   2429930   2432798   2435811  
  5840.000000   2438951   2442185   2445478   2448800   2452132  
  5830.000000   2455465   2458799   2462131   2465444   2468715  
  5820.000000   2471902   2474980   2477923   2480734   2483413  
  5810.000000   2485975   2488407   2490701   2492812   2494728  
  5800.000000   2496420   2497914   2499222   2500397   2501449  
  5790.000000   2502402   2503224   2503900   2504376   2504634  
  5780.000000   2504633   2504372   2503826   2502997   2501877  
  5770.000000   2500492   2498873   2497087   2495203   2493299  
  5760.000000   2491431   2489640   2487944   2486357   2484891  
  5750.000000   2483572   2482429   2481484   2480746   2480192  
  5740.000000   2479785   2479468   2479199   2478939   2478685  
  5730.000000   2478434   2478208   2478010   2477860   2477757  
  5720.000000   2477725   2477774   2477933   2478209   2478606  
  5710.000000   2479096   2479643   2480201   2480739   2481241  
  5700.000000   2481717   2482187   2482677   2483199   2483753  
  5690.000000   2484329   2484914   2485501   2486088   2486682  
  5680.000000   2487280   2487872   2488430   2488921   2489308  
  5670.000000   2489564   2489669   2489627   2489440   2489127  
  5660.000000   2488706   2488206   2487655   2487091   2486539  
  5650.000000   2486019   2485525   2485038   2484524   2483956  
  5640.000000   2483317   2482615   2481873   2481123   2480396  
  5630.000000   2479710   2479073   2478484   2477946   2477464  
  5620.000000   2477044   2476688   2476386   2476113   2475836  
  5610.000000   2475524   2475162   2474754   2474321   2473891  
  5600.000000   2473481   2473097   2472721   2472335   2471915  
  5590.000000   2471458   2470964   2470447   2469909   2469342  
  5580.000000   2468723   2468030   2467240   2466357   2465398  
  5570.000000   2464398   2463388   2462393   2461418   2460458  
  5560.000000   2459495   2458518   2457515   2456487   2455428  
  5550.000000   2454337   2453210   2452046   2450853   2449650  
  5540.000000   2448462   2447316   2446232   2445214   2444252  
  5530.000000   2443328   2442424   2441526   2440626   2439722  
  5520.000000   2438809   2437882   2436937   2435973   2434996  
  5510.000000   2434023   2433069   2432144   2431239   2430331  
  5500.000000   2429385   2428373   2427274   2426096   2424861  
  5490.000000   2423601   2422334   2421067   2419779   2418448  
  5480.000000   2417048   2415570   2414014   2412399   2410739  
  5470.000000   2409052   2407338   2405602   2403839   2402056  
  5460.000000   2400254   2398438   2396601   2394734   2392822  
  5450.000000   2390861   2388857   2386833   2384818   2382842  
  5440.000000   2380923   2379062   2377252   2375483   2373757  
  5430.000000   2372078   2370461   2368903   2367402   2365931  
  5420.000000   2364477   2363028   2361616   2360277   2359078  
  5410.000000   2358055   2357231   2356576   2356059   2355628  
  5400.000000   2355275   2354996   2354840   2354833   2355020  
  5390.000000   2355394   2355957   2356668   2357531   2358528  
  5380.000000   2359692   2361022   2362544   2364224   2366065  
  5370.000000   2368020   2370111   2372324   2374726   2377324  
  5360.000000   2380187   2383297   2386703   2390375   2394379  
  5350.000000   2398712   2403471   2408661   2414360   2420522  
  5340.000000   2427187   2434279   2441856   2449871   2458420  
  5330.000000   2467470   2477105   2487259   2497988   2509215  
  5320.000000   2521028   2533401   2546479   2560262   2574895  
  5310.000000   2590331   2606652   2623753   2641689   2660372  
  5300.000000   2679904   2700258   2721589   2743903   2767340  
  5290.000000   2791855   2817486   2844075   2871543   2899670  
  5280.000000   2928379   2957544   2987222   3017447   3048368  
  5270.000000   3080030   3112450   3145484   3178910   3212454  
  5260.000000   3245866   3279013   3311840   3344414   3376755  
  5250.000000   3408895   3440685   3471987   3502507   3532114  
  5240.000000   3560614   3588079   3614497   3640074   3664829  
  5230.000000   3688923   3712263   3734888   3756603   3777402  
  5220.000000   3797112   3815805   3833410   3850097   3865860  
  5210.000000   3880880   3895105   3908622   3921284   3933115  
  5200.000000   3943968   3953935   3962972   3971256   3978787  
  5190.000000   3985711   3991957   3997578   4002453   4006627  
  5180.000000   4010029   4012769   4014831   4016337   4017246  
  5170.000000   4017626   4017403   4016635   4015281   4013440  
  5160.000000   4011112   4008396   4005271   4001793   3997911  
  5150.000000   3993669   3989041   3984099   3978844   3973343  
  5140.000000   3967578   3961581   3955321   3948832   3942115  
  5130.000000   3935238   3928230   3921154   3914016   3906838  
  5120.000000   3899592   3892284   3884899   3877462   3869980  
  5110.000000   3862480   3854964   3847441   3839902   3832353  
  5100.000000   3824797   3817258   3809748   3802283   3794858  
  5090.000000   3787468   3780095   3772736   3765386   3758059  
  5080.000000   3750758   3743489   3736230   3728959   3721636  
  5070.000000   3714238   3706741   3699150   3691465   3683700  
  5060.000000   3675854   3667929   3659912   3651807   3643615  
  5050.000000   3635360   3627061   3618754   3610451   3602169  
  5040.000000   3593901   3585642   3577379   3569109   3560827  
  5030.000000   3552538   3544250   3535973   3527724   3519516  
  5020.000000   3511369   3503296   3495314   3487423   3479633  
  5010.000000   3471933   3464334   3456834   3449459   3442218  
  5000.000000   3435150   3428257   3421568   3415064   3408767  
  4990.000000   3402655   3396761   3391079   3385662   3380511  
  4980.000000   3375675   3371140   3366936   3363031   3359452  
  4970.000000   3356171   3353232   3350616   3348373   3346478  
  4960.000000   3344966   3343793   3342981   3342481   3342321  
  4950.000000   3342462   3342943   3343729   3344862   3346308  
  4940.000000   3348109   3350235   3352731   3355571   3358793  
  4930.000000   3362356   3366280   3370508   3375046   3379840  
  4920.000000   3384907   3390212   3395789   3401615   3407726  
  4910.000000   3414094   3420743   3427642   3434803   3442194  
  4900.000000   3449821   3457651   3465683   3473887   3482257  
  4890.000000   3490767   3499409   3508157   3516992   3525876  
  4880.000000   3534768   3543621   3552382   3561006   3569451  
  4870.000000   3577692   3585704   3593484   3601017   3608316  
  4860.000000   3615371   3622201   3628799   3635190   3641368  
  4850.000000   3647365   3653181   3658853   3664382   3669803  
  4840.000000   3675105   3680311   3685400   3690385   3695244  
  4830.000000   3699992   3704616   3709134   3713528   3717806  
  4820.000000   3721940   3725929   3729747   3733406   3736896  
  4810.000000   3740245   3743452   3746538   3749493   3752324  
  4800.000000   3755015   3757578   3760013   3762352   3764610  
  4790.000000   3766828   3769016   3771199   3773375   3775553  
  4780.000000   3777716   3779866   3781975   3784031   3785996  
  4770.000000   3787856   3789583   3791181   3792649   3794019  
  4760.000000   3795299   3796518   3797661   3798726   3799673  
  4750.000000   3800484   3801120   3801574   3801824   3801877  
  4740.000000   3801720   3801364   3800802   3800055   3799132  
  4730.000000   3798072   3796895   3795642   3794325   3792962  
  4720.000000   3791543   3790071   3788532   3786934   3785278  
  4710.000000   3783583   3781861   3780134   3778411   3776710  
  4700.000000   3775036   3773402   3771809   3770263   3768757  
  4690.000000   3767284   3765829   3764379   3762917   3761428  
  4680.000000   3759897   3758306   3756637   3754870   3752995  
  4670.000000   3751003   3748908   3746731   3744515   3742299  
  4660.000000   3740134   3738054   3736101   3734296   3732670  
  4650.000000   3731234   3730012   3729005   3728219   3727638  
  4640.000000   3727248   3727019   3726934   3726969   3727116  
  4630.000000   3727357   3727682   3728062   3728471   3728867  
  4620.000000   3729218   3729488   3729664   3729738   3729722  
  4610.000000   3729632   3729494   3729329   3729164   3729017  
  4600.000000   3728904   3728834   3728803   3728807   3728828  
  4590.000000   3728855   3728871   3728873   3728858   3728828  
  4580.000000   3728781   3728713   3728612   3728465   3728259  
  4570.000000   3727989   3727657   3727272   3726845   3726384  
  4560.000000   3725890   3725360   3724787   3724167   3723502  
  4550.000000   3722801   3722077   3721344   3720614   3719891  
  4540.000000   3719183   3718490   3717828   3717200   3716632  
  4530.000000   3716129   3715719   3715397   3715194   3715101  
  4520.000000   3715160   3715363   3715765   3716356   3717196  
  4510.000000   3718267   3719640   3721304   3723353   3725798  
  4500.000000   3728752   3732236   3736367   3741156   3746705  
  4490.000000   3753005   3760132   3768051   3776794   3786277  
  4480.000000   3796479   3807273   3818606   3830350   3842467  
  4470.000000   3854862   3867527   3880396   3893464   3906671  
  4460.000000   3919999   3933385   3946803   3960201   3973549  
  4450.000000   3986806   3999941   4012926   4025737   4038377  
  4440.000000   4050843   4063172   4075373   4087493   4099519  
  4430.000000   4111482   4123336   4135090   4146674   4158094  
  4420.000000   4169265   4180188   4190763   4200977   4210712  
  4410.000000   4219942   4228541   4236482   4243652   4250043  
  4400.000000   4255580   4260293   4264163   4267267   4269640  
  4390.000000   4271395   4272601   4273387   4273836   4274073  
  4380.000000   4274185   4274293   4274487   4274880   4275564  
  4370.000000   4276633   4278161   4280204   4282798   4285945  
  4360.000000   4289635   4293821   4298451   4303443   4308713  
  4350.000000   4314163   4319704   4325262   4330782   4336253  
  4340.000000   4341676   4347081   4352467   4357806   4362986  
  4330.000000   4367842   4372136   4375639   4378145   4379569  
  4320.000000   4379938   4379444   4378357   4377027   4375749  
  4310.000000   4374786   4374254   4374206   4374571   4375274  
  4300.000000   4376188   4377233   4378316   4379391   4380400  
  4290.000000   4381313   4382102   4382757   4383287   4383719  
  4280.000000   4384084   4384423   4384752   4385096   4385441  
  4270.000000   4385795   4386130   4386435   4386652   4386721  
  4260.000000   4386530   4385970   4384913   4383283   4381042  
  4250.000000   4378248   4375010   4371511   4367933   4364464  
  4240.000000   4361221   4358285   4355645   4353265   4351053  
  4230.000000   4348931   4346813   4344640   4342366   4339966  
  4220.000000   4337428   4334746   4331938   4329022   4326050  
  4210.000000   4323074   4320177   4317423   4314888   4312604  
  4200.000000   4310595   4308832   4307281   4305866   4304545  
  4190.000000   4303252   4301989   4300736   4299557   4298471  
  4180.000000   4297569   4296875   4296473   4296373   4296660  
  4170.000000   4297341   4298511   4300183   4302445   4305284  
  4160.000000   4308751   4312785   4317402   4322517   4328150  
  4150.000000   4334235   4340825   4347876   4355457   4363526  
  4140.000000   4372142   4381256   4390917   4401070   4411757  
  4130.000000   4422919   4434585   4446687   4459244   4472189  
  4120.000000   4485547   4499271   4513402   4527914   4542851  
  4110.000000   4558192   4573969   4590147   4606735   4623677  
  4100.000000   4640949   4658483   4676241   4694164   4712232  
  4090.000000   4730421   4748732   4767165   4785720   4804397  
  4080.000000   4823176   4842047   4860971   4879931   4898865  
  4070.000000   4917743   4936474   4955022   4973289   4991263  
  4060.000000   5008870   5026134   5042989   5059461   5075461  
  4050.000000   5091011   5106011   5120507   5134416   5147801  
  4040.000000   5160562   5172734   5184169   5194877   5204713  
  4030.000000   5213727   5221824   5229091   5235449   5240955  
  4020.000000   5245467   5249020   5251538   5253094   5253622  
  4010.000000   5253296   5252220   5250469   5247842   5244460  
  4000.000000   5240697  
##END= 
