##TITLE= Sample 003 By ssteindl date Dienstag, November 20 2018
##JCAMP-DX= 4.24
##DATA TYPE= INFRARED SPECTRUM
##ORIGIN= Exported PE Spectrum Data File
##OWNER= Sandra Steindl
##DATE= 18/11/20
##TIME= 09:53:29.00
##SPECTROMETER/DATA SYSTEM= PERKIN-ELMER Frontier FT-IR/NIR IR
##INSTRUMENT PARAMETERS=
  APODIZATION=stark
  DETECTOR=INGAAS
##RESOLUTION= 16.000000
##DELTAX= -2.000000
##XUNITS= 1/CM
##YUNITS= A
##XFACTOR= 1.00
##YFACTOR= 0.00000011920928955078
##FIRSTX= 10000.00
##LASTX= 4000.00
##NPOINTS= 3001
##FIRSTY= 0.187977
##MAXY= 0.703650
##MINY= 0.158976
##XYDATA= (X++(Y..Y))
 10000.000000   1576867   1572888   1570631   1571892   1575909  
  9990.000000   1580377   1583847   1586326   1588409   1590931  
  9980.000000   1594886   1600858   1608332   1615876   1621863  
  9970.000000   1625112   1625252   1622834   1618953   1614724  
  9960.000000   1610758   1607103   1603341   1599084   1594219  
  9950.000000   1589066   1584151   1579857   1576158   1572549  
  9940.000000   1568340   1563011   1556572   1549597   1543043  
  9930.000000   1537833   1534560   1533361   1534048   1536368  
  9920.000000   1540188   1545533   1552376   1560385   1568768  
  9910.000000   1576333   1581866   1584503   1584136   1581378  
  9900.000000   1577384   1573282   1569814   1567038   1564515  
  9890.000000   1561640   1558060   1553930   1549769   1546272  
  9880.000000   1543807   1542398   1541623   1541057   1540479  
  9870.000000   1540128   1540562   1542331   1545600   1549859  
  9860.000000   1554021   1556711   1556827   1553924   1548466  
  9850.000000   1541593   1534756   1529174   1525497   1523725  
  9840.000000   1523336   1523637   1524002   1524088   1523817  
  9830.000000   1523302   1522707   1522143   1521624   1521074  
  9820.000000   1520387   1519448   1518218   1516705   1515038  
  9810.000000   1513431   1512176   1511589   1511868   1513021  
  9800.000000   1514771   1516596   1517899   1518170   1517231  
  9790.000000   1515222   1512593   1509836   1507358   1505306  
  9780.000000   1503626   1502160   1500805   1499657   1498970  
  9770.000000   1499147   1500481   1503102   1506796   1511121  
  9760.000000   1515468   1519233   1521969   1523374   1523359  
  9750.000000   1521907   1519108   1515093   1510089   1504453  
  9740.000000   1498659   1493309   1488975   1486172   1485153  
  9730.000000   1485948   1488241   1491494   1494965   1497867  
  9720.000000   1499519   1499448   1497552   1494035   1489454  
  9710.000000   1484481   1479830   1476019   1473338   1471806  
  9700.000000   1471255   1471459   1472209   1473409   1475007  
  9690.000000   1476965   1479164   1481368   1483266   1484518  
  9680.000000   1484896   1484316   1482919   1481005   1478971  
  9670.000000   1477218   1476035   1475590   1475877   1476785  
  9660.000000   1478089   1479516   1480742   1481447   1481330  
  9650.000000   1480182   1477915   1474618   1470575   1466214  
  9640.000000   1462084   1458687   1456419   1455395   1455451  
  9630.000000   1456147   1456893   1457138   1456519   1455029  
  9620.000000   1452997   1451044   1449878   1450081   1451935  
  9610.000000   1455289   1459630   1464151   1468001   1470430  
  9600.000000   1470986   1469559   1466414   1462108   1457402  
  9590.000000   1453113   1449961   1448416   1448581   1450184  
  9580.000000   1452641   1455257   1457382   1458623   1458875  
  9570.000000   1458342   1457403   1456472   1455878   1455756  
  9560.000000   1456102   1456791   1457686   1458658   1459580  
  9550.000000   1460331   1460765   1460791   1460376   1459641  
  9540.000000   1458780   1458047   1457593   1457418   1457319  
  9530.000000   1456978   1456094   1454530   1452388   1449950  
  9520.000000   1447532   1445301   1443175   1440865   1438048  
  9510.000000   1434602   1430743   1427042   1424210   1422854  
  9500.000000   1423170   1424885   1427317   1429638   1431183  
  9490.000000   1431638   1431130   1430022   1428734   1427449  
  9480.000000   1426106   1424423   1422164   1419277   1416043  
  9470.000000   1412981   1410698   1409653   1409981   1411479  
  9460.000000   1413663   1415993   1418026   1419556   1420617  
  9450.000000   1421411   1422184   1423120   1424279   1425593  
  9440.000000   1426885   1427930   1428507   1428464   1427749  
  9430.000000   1426449   1424746   1422884   1421064   1419376  
  9420.000000   1417773   1416071   1414069   1411614   1408711  
  9410.000000   1405527   1402336   1399455   1397120   1395478  
  9400.000000   1394574   1394433   1395124   1396742   1399348  
  9390.000000   1402805   1406710   1410391   1413094   1414198  
  9380.000000   1413466   1411133   1407896   1404695   1402442  
  9370.000000   1401706   1402529   1404469   1406750   1408576  
  9360.000000   1409323   1408739   1406926   1404307   1401428  
  9350.000000   1398820   1396824   1395562   1394916   1394614  
  9340.000000   1394311   1393698   1392597   1391035   1389212  
  9330.000000   1387436   1385953   1384851   1384000   1383101  
  9320.000000   1381826   1379935   1377440   1374575   1371774  
  9310.000000   1369437   1367815   1366859   1366308   1365766  
  9300.000000   1364914   1363632   1362080   1360636   1359756  
  9290.000000   1359817   1360997   1363257   1366365   1369971  
  9280.000000   1373669   1377045   1379735   1381460   1382096  
  9270.000000   1381685   1380464   1378803   1377106   1375674  
  9260.000000   1374586   1373699   1372727   1371413   1369650  
  9250.000000   1367577   1365499   1363783   1362640   1362053  
  9240.000000   1361758   1361388   1360657   1359499   1358123  
  9230.000000   1356907   1356227   1356277   1356974   1358017  
  9220.000000   1359023   1359707   1360010   1360067   1360142  
  9210.000000   1360420   1360941   1361527   1361889   1361722  
  9200.000000   1360859   1359343   1357426   1355493   1353932  
  9190.000000   1353083   1353156   1354244   1356249   1358944  
  9180.000000   1361936   1364757   1366920   1368040   1367959  
  9170.000000   1366788   1364907   1362791   1360876   1359364  
  9160.000000   1358204   1357115   1355762   1353933   1351665  
  9150.000000   1349282   1347254   1346072   1346036   1347182  
  9140.000000   1349251   1351807   1354365   1356513   1357989  
  9130.000000   1358701   1358730   1358258   1357541   1356842  
  9120.000000   1356405   1356356   1356674   1357158   1357504  
  9110.000000   1357383   1356563   1355038   1353039   1350993  
  9100.000000   1349346   1348436   1348368   1349013   1350067  
  9090.000000   1351189   1352121   1352758   1353102   1353218  
  9080.000000   1353132   1352818   1352229   1351352   1350310  
  9070.000000   1349313   1348627   1348401   1348575   1348849  
  9060.000000   1348769   1347939   1346193   1343742   1341126  
  9050.000000   1339086   1338271   1338996   1341075   1343890  
  9040.000000   1346598   1348399   1348800   1347737   1345603  
  9030.000000   1343030   1340670   1338959   1338037   1337747  
  9020.000000   1337763   1337745   1337501   1337047   1336584  
  9010.000000   1336393   1336696   1337587   1338965   1340584  
  9000.000000   1342102   1343203   1343700   1343573   1342979  
  8990.000000   1342178   1341472   1341095   1341144   1341535  
  8980.000000   1342037   1342335   1342142   1341296   1339821  
  8970.000000   1337949   1336042   1334507   1333646   1333590  
  8960.000000   1334249   1335359   1336575   1337580   1338193  
  8950.000000   1338391   1338288   1338049   1337819   1337657  
  8940.000000   1337545   1337413   1337225   1336998   1336829  
  8930.000000   1336836   1337113   1337665   1338403   1339171  
  8920.000000   1339823   1340269   1340538   1340736   1341014  
  8910.000000   1341475   1342147   1342965   1343829   1344656  
  8900.000000   1345441   1346256   1347215   1348419   1349888  
  8890.000000   1351549   1353252   1354838   1356206   1357342  
  8880.000000   1358314   1359207   1360079   1360911   1361628  
  8870.000000   1362122   1362335   1362295   1362134   1362045  
  8860.000000   1362214   1362769   1363727   1365033   1366567  
  8850.000000   1368232   1369964   1371754   1373597   1375470  
  8840.000000   1377300   1378959   1380308   1381225   1381673  
  8830.000000   1381676   1381347   1380818   1380241   1379735  
  8820.000000   1379385   1379239   1379333   1379695   1380360  
  8810.000000   1381348   1382657   1384260   1386098   1388094  
  8800.000000   1390167   1392253   1394331   1396410   1398544  
  8790.000000   1400784   1403172   1405686   1408241   1410689  
  8780.000000   1412858   1414597   1415829   1416586   1417007  
  8770.000000   1417309   1417708   1418366   1419339   1420570  
  8760.000000   1421928   1423248   1424404   1425333   1426051  
  8750.000000   1426627   1427161   1427762   1428542   1429613  
  8740.000000   1431083   1433041   1435531   1438507   1441826  
  8730.000000   1445244   1448490   1451320   1453609   1455355  
  8720.000000   1456694   1457819   1458931   1460159   1461549  
  8710.000000   1463079   1464702   1466407   1468219   1470208  
  8700.000000   1472411   1474816   1477323   1479770   1481992  
  8690.000000   1483850   1485314   1486420   1487289   1488024  
  8680.000000   1488713   1489385   1490057   1490776   1491645  
  8670.000000   1492866   1494659   1497243   1500695   1504954  
  8660.000000   1509776   1514803   1519636   1523899   1527345  
  8650.000000   1529832   1531358   1531982   1531838   1531103  
  8640.000000   1530024   1528913   1528135   1528065   1529013  
  8630.000000   1531141   1534366   1538380   1542687   1546752  
  8620.000000   1550120   1552555   1554098   1555039   1555833  
  8610.000000   1556946   1558737   1561351   1564717   1568580  
  8600.000000   1572599   1576438   1579830   1582620   1584746  
  8590.000000   1586243   1587186   1587720   1588010   1588268  
  8580.000000   1588694   1589465   1590681   1592332   1594281  
  8570.000000   1596295   1598091   1599419   1600118   1600162  
  8560.000000   1599664   1598856   1598052   1597575   1597722  
  8550.000000   1598683   1600520   1603128   1606253   1609542  
  8540.000000   1612619   1615178   1617060   1618304   1619134  
  8530.000000   1619885   1620900   1622403   1624448   1626885  
  8520.000000   1629433   1631766   1633627   1634897   1635617  
  8510.000000   1635960   1636145   1636385   1636818   1637502  
  8500.000000   1638416   1639501   1640682   1641900   1643116  
  8490.000000   1644315   1645505   1646702   1647932   1649201  
  8480.000000   1650503   1651792   1653015   1654102   1655016  
  8470.000000   1655784   1656516   1657396   1658629   1660399  
  8460.000000   1662801   1665800   1669214   1672750   1676087  
  8450.000000   1678927   1681068   1682425   1683060   1683140  
  8440.000000   1682903   1682614   1682527   1682858   1683728  
  8430.000000   1685179   1687135   1689456   1691925   1694319  
  8420.000000   1696420   1698086   1699245   1699914   1700169  
  8410.000000   1700139   1699992   1699902   1700021   1700461  
  8400.000000   1701265   1702396   1703711   1705014   1706076  
  8390.000000   1706731   1706894   1706620   1706074   1705493  
  8380.000000   1705098   1705025   1705284   1705757   1706249  
  8370.000000   1706563   1706573   1706278   1705776   1705248  
  8360.000000   1704859   1704741   1704929   1705377   1705979  
  8350.000000   1706602   1707143   1707508   1707628   1707431  
  8340.000000   1706866   1705909   1704605   1703075   1701529  
  8330.000000   1700229   1699424   1699277   1699791   1700826  
  8320.000000   1702115   1703380   1704396   1705084   1705502  
  8310.000000   1705807   1706154   1706609   1707108   1707465  
  8300.000000   1707458   1706910   1705792   1704224   1702455  
  8290.000000   1700765   1699355   1698307   1697546   1696927  
  8280.000000   1696300   1695608   1694900   1694316   1694007  
  8270.000000   1694053   1694411   1694908   1695305   1695373  
  8260.000000   1694996   1694200   1693149   1692078   1691204  
  8250.000000   1690670   1690491   1690587   1690807   1691002  
  8240.000000   1691060   1690926   1690581   1690024   1689240  
  8230.000000   1688201   1686878   1685272   1683435   1681482  
  8220.000000   1679565   1677845   1676433   1675371   1674590  
  8210.000000   1673963   1673316   1672526   1671538   1670399  
  8200.000000   1669219   1668133   1667225   1666491   1665823  
  8190.000000   1665038   1663959   1662477   1660611   1658497  
  8180.000000   1656342   1654346   1652618   1651155   1649840  
  8170.000000   1648519   1647076   1645510   1643941   1642569  
  8160.000000   1641578   1641048   1640903   1640916   1640787  
  8150.000000   1640239   1639123   1637455   1635421   1633288  
  8140.000000   1631321   1629696   1628463   1627567   1626892  
  8130.000000   1626319   1625767   1625203   1624620   1624025  
  8120.000000   1623401   1622731   1621990   1621187   1620354  
  8110.000000   1619543   1618794   1618096   1617380   1616529  
  8100.000000   1615411   1613929   1612060   1609871   1607508  
  8090.000000   1605152   1602967   1601060   1599455   1598115  
  8080.000000   1596957   1595901   1594894   1593919   1592993  
  8070.000000   1592138   1591369   1590662   1589973   1589228  
  8060.000000   1588374   1587375   1586256   1585069   1583909  
  8050.000000   1582855   1581960   1581228   1580616   1580054  
  8040.000000   1579477   1578863   1578234   1577664   1577234  
  8030.000000   1577006   1576974   1577063   1577138   1577046  
  8020.000000   1576668   1575947   1574919   1573671   1572327  
  8010.000000   1570979   1569685   1568440   1567216   1565983  
  8000.000000   1564739   1563533   1562438   1561550   1560934  
  7990.000000   1560625   1560605   1560820   1561193   1561631  
  7980.000000   1562046   1562336   1562408   1562170   1561564  
  7970.000000   1560578   1559274   1557775   1556252   1554872  
  7960.000000   1553760   1552969   1552468   1552169   1551965  
  7950.000000   1551769   1551538   1551268   1550977   1550666  
  7940.000000   1550313   1549861   1549264   1548495   1547611  
  7930.000000   1546717   1545972   1545523   1545464   1545800  
  7920.000000   1546451   1547279   1548140   1548928   1549603  
  7910.000000   1550180   1550712   1551243   1551786   1552304  
  7900.000000   1552736   1553008   1553082   1552958   1552685  
  7890.000000   1552340   1551999   1551723   1551535   1551431  
  7880.000000   1551380   1551352   1551318   1551270   1551217  
  7870.000000   1551176   1551171   1551221   1551330   1551492  
  7860.000000   1551685   1551882   1552057   1552205   1552336  
  7850.000000   1552480   1552665   1552904   1553170   1553402  
  7840.000000   1553509   1553407   1553044   1552432   1551640  
  7830.000000   1550784   1549972   1549288   1548748   1548330  
  7820.000000   1547977   1547647   1547330   1547050   1546838  
  7810.000000   1546695   1546562   1546321   1545830   1544982  
  7800.000000   1543769   1542310   1540839   1539635   1538935  
  7790.000000   1538843   1539285   1540032   1540767   1541195  
  7780.000000   1541133   1540565   1539625   1538540   1537536  
  7770.000000   1536766   1536266   1535970   1535749   1535478  
  7760.000000   1535076   1534523   1533852   1533112   1532340  
  7750.000000   1531545   1530712   1529822   1528874   1527891  
  7740.000000   1526919   1526006   1525189   1524483   1523886  
  7730.000000   1523395   1523013   1522762   1522659   1522709  
  7720.000000   1522879   1523100   1523284   1523343   1523234  
  7710.000000   1522952   1522544   1522068   1521578   1521090  
  7700.000000   1520593   1520062   1519491   1518914   1518404  
  7690.000000   1518058   1517946   1518087   1518418   1518815  
  7680.000000   1519135   1519260   1519147   1518827   1518399  
  7670.000000   1517972   1517636   1517422   1517310   1517244  
  7660.000000   1517169   1517053   1516902   1516750   1516641  
  7650.000000   1516603   1516639   1516730   1516845   1516949  
  7640.000000   1517027   1517076   1517111   1517154   1517236  
  7630.000000   1517390   1517644   1518020   1518521   1519122  
  7620.000000   1519781   1520436   1521043   1521566   1522018  
  7610.000000   1522422   1522823   1523234   1523650   1524026  
  7600.000000   1524326   1524531   1524683   1524877   1525247  
  7590.000000   1525920   1526976   1528409   1530133   1531999  
  7580.000000   1533850   1535557   1537058   1538341   1539450  
  7570.000000   1540435   1541351   1542225   1543077   1543914  
  7560.000000   1544746   1545581   1546428   1547289   1548170  
  7550.000000   1549082   1550052   1551111   1552294   1553607  
  7540.000000   1555019   1556454   1557819   1559025   1560050  
  7530.000000   1560943   1561836   1562894   1564269   1566031  
  7520.000000   1568154   1570510   1572924   1575218   1577285  
  7510.000000   1579093   1580703   1582207   1583710   1585268  
  7500.000000   1586910   1588615   1590366   1592147   1593982  
  7490.000000   1595909   1597982   1600242   1602709   1605366  
  7480.000000   1608172   1611061   1613966   1616816   1619565  
  7470.000000   1622184   1624683   1627093   1629476   1631890  
  7460.000000   1634394   1637016   1639764   1642611   1645523  
  7450.000000   1648462   1651401   1654323   1657224   1660101  
  7440.000000   1662960   1665809   1668662   1671543   1674485  
  7430.000000   1677518   1680662   1683911   1687235   1690580  
  7420.000000   1693883   1697076   1700108   1702944   1705577  
  7410.000000   1708027   1710341   1712598   1714896   1717346  
  7400.000000   1720030   1722998   1726233   1729661   1733155  
  7390.000000   1736581   1739823   1742819   1745565   1748100  
  7380.000000   1750491   1752799   1755078   1757353   1759649  
  7370.000000   1761987   1764393   1766892   1769494   1772187  
  7360.000000   1774941   1777720   1780502   1783290   1786114  
  7350.000000   1789014   1792015   1795111   1798262   1801412  
  7340.000000   1804516   1807566   1810588   1813627   1816705  
  7330.000000   1819801   1822837   1825701   1828291   1830554  
  7320.000000   1832513   1834259   1835912   1837584   1839329  
  7310.000000   1841153   1843013   1844872   1846716   1848583  
  7300.000000   1850532   1852624   1854871   1857238   1859627  
  7290.000000   1861938   1864081   1866025   1867787   1869420  
  7280.000000   1870982   1872506   1873999   1875439   1876806  
  7270.000000   1878084   1879281   1880409   1881491   1882536  
  7260.000000   1883557   1884563   1885594   1886711   1888007  
  7250.000000   1889569   1891474   1893736   1896331   1899168  
  7240.000000   1902149   1905166   1908167   1911122   1914066  
  7230.000000   1917033   1920089   1923253   1926550   1929951  
  7220.000000   1933439   1936966   1940524   1944098   1947721  
  7210.000000   1951422   1955248   1959212   1963315   1967507  
  7200.000000   1971739   1975946   1980121   1984280   1988506  
  7190.000000   1992878   1997484   2002346   2007449   2012711  
  7180.000000   2018057   2023415   2028783   2034184   2039684  
  7170.000000   2045309   2051068   2056886   2062687   2068375  
  7160.000000   2073929   2079371   2084804   2090337   2096093  
  7150.000000   2102137   2108513   2115201   2122179   2129387  
  7140.000000   2136787   2144304   2151888   2159462   2166998  
  7130.000000   2174475   2181944   2189469   2197156   2205063  
  7120.000000   2213227   2221603   2230127   2238709   2247301  
  7110.000000   2255887   2264506   2273190   2281967   2290809  
  7100.000000   2299667   2308468   2317175   2325782   2334337  
  7090.000000   2342898   2351516   2360202   2368935   2377672  
  7080.000000   2386385   2395077   2403786   2412560   2421429  
  7070.000000   2430376   2439342   2448238   2456991   2465568  
  7060.000000   2473991   2482324   2490645   2499015   2507456  
  7050.000000   2515961   2524499   2533046   2541581   2550101  
  7040.000000   2558591   2567033   2575390   2583630   2591727  
  7030.000000   2599686   2607523   2615273   2622943   2630530  
  7020.000000   2638000   2645338   2652537   2659641   2666706  
  7010.000000   2673799   2680935   2688086   2695152   2702030  
  7000.000000   2708614   2714881   2720854   2726630   2732297  
  6990.000000   2737939   2743568   2749170   2754684   2760079  
  6980.000000   2765323   2770439   2775436   2780338   2785123  
  6970.000000   2789777   2794260   2798575   2802733   2806785  
  6960.000000   2810766   2814706   2818580   2822347   2825940  
  6950.000000   2829324   2832485   2835470   2838337   2841177  
  6940.000000   2844048   2847007   2850060   2853205   2856406  
  6930.000000   2859621   2862780   2865813   2868646   2871234  
  6920.000000   2873558   2875656   2877597   2879481   2881391  
  6910.000000   2883388   2885479   2887645   2889833   2891994  
  6900.000000   2894079   2896065   2897927   2899657   2901244  
  6890.000000   2902693   2904027   2905291   2906548   2907864  
  6880.000000   2909286   2910834   2912490   2914217   2915964  
  6870.000000   2917697   2919398   2921066   2922706   2924323  
  6860.000000   2925909   2927453   2928949   2930403   2931830  
  6850.000000   2933256   2934695   2936153   2937617   2939068  
  6840.000000   2940485   2941865   2943206   2944513   2945776  
  6830.000000   2946975   2948070   2949031   2949841   2950522  
  6820.000000   2951122   2951715   2952367   2953124   2953988  
  6810.000000   2954931   2955891   2956807   2957613   2958267  
  6800.000000   2958737   2959018   2959120   2959083   2958960  
  6790.000000   2958830   2958762   2958817   2959012   2959336  
  6780.000000   2959732   2960140   2960491   2960751   2960899  
  6770.000000   2960944   2960899   2960777   2960584   2960324  
  6760.000000   2960002   2959638   2959249   2958863   2958491  
  6750.000000   2958143   2957815   2957512   2957240   2957019  
  6740.000000   2956862   2956768   2956704   2956610   2956408  
  6730.000000   2956031   2955442   2954660   2953746   2952796  
  6720.000000   2951901   2951129   2950506   2950018   2949624  
  6710.000000   2949277   2948931   2948554   2948120   2947617  
  6700.000000   2947034   2946375   2945652   2944892   2944123  
  6690.000000   2943369   2942636   2941912   2941170   2940387  
  6680.000000   2939547   2938659   2937741   2936818   2935897  
  6670.000000   2934970   2934005   2932973   2931850   2930644  
  6660.000000   2929377   2928089   2926809   2925550   2924299  
  6650.000000   2923031   2921715   2920336   2918886   2917374  
  6640.000000   2915800   2914167   2912462   2910679   2908814  
  6630.000000   2906890   2904936   2902997   2901101   2899272  
  6620.000000   2897502   2895781   2894087   2892406   2890727  
  6610.000000   2889043   2887339   2885594   2883784   2881889  
  6600.000000   2879907   2877861   2875789   2873745   2871769  
  6590.000000   2869887   2868101   2866398   2864754   2863149  
  6580.000000   2861565   2859979   2858369   2856701   2854945  
  6570.000000   2853083   2851121   2849097   2847074   2845125  
  6560.000000   2843313   2841675   2840211   2838895   2837677  
  6550.000000   2836509   2835344   2834151   2832906   2831595  
  6540.000000   2830211   2828757   2827248   2825707   2824169  
  6530.000000   2822660   2821200   2819796   2818444   2817142  
  6520.000000   2815890   2814698   2813579   2812533   2811545  
  6510.000000   2810579   2809588   2808528   2807382   2806166  
  6500.000000   2804929   2803740   2802661   2801725   2800928  
  6490.000000   2800223   2799539   2798795   2797924   2796881  
  6480.000000   2795652   2794250   2792709   2791085   2789440  
  6470.000000   2787844   2786357   2785027   2783873   2782885  
  6460.000000   2782022   2781224   2780422   2779556   2778586  
  6450.000000   2777493   2776284   2774983   2773629   2772258  
  6440.000000   2770913   2769621   2768407   2767274   2766221  
  6430.000000   2765231   2764291   2763384   2762504   2761647  
  6420.000000   2760815   2760006   2759220   2758451   2757697  
  6410.000000   2756955   2756232   2755530   2754854   2754200  
  6400.000000   2753561   2752927   2752297   2751678   2751091  
  6390.000000   2750562   2750117   2749767   2749505   2749307  
  6380.000000   2749139   2748967   2748766   2748519   2748219  
  6370.000000   2747859   2747438   2746953   2746409   2745829  
  6360.000000   2745244   2744698   2744227   2743851   2743563  
  6350.000000   2743335   2743120   2742874   2742561   2742164  
  6340.000000   2741675   2741100   2740440   2739701   2738885  
  6330.000000   2738007   2737083   2736141   2735198   2734268  
  6320.000000   2733338   2732398   2731424   2730418   2729387  
  6310.000000   2728365   2727379   2726451   2725565   2724686  
  6300.000000   2723754   2722712   2721512   2720139   2718595  
  6290.000000   2716910   2715113   2713247   2711340   2709435  
  6280.000000   2707566   2705772   2704065   2702442   2700861  
  6270.000000   2699265   2697581   2695758   2693766   2691624  
  6260.000000   2689372   2687073   2684777   2682520   2680311  
  6250.000000   2678145   2676006   2673882   2671760   2669632  
  6240.000000   2667480   2665285   2663026   2660697   2658304  
  6230.000000   2655874   2653445   2651055   2648729   2646473  
  6220.000000   2644274   2642114   2639974   2637851   2635752  
  6210.000000   2633691   2631676   2629707   2627771   2625847  
  6200.000000   2623914   2621961   2619984   2617988   2615984  
  6190.000000   2613978   2611974   2609974   2607979   2605993  
  6180.000000   2604017   2602055   2600106   2598170   2596247  
  6170.000000   2594339   2592453   2590595   2588768   2586966  
  6160.000000   2585174   2583371   2581542   2579681   2577799  
  6150.000000   2575923   2574088   2572323   2570645   2569053  
  6140.000000   2567536   2566069   2564633   2563206   2561774  
  6130.000000   2560322   2558843   2557331   2555797   2554255  
  6120.000000   2552743   2551292   2549934   2548675   2547510  
  6110.000000   2546405   2545331   2544259   2543185   2542122  
  6100.000000   2541101   2540151   2539296   2538538   2537874  
  6090.000000   2537280   2536745   2536252   2535798   2535371  
  6080.000000   2534968   2534575   2534196   2533830   2533502  
  6070.000000   2533233   2533059   2532989   2533028   2533150  
  6060.000000   2533331   2533532   2533745   2533963   2534215  
  6050.000000   2534518   2534910   2535400   2536007   2536728  
  6040.000000   2537580   2538563   2539698   2540987   2542440  
  6030.000000   2544037   2545767   2547597   2549512   2551488  
  6020.000000   2553520   2555592   2557700   2559823   2561955  
  6010.000000   2564078   2566201   2568323   2570466   2572635  
  6000.000000   2574837   2577060   2579296   2581527   2583761  
  5990.000000   2586007   2588300   2590669   2593149   2595750  
  5980.000000   2598476   2601306   2604227   2607213   2610266  
  5970.000000   2613378   2616567   2619837   2623208   2626680  
  5960.000000   2630259   2633934   2637699   2641529   2645406  
  5950.000000   2649300   2653197   2657080   2660951   2664814  
  5940.000000   2668681   2672555   2676437   2680315   2684176  
  5930.000000   2688012   2691819   2695612   2699402   2703209  
  5920.000000   2707033   2710865   2714676   2718433   2722093  
  5910.000000   2725624   2728997   2732198   2735217   2738061  
  5900.000000   2740746   2743310   2745798   2748273   2750784  
  5890.000000   2753376   2756062   2758835   2761663   2764513  
  5880.000000   2767351   2770157   2772924   2775653   2778351  
  5870.000000   2781018   2783661   2786280   2788895   2791526  
  5860.000000   2794208   2796966   2799822   2802777   2805826  
  5850.000000   2808951   2812144   2815397   2818714   2822095  
  5840.000000   2825541   2829042   2832581   2836143   2839717  
  5830.000000   2843306   2846914   2850550   2854206   2857863  
  5820.000000   2861479   2865010   2868406   2871639   2874681  
  5810.000000   2877533   2880183   2882641   2884896   2886968  
  5800.000000   2888857   2890613   2892253   2893837   2895363  
  5790.000000   2896848   2898234   2899479   2900486   2901195  
  5780.000000   2901523   2901443   2900927   2900004   2898712  
  5770.000000   2897135   2895358   2893490   2891613   2889799  
  5760.000000   2888078   2886461   2884931   2883480   2882100  
  5750.000000   2880811   2879640   2878617   2877761   2877065  
  5740.000000   2876511   2876056   2875669   2875316   2874985  
  5730.000000   2874664   2874356   2874054   2873758   2873461  
  5720.000000   2873171   2872893   2872645   2872440   2872292  
  5710.000000   2872199   2872164   2872176   2872237   2872342  
  5700.000000   2872496   2872692   2872924   2873174   2873427  
  5690.000000   2873674   2873917   2874170   2874446   2874758  
  5680.000000   2875094   2875432   2875727   2875938   2876018  
  5670.000000   2875940   2875676   2875218   2874553   2873685  
  5660.000000   2872624   2871413   2870107   2868789   2867530  
  5650.000000   2866392   2865389   2864507   2863690   2862879  
  5640.000000   2862021   2861091   2860091   2859041   2857971  
  5630.000000   2856903   2855854   2854831   2853846   2852908  
  5620.000000   2852033   2851224   2850479   2849779   2849098  
  5610.000000   2848412   2847713   2847006   2846311   2845649  
  5600.000000   2845033   2844457   2843903   2843346   2842769  
  5590.000000   2842167   2841547   2840917   2840277   2839614  
  5580.000000   2838901   2838110   2837221   2836235   2835168  
  5570.000000   2834049   2832903   2831748   2830584   2829409  
  5560.000000   2828218   2827015   2825810   2824614   2823432  
  5550.000000   2822258   2821073   2819859   2818605   2817313  
  5540.000000   2816004   2814705   2813442   2812230   2811069  
  5530.000000   2809952   2808867   2807808   2806771   2805759  
  5520.000000   2804772   2803808   2802856   2801911   2800964  
  5510.000000   2800013   2799051   2798069   2797046   2795959  
  5500.000000   2794781   2793504   2792132   2790701   2789250  
  5490.000000   2787821   2786429   2785074   2783722   2782337  
  5480.000000   2780880   2779335   2777692   2775963   2774155  
  5470.000000   2772279   2770336   2768336   2766285   2764204  
  5460.000000   2762110   2760021   2757935   2755847   2753738  
  5450.000000   2751601   2749435   2747256   2745087   2742946  
  5440.000000   2740838   2738752   2736681   2734618   2732587  
  5430.000000   2730617   2728758   2727032   2725451   2723985  
  5420.000000   2722611   2721291   2720034   2718856   2717817  
  5410.000000   2716948   2716283   2715794   2715458   2715217  
  5400.000000   2715059   2714968   2714987   2715139   2715479  
  5390.000000   2716009   2716747   2717668   2718786   2720088  
  5380.000000   2721608   2723339   2725304   2727462   2729810  
  5370.000000   2732293   2734929   2737695   2740648   2743789  
  5360.000000   2747184   2750818   2754748   2758956   2763522  
  5350.000000   2768452   2773851   2779714   2786119   2793004  
  5340.000000   2800405   2808242   2816578   2825376   2834746  
  5330.000000   2844668   2855245   2866416   2878243   2890644  
  5320.000000   2903701   2917370   2931791   2946955   2963015  
  5310.000000   2979933   2997817   3016576   3036281   3056835  
  5300.000000   3078322   3100679   3124027   3148335   3173727  
  5290.000000   3200151   3227665   3256129   3285490   3315547  
  5280.000000   3346232   3377424   3409181   3441534   3474629  
  5270.000000   3508505   3543169   3578465   3614151   3649945  
  5260.000000   3685595   3720982   3756075   3790970   3825707  
  5250.000000   3860328   3894667   3928561   3961675   3993850  
  5240.000000   4024870   4054810   4083671   4111683   4138882  
  5230.000000   4165441   4191259   4216363   4240534   4263752  
  5220.000000   4285831   4306849   4326746   4345713   4363761  
  5210.000000   4381085   4397634   4413491   4428493   4442652  
  5200.000000   4455805   4468040   4479308   4489794   4499497  
  5190.000000   4508566   4516929   4524641   4531573   4537776  
  5180.000000   4543173   4547875   4551855   4555226   4557930  
  5170.000000   4560025   4561430   4562210   4562336   4561930  
  5160.000000   4561003   4559667   4557887   4555705   4553041  
  5150.000000   4549923   4546307   4542275   4537841   4533102  
  5140.000000   4528069   4522807   4517300   4511595   4505685  
  5130.000000   4499624   4493416   4487099   4480659   4474111  
  5120.000000   4467435   4460663   4453811   4446940   4440082  
  5110.000000   4433277   4426517   4419796   4413078   4406351  
  5100.000000   4399600   4392845   4386093   4379367   4372659  
  5090.000000   4365965   4359263   4352550   4345813   4339063  
  5080.000000   4332288   4325479   4318590   4311585   4304409  
  5070.000000   4297042   4289469   4281719   4273813   4265792  
  5060.000000   4257668   4249462   4241171   4232812   4224391  
  5050.000000   4215942   4207475   4199012   4190538   4182045  
  5040.000000   4173504   4164911   4156263   4147587   4138907  
  5030.000000   4130255   4121639   4113059   4104499   4095939  
  5020.000000   4087369   4078785   4070200   4061625   4053079  
  5010.000000   4044571   4036124   4027748   4019481   4011346  
  5000.000000   4003396   3995648   3988142   3980868   3973845  
  4990.000000   3967046   3960493   3954168   3948113   3942319  
  4980.000000   3936831   3931633   3926762   3922189   3917951  
  4970.000000   3914023   3910449   3907205   3904335   3901805  
  4960.000000   3899650   3897833   3896389   3895283   3894557  
  4950.000000   3894169   3894153   3894455   3895097   3896027  
  4940.000000   3897280   3898824   3900721   3902952   3905581  
  4930.000000   3908580   3911988   3915760   3919924   3924433  
  4920.000000   3929319   3934547   3940154   3946108   3952444  
  4910.000000   3959130   3966195   3973604   3981372   3989447  
  4900.000000   3997816   4006410   4015200   4024126   4033174  
  4890.000000   4042323   4051579   4060936   4070385   4079893  
  4880.000000   4089407   4098866   4108194   4117335   4126220  
  4870.000000   4134817   4143071   4150968   4158471   4165591  
  4860.000000   4172320   4178700   4184744   4190505   4195983  
  4850.000000   4201214   4206178   4210903   4215378   4219649  
  4840.000000   4223730   4227685   4231531   4235320   4239050  
  4830.000000   4242747   4246390   4249989   4253510   4256943  
  4820.000000   4260241   4263380   4266321   4269060   4271600  
  4810.000000   4273980   4276244   4278445   4280616   4282780  
  4800.000000   4284933   4287069   4289177   4291268   4293354  
  4790.000000   4295471   4297638   4299876   4302179   4304532  
  4780.000000   4306901   4309258   4311568   4313813   4315970  
  4770.000000   4318033   4319990   4321845   4323600   4325278  
  4760.000000   4326887   4328453   4329972   4331446   4332844  
  4750.000000   4334148   4335320   4336351   4337216   4337927  
  4740.000000   4338478   4338885   4339147   4339280   4339285  
  4730.000000   4339182   4338972   4338672   4338274   4337777  
  4720.000000   4337165   4336434   4335580   4334629   4333609  
  4710.000000   4332571   4331556   4330602   4329725   4328929  
  4700.000000   4328200   4327525   4326885   4326275   4325688  
  4690.000000   4325125   4324584   4324058   4323538   4323008  
  4680.000000   4322452   4321848   4321182   4320433   4319602  
  4670.000000   4318683   4317704   4316691   4315696   4314761  
  4660.000000   4313937   4313252   4312731   4312376   4312194  
  4650.000000   4312180   4312343   4312685   4313219   4313941  
  4640.000000   4314851   4315927   4317152   4318490   4319918  
  4630.000000   4321399   4322909   4324414   4325889   4327304  
  4620.000000   4328642   4329889   4331044   4332104   4333074  
  4610.000000   4333953   4334734   4335414   4335988   4336470  
  4600.000000   4336874   4337239   4337594   4337980   4338411  
  4590.000000   4338901   4339436   4339999   4340553   4341071  
  4580.000000   4341512   4341852   4342067   4342152   4342111  
  4570.000000   4341969   4341752   4341500   4341236   4340980  
  4560.000000   4340731   4340481   4340212   4339914   4339580  
  4550.000000   4339210   4338810   4338381   4337922   4337424  
  4540.000000   4336890   4336320   4335740   4335174   4334668  
  4530.000000   4334243   4333936   4333738   4333669   4333706  
  4520.000000   4333880   4334184   4334682   4335377   4336345  
  4510.000000   4337577   4339143   4341024   4343299   4345968  
  4500.000000   4349140   4352842   4357202   4362251   4368103  
  4490.000000   4374768   4382325   4390739   4400034   4410109  
  4480.000000   4420907   4432262   4444065   4456137   4468391  
  4470.000000   4480706   4493071   4505450   4517887   4530382  
  4460.000000   4542969   4555628   4568341   4581049   4593694  
  4450.000000   4606208   4618535   4630643   4642518   4654184  
  4440.000000   4665670   4677041   4688336   4699617   4710891  
  4430.000000   4722192   4733483   4744772   4755994   4767147  
  4420.000000   4778155   4789009   4799621   4809969   4819944  
  4410.000000   4829508   4838541   4847000   4854779   4861856  
  4400.000000   4868169   4873748   4878594   4882796   4886412  
  4390.000000   4889566   4892343   4894868   4897220   4899505  
  4380.000000   4901782   4904138   4906628   4909333   4912315  
  4370.000000   4915648   4919381   4923551   4928157   4933170  
  4360.000000   4938527   4944147   4949936   4955807   4961680  
  4350.000000   4967504   4973228   4978846   4984334   4989714  
  4340.000000   4994972   5000124   5005122   5009915   5014359  
  4330.000000   5018295   5021495   5023768   5024949   5025003  
  4320.000000   5023999   5022166   5019797   5017259   5014854  
  4310.000000   5012847   5011356   5010433   5010016   5010030  
  4300.000000   5010362   5010926   5011637   5012432   5013252  
  4290.000000   5014049   5014798   5015492   5016161   5016860  
  4280.000000   5017652   5018603   5019739   5021069   5022533  
  4270.000000   5024071   5025561   5026898   5027938   5028559  
  4260.000000   5028619   5028017   5026664   5024548   5021702  
  4250.000000   5018255   5014362   5010243   5006081   5002065  
  4240.000000   4998291   4994832   4991666   4988760   4986024  
  4230.000000   4983387   4980765   4978097   4975330   4972429  
  4220.000000   4969384   4966191   4962891   4959527   4956191  
  4210.000000   4952965   4949953   4947221   4944828   4942766  
  4200.000000   4941017   4939501   4938156   4936889   4935669  
  4190.000000   4934449   4933269   4932141   4931159   4930357  
  4180.000000   4929839   4929629   4929814   4930400   4931458  
  4170.000000   4932977   4935016   4937547   4940614   4944168  
  4160.000000   4948248   4952797   4957859   4963382   4969414  
  4150.000000   4975900   4982878   4990279   4998136   5006388  
  4140.000000   5015094   5024230   5033889   5044068   5054845  
  4130.000000   5066182   5078101   5090515   5103416   5116724  
  4120.000000   5130463   5144603   5159212   5174284   5189869  
  4110.000000   5205930   5222465   5239396   5256693   5274279  
  4100.000000   5292133   5310208   5328505   5347003   5365705  
  4090.000000   5384593   5403646   5422827   5442085   5461380  
  4080.000000   5480657   5499904   5519090   5538233   5557301  
  4070.000000   5576298   5595142   5613797   5632144   5650151  
  4060.000000   5667719   5684871   5701543   5717794   5733558  
  4050.000000   5748889   5763700   5778035   5791788   5804988  
  4040.000000   5817499   5829326   5840306   5850453   5859638  
  4030.000000   5867939   5875288   5881799   5887417   5892217  
  4020.000000   5896082   5899069   5901125   5902336   5902646  
  4010.000000   5902216   5901125   5899418   5896878   5893605  
  4000.000000   5889961  
##END= 
