##TITLE= Sample 022 By ssteindl date Montag, November 19 2018
##JCAMP-DX= 4.24
##DATA TYPE= INFRARED SPECTRUM
##ORIGIN= Exported PE Spectrum Data File
##OWNER= Sandra Steindl
##DATE= 18/11/19
##TIME= 16:36:40.00
##SPECTROMETER/DATA SYSTEM= PERKIN-ELMER Frontier FT-IR/NIR IR
##INSTRUMENT PARAMETERS=
  APODIZATION=stark
  DETECTOR=INGAAS
##RESOLUTION= 16.000000
##DELTAX= -2.000000
##XUNITS= 1/CM
##YUNITS= A
##XFACTOR= 1.00
##YFACTOR= 0.00000011920928955078
##FIRSTX= 10000.00
##LASTX= 4000.00
##NPOINTS= 3001
##FIRSTY= 0.180198
##MAXY= 0.547165
##MINY= 0.157999
##XYDATA= (X++(Y..Y))
 10000.000000   1511607   1510262   1510123   1512619   1517479  
  9990.000000   1523318   1528982   1533957   1537803   1540141  
  9980.000000   1540914   1540310   1538553   1535869   1532619  
  9970.000000   1529196   1525860   1522666   1519418   1515784  
  9960.000000   1511486   1506565   1501432   1496851   1493592  
  9950.000000   1492150   1492455   1493865   1495419   1496197  
  9940.000000   1495753   1494192   1492139   1490329   1489348  
  9930.000000   1489323   1490020   1490959   1491785   1492407  
  9920.000000   1493078   1494191   1496018   1498528   1501329  
  9910.000000   1503924   1505927   1507348   1508532   1509996  
  9900.000000   1512067   1514673   1517287   1519137   1519525  
  9890.000000   1518107   1515030   1510818   1506157   1501593  
  9880.000000   1497362   1493424   1489576   1485771   1482174  
  9870.000000   1479275   1477582   1477495   1478992   1481701  
  9860.000000   1484952   1488029   1490370   1491578   1491507  
  9850.000000   1490040   1487203   1482995   1477616   1471401  
  9840.000000   1464934   1458927   1454083   1450960   1449788  
  9830.000000   1450552   1452953   1456656   1461297   1466564  
  9820.000000   1472118   1477469   1482028   1485062   1486033  
  9810.000000   1484613   1481006   1475776   1469850   1464216  
  9800.000000   1459726   1456981   1456204   1457415   1460372  
  9790.000000   1464815   1470346   1476546   1482842   1488548  
  9780.000000   1492947   1495359   1495439   1493137   1488899  
  9770.000000   1483385   1477419   1471713   1466783   1462960  
  9760.000000   1460411   1459312   1459838   1462215   1466536  
  9750.000000   1472663   1480012   1487605   1494165   1498500  
  9740.000000   1499865   1498261   1494543   1490174   1486824  
  9730.000000   1485803   1487602   1491725   1496792   1501063  
  9720.000000   1502984   1501737   1497425   1491015   1483889  
  9710.000000   1477418   1472441   1469162   1467149   1465733  
  9700.000000   1464301   1462634   1460884   1459478   1458786  
  9690.000000   1458921   1459619   1460284   1460250   1458879  
  9680.000000   1455898   1451275   1445400   1438794   1432162  
  9670.000000   1426183   1421502   1418651   1417945   1419481  
  9660.000000   1423026   1428156   1434267   1440809   1447329  
  9650.000000   1453569   1459395   1464665   1469150   1472430  
  9640.000000   1474023   1473482   1470655   1465777   1459515  
  9630.000000   1452822   1446677   1441844   1438623   1436863  
  9620.000000   1435998   1435338   1434229   1432318   1429547  
  9610.000000   1426221   1422799   1419863   1417876   1417162  
  9600.000000   1417812   1419695   1422533   1425880   1429257  
  9590.000000   1432084   1433815   1433908   1431986   1427883  
  9580.000000   1421811   1414366   1406551   1399559   1394561  
  9570.000000   1392384   1393267   1396793   1401938   1407396  
  9560.000000   1411902   1414631   1415370   1414532   1412951  
  9550.000000   1411530   1410979   1411551   1413105   1415140  
  9540.000000   1417088   1418429   1418883   1418401   1417135  
  9530.000000   1415366   1413394   1411520   1409984   1408988  
  9520.000000   1408646   1409000   1409963   1411402   1413114  
  9510.000000   1414952   1416785   1418551   1420197   1421632  
  9500.000000   1422730   1423290   1423109   1421993   1419837  
  9490.000000   1416662   1412660   1408201   1403801   1400049  
  9480.000000   1397493   1396526   1397232   1399357   1402248  
  9470.000000   1405042   1406837   1407035   1405580   1403004  
  9460.000000   1400317   1398559   1398470   1400083   1402779  
  9450.000000   1405413   1406805   1406138   1403291   1398924  
  9440.000000   1394225   1390580   1389052   1390162   1393733  
  9430.000000   1399085   1405252   1411253   1416254   1419651  
  9420.000000   1421088   1420464   1417934   1413915   1409066  
  9410.000000   1404172   1400005   1397087   1395582   1395236  
  9400.000000   1395510   1395797   1395607   1394746   1393256  
  9390.000000   1391377   1389359   1387417   1385700   1384340  
  9380.000000   1383528   1383486   1384430   1386396   1389163  
  9370.000000   1392182   1394730   1396114   1395945   1394261  
  9360.000000   1391541   1388515   1385929   1384290   1383729  
  9350.000000   1384055   1384879   1385866   1386799   1387670  
  9340.000000   1388540   1389486   1390478   1391373   1391933  
  9330.000000   1391894   1391077   1389390   1386906   1383765  
  9320.000000   1380233   1376618   1373311   1370699   1369082  
  9310.000000   1368610   1369177   1370516   1372210   1373919  
  9300.000000   1375471   1376984   1378788   1381222   1384412  
  9290.000000   1388082   1391603   1394121   1394870   1393417  
  9280.000000   1389883   1384955   1379703   1375237   1372356  
  9270.000000   1371366   1372053   1373816   1375850   1377392  
  9260.000000   1377900   1377188   1375393   1372911   1370265  
  9250.000000   1368021   1366691   1366618   1367904   1370340  
  9240.000000   1373473   1376703   1379429   1381191   1381758  
  9230.000000   1381204   1379843   1378114   1376413   1374982  
  9220.000000   1373889   1373053   1372322   1371562   1370689  
  9210.000000   1369708   1368651   1367563   1366447   1365273  
  9200.000000   1364012   1362649   1361233   1359831   1358520  
  9190.000000   1357330   1356240   1355224   1354283   1353521  
  9180.000000   1353117   1353319   1354330   1356219   1358814  
  9170.000000   1361692   1364261   1365914   1366231   1365071  
  9160.000000   1362650   1359430   1356017   1352926   1350481  
  9150.000000   1348731   1347550   1346703   1345979   1345289  
  9140.000000   1344654   1344209   1344056   1344303   1345003  
  9130.000000   1346217   1348003   1350390   1353372   1356773  
  9120.000000   1360257   1363258   1365167   1365459   1363941  
  9110.000000   1360809   1356653   1352349   1348806   1346739  
  9100.000000   1346414   1347719   1350206   1353300   1356403  
  9090.000000   1359044   1360941   1361920   1361865   1360666  
  9080.000000   1358314   1354924   1350813   1346483   1342596  
  9070.000000   1339857   1338817   1339753   1342519   1346663  
  9060.000000   1351481   1356189   1360048   1362516   1363384  
  9050.000000   1362682   1360689   1357771   1354402   1350991  
  9040.000000   1347849   1345184   1343143   1341883   1341511  
  9030.000000   1342173   1343930   1346765   1350415   1354422  
  9020.000000   1358171   1361012   1362437   1362165   1360292  
  9010.000000   1357195   1353489   1349809   1346684   1344443  
  9000.000000   1343181   1342837   1343227   1344173   1345487  
  8990.000000   1347020   1348593   1350017   1351089   1351619  
  8980.000000   1351488   1350662   1349253   1347458   1345557  
  8970.000000   1343835   1342543   1341859   1341829   1342406  
  8960.000000   1343425   1344676   1345908   1346900   1347491  
  8950.000000   1347602   1347234   1346434   1345294   1343895  
  8940.000000   1342341   1340728   1339191   1337867   1336895  
  8930.000000   1336363   1336295   1336626   1337238   1337992  
  8920.000000   1338787   1339581   1340388   1341246   1342177  
  8910.000000   1343158   1344141   1345075   1345989   1346975  
  8900.000000   1348184   1349704   1351490   1353305   1354758  
  8890.000000   1355447   1355101   1353744   1351708   1349596  
  8880.000000   1348073   1347663   1348540   1350486   1352945  
  8870.000000   1355216   1356653   1356847   1355715   1353495  
  8860.000000   1350648   1347732   1345260   1343602   1342935  
  8850.000000   1343235   1344311   1345840   1347439   1348757  
  8840.000000   1349544   1349721   1349363   1348679   1347939  
  8830.000000   1347378   1347153   1347278   1347687   1348224  
  8820.000000   1348739   1349083   1349154   1348887   1348284  
  8810.000000   1347406   1346408   1345514   1344984   1345044  
  8800.000000   1345804   1347222   1349107   1351194   1353235  
  8790.000000   1355086   1356748   1358317   1359889   1361463  
  8780.000000   1362898   1363944   1364364   1364050   1363134  
  8770.000000   1361949   1360937   1360466   1360694   1361503  
  8760.000000   1362552   1363419   1363784   1363558   1362922  
  8750.000000   1362228   1361871   1362132   1363117   1364742  
  8740.000000   1366808   1369088   1371403   1373659   1375818  
  8730.000000   1377893   1379903   1381890   1383914   1386044  
  8720.000000   1388332   1390743   1393124   1395193   1396599  
  8710.000000   1397049   1396417   1394848   1392725   1390603  
  8700.000000   1389012   1388324   1388617   1389695   1391168  
  8690.000000   1392603   1393651   1394131   1394029   1393464  
  8680.000000   1392607   1391647   1390754   1390106   1389885  
  8670.000000   1390274   1391397   1393250   1395652   1398249  
  8660.000000   1400590   1402243   1402942   1402621   1401474  
  8650.000000   1399818   1398049   1396453   1395182   1394246  
  8640.000000   1393595   1393225   1393224   1393814   1395261  
  8630.000000   1397786   1401400   1405872   1410722   1415328  
  8620.000000   1419098   1421599   1422716   1422620   1421753  
  8610.000000   1420627   1419717   1419311   1419475   1420096  
  8600.000000   1420957   1421877   1422750   1423611   1424552  
  8590.000000   1425702   1427109   1428737   1430434   1431997  
  8580.000000   1433241   1434038   1434377   1434327   1434036  
  8570.000000   1433666   1433362   1433231   1433332   1433685  
  8560.000000   1434262   1435015   1435868   1436744   1437573  
  8550.000000   1438312   1438957   1439530   1440070   1440596  
  8540.000000   1441101   1441538   1441847   1441987   1441973  
  8530.000000   1441895   1441899   1442148   1442765   1443786  
  8520.000000   1445135   1446646   1448111   1449337   1450203  
  8510.000000   1450679   1450830   1450775   1450660   1450616  
  8500.000000   1450743   1451102   1451720   1452585   1453656  
  8490.000000   1454858   1456098   1457266   1458268   1459035  
  8480.000000   1459550   1459842   1459988   1460085   1460240  
  8470.000000   1460569   1461182   1462191   1463672   1465669  
  8460.000000   1468147   1470985   1473942   1476724   1479021  
  8450.000000   1480600   1481350   1481319   1480705   1479788  
  8440.000000   1478842   1478073   1477567   1477305   1477185  
  8430.000000   1477093   1476945   1476722   1476441   1476152  
  8420.000000   1475889   1475677   1475521   1475434   1475453  
  8410.000000   1475635   1476052   1476739   1477675   1478768  
  8400.000000   1479881   1480867   1481625   1482124   1482418  
  8390.000000   1482604   1482788   1483033   1483344   1483669  
  8380.000000   1483932   1484078   1484085   1483990   1483854  
  8370.000000   1483761   1483775   1483944   1484284   1484797  
  8360.000000   1485452   1486191   1486908   1487464   1487714  
  8350.000000   1487551   1486954   1486018   1484943   1483988  
  8340.000000   1483380   1483251   1483573   1484191   1484875  
  8330.000000   1485419   1485701   1485731   1485603   1485446  
  8320.000000   1485333   1485244   1485081   1484710   1484052  
  8310.000000   1483118   1482027   1480960   1480081   1479487  
  8300.000000   1479158   1479009   1478931   1478865   1478833  
  8290.000000   1478910   1479180   1479657   1480255   1480786  
  8280.000000   1481037   1480841   1480177   1479172   1478079  
  8270.000000   1477184   1476711   1476758   1477262   1478058  
  8260.000000   1478937   1479734   1480364   1480828   1481170  
  8250.000000   1481435   1481631   1481723   1481656   1481393  
  8240.000000   1480946   1480382   1479793   1479270   1478850  
  8230.000000   1478527   1478234   1477909   1477503   1477024  
  8220.000000   1476512   1476030   1475614   1475257   1474894  
  8210.000000   1474433   1473785   1472921   1471875   1470754  
  8200.000000   1469684   1468791   1468131   1467704   1467438  
  8190.000000   1467235   1466992   1466631   1466091   1465329  
  8180.000000   1464306   1462988   1461357   1459440   1457321  
  8170.000000   1455147   1453097   1451342   1449980   1449011  
  8160.000000   1448328   1447764   1447144   1446353   1445366  
  8150.000000   1444249   1443119   1442091   1441232   1440534  
  8140.000000   1439942   1439372   1438768   1438109   1437413  
  8130.000000   1436715   1436039   1435391   1434752   1434097  
  8120.000000   1433418   1432715   1432008   1431287   1430517  
  8110.000000   1429623   1428522   1427169   1425586   1423893  
  8100.000000   1422277   1420959   1420114   1419832   1420078  
  8090.000000   1420711   1421516   1422262   1422751   1422839  
  8080.000000   1422461   1421615   1420367   1418825   1417143  
  8070.000000   1415489   1414028   1412883   1412114   1411700  
  8060.000000   1411544   1411509   1411442   1411245   1410869  
  8050.000000   1410350   1409765   1409221   1408804   1408560  
  8040.000000   1408477   1408483   1408462   1408273   1407783  
  8030.000000   1406899   1405605   1403965   1402127   1400275  
  8020.000000   1398585   1397162   1396011   1395035   1394088  
  8010.000000   1393038   1391840   1390576   1389434   1388655  
  8000.000000   1388431   1388834   1389767   1390992   1392197  
  7990.000000   1393082   1393457   1393265   1392597   1391612  
  7980.000000   1390497   1389387   1388348   1387370   1386411  
  7970.000000   1385422   1384381   1383310   1382261   1381313  
  7960.000000   1380539   1380005   1379741   1379740   1379952  
  7950.000000   1380280   1380607   1380808   1380792   1380521  
  7940.000000   1380035   1379433   1378859   1378445   1378287  
  7930.000000   1378397   1378718   1379129   1379492   1379682  
  7920.000000   1379628   1379319   1378801   1378161   1377497  
  7910.000000   1376899   1376432   1376136   1376020   1376078  
  7900.000000   1376286   1376611   1377009   1377429   1377811  
  7890.000000   1378097   1378239   1378209   1378011   1377674  
  7880.000000   1377256   1376814   1376404   1376054   1375776  
  7870.000000   1375559   1375389   1375256   1375155   1375092  
  7860.000000   1375060   1375050   1375033   1374991   1374914  
  7850.000000   1374827   1374779   1374836   1375040   1375384  
  7840.000000   1375794   1376142   1376280   1376084   1375504  
  7830.000000   1374581   1373430   1372210   1371066   1370098  
  7820.000000   1369334   1368756   1368304   1367934   1367604  
  7810.000000   1367315   1367057   1366836   1366631   1366421  
  7800.000000   1366175   1365866   1365472   1364959   1364286  
  7790.000000   1363384   1362192   1360666   1358827   1356763  
  7780.000000   1354637   1352643   1350964   1349714   1348917  
  7770.000000   1348499   1348327   1348253   1348165   1348012  
  7760.000000   1347805   1347606   1347492   1347530   1347763  
  7750.000000   1348190   1348782   1349466   1350142   1350679  
  7740.000000   1350943   1350815   1350230   1349196   1347812  
  7730.000000   1346238   1344662   1343251   1342100   1341228  
  7720.000000   1340577   1340063   1339605   1339169   1338757  
  7710.000000   1338406   1338142   1337971   1337857   1337746  
  7700.000000   1337591   1337369   1337101   1336825   1336584  
  7690.000000   1336383   1336179   1335890   1335426   1334727  
  7680.000000   1333801   1332719   1331607   1330589   1329755  
  7670.000000   1329129   1328673   1328320   1328009   1327727  
  7660.000000   1327513   1327443   1327591   1327981   1328565  
  7650.000000   1329222   1329798   1330144   1330180   1329905  
  7640.000000   1329407   1328824   1328303   1327959   1327846  
  7630.000000   1327954   1328219   1328550   1328852   1329044  
  7620.000000   1329070   1328901   1328539   1328015   1327394  
  7610.000000   1326756   1326189   1325758   1325498   1325393  
  7600.000000   1325398   1325457   1325526   1325595   1325688  
  7590.000000   1325843   1326096   1326448   1326867   1327286  
  7580.000000   1327645   1327904   1328077   1328208   1328371  
  7570.000000   1328622   1328981   1329425   1329900   1330352  
  7560.000000   1330757   1331126   1331514   1331977   1332557  
  7550.000000   1333246   1333991   1334707   1335313   1335760  
  7540.000000   1336060   1336275   1336509   1336867   1337427  
  7530.000000   1338206   1339158   1340176   1341129   1341893  
  7520.000000   1342396   1342633   1342686   1342698   1342844  
  7510.000000   1343270   1344063   1345211   1346628   1348163  
  7500.000000   1349666   1351013   1352161   1353126   1353979  
  7490.000000   1354795   1355644   1356559   1357564   1358668  
  7480.000000   1359900   1361287   1362860   1364613   1366503  
  7470.000000   1368438   1370312   1372035   1373580   1374986  
  7460.000000   1376357   1377814   1379458   1381322   1383370  
  7450.000000   1385503   1387618   1389629   1391502   1393250  
  7440.000000   1394914   1396536   1398135   1399703   1401225  
  7430.000000   1402695   1404138   1405606   1407164   1408861  
  7420.000000   1410710   1412671   1414670   1416622   1418463  
  7410.000000   1420174   1421783   1423361   1424989   1426741  
  7400.000000   1428650   1430712   1432886   1435106   1437295  
  7390.000000   1439371   1441271   1442938   1444347   1445488  
  7380.000000   1446392   1447122   1447774   1448461   1449299  
  7370.000000   1450386   1451786   1453518   1455551   1457812  
  7360.000000   1460204   1462625   1464990   1467239   1469345  
  7350.000000   1471312   1473159   1474910   1476592   1478225  
  7340.000000   1479830   1481430   1483054   1484729   1486465  
  7330.000000   1488250   1490031   1491734   1493266   1494557  
  7320.000000   1495575   1496352   1496977   1497582   1498304  
  7310.000000   1499259   1500492   1501987   1503645   1505343  
  7300.000000   1506949   1508372   1509567   1510550   1511371  
  7290.000000   1512097   1512776   1513422   1514016   1514518  
  7280.000000   1514894   1515131   1515258   1515336   1515442  
  7270.000000   1515647   1515993   1516484   1517091   1517773  
  7260.000000   1518494   1519237   1520010   1520825   1521696  
  7250.000000   1522610   1523547   1524465   1525354   1526214  
  7240.000000   1527101   1528076   1529218   1530557   1532100  
  7230.000000   1533787   1535558   1537339   1539113   1540890  
  7220.000000   1542738   1544723   1546920   1549354   1552027  
  7210.000000   1554892   1557900   1560982   1564095   1567197  
  7200.000000   1570275   1573312   1576318   1579300   1582297  
  7190.000000   1585342   1588494   1591778   1595220   1598788  
  7180.000000   1602437   1606087   1609680   1613176   1616593  
  7170.000000   1619983   1623451   1627093   1631007   1635225  
  7160.000000   1639741   1644474   1649331   1654196   1658996  
  7150.000000   1663687   1668296   1672877   1677534   1682345  
  7140.000000   1687379   1692629   1698065   1703603   1709180  
  7130.000000   1714738   1720282   1725832   1731458   1737207  
  7120.000000   1743127   1749216   1755461   1761812   1768241  
  7110.000000   1774709   1781214   1787747   1794325   1800946  
  7100.000000   1807626   1814364   1821183   1828086   1835094  
  7090.000000   1842203   1849410   1856688   1864010   1871346  
  7080.000000   1878676   1885986   1893278   1900556   1907832  
  7070.000000   1915115   1922423   1929761   1937135   1944523  
  7060.000000   1951891   1959178   1966319   1973266   1980010  
  7050.000000   1986600   1993125   1999709   2006457   2013435  
  7040.000000   2020632   2027988   2035392   2042742   2049942  
  7030.000000   2056942   2063716   2070264   2076581   2082672  
  7020.000000   2088542   2094221   2099752   2105205   2110640  
  7010.000000   2116112   2121629   2127185   2132733   2138249  
  7000.000000   2143698   2149083   2154390   2159615   2164721  
  6990.000000   2169670   2174407   2178914   2183187   2187269  
  6980.000000   2191198   2195025   2198758   2202409   2205952  
  6970.000000   2209401   2212765   2216094   2219413   2222746  
  6960.000000   2226049   2229264   2232293   2235068   2237552  
  6950.000000   2239769   2241778   2243660   2245480   2247284  
  6940.000000   2249081   2250883   2252685   2254509   2256362  
  6930.000000   2258267   2260209   2262177   2264131   2266051  
  6920.000000   2267915   2269721   2271459   2273110   2274634  
  6910.000000   2275984   2277121   2278043   2278786   2279425  
  6900.000000   2280042   2280704   2281431   2282215   2283013  
  6890.000000   2283803   2284578   2285368   2286208   2287120  
  6880.000000   2288084   2289050   2289948   2290728   2291384  
  6870.000000   2291958   2292519   2293129   2293811   2294536  
  6860.000000   2295239   2295855   2296352   2296750   2297116  
  6850.000000   2297537   2298075   2298755   2299549   2300402  
  6840.000000   2301253   2302063   2302816   2303519   2304177  
  6830.000000   2304789   2305338   2305807   2306187   2306488  
  6820.000000   2306728   2306926   2307082   2307183   2307203  
  6810.000000   2307124   2306946   2306701   2306431   2306180  
  6800.000000   2305964   2305784   2305615   2305444   2305269  
  6790.000000   2305119   2305020   2304992   2305013   2305028  
  6780.000000   2304955   2304721   2304288   2303663   2302895  
  6770.000000   2302044   2301154   2300241   2299291   2298294  
  6760.000000   2297253   2296214   2295240   2294399   2293721  
  6750.000000   2293190   2292734   2292261   2291686   2290967  
  6740.000000   2290112   2289169   2288198   2287250   2286344  
  6730.000000   2285474   2284614   2283739   2282832   2281885  
  6720.000000   2280893   2279851   2278747   2277576   2276333  
  6710.000000   2275029   2273678   2272299   2270898   2269480  
  6700.000000   2268046   2266609   2265193   2263837   2262570  
  6690.000000   2261403   2260302   2259205   2258032   2256719  
  6680.000000   2255242   2253636   2251972   2250343   2248819  
  6670.000000   2247432   2246160   2244951   2243735   2242457  
  6660.000000   2241080   2239591   2237983   2236257   2234410  
  6650.000000   2232453   2230406   2228316   2226233   2224214  
  6640.000000   2222286   2220458   2218703   2216990   2215284  
  6630.000000   2213574   2211854   2210133   2208407   2206662  
  6620.000000   2204866   2202991   2201020   2198961   2196844  
  6610.000000   2194713   2192604   2190535   2188503   2186490  
  6600.000000   2184473   2182440   2180387   2178325   2176264  
  6590.000000   2174213   2172175   2170150   2168137   2166138  
  6580.000000   2164159   2162203   2160274   2158372   2156504  
  6570.000000   2154683   2152930   2151263   2149693   2148209  
  6560.000000   2146781   2145365   2143923   2142431   2140896  
  6550.000000   2139343   2137810   2136320   2134882   2133479  
  6540.000000   2132096   2130720   2129364   2128053   2126817  
  6530.000000   2125666   2124585   2123538   2122484   2121399  
  6520.000000   2120291   2119194   2118154   2117194   2116309  
  6510.000000   2115454   2114569   2113605   2112550   2111430  
  6500.000000   2110299   2109211   2108189   2107220   2106261  
  6490.000000   2105266   2104213   2103113   2102005   2100933  
  6480.000000   2099915   2098934   2097942   2096886   2095732  
  6470.000000   2094493   2093216   2091972   2090816   2089772  
  6460.000000   2088821   2087915   2087004   2086053   2085056  
  6450.000000   2084026   2082984   2081942   2080902   2079857  
  6440.000000   2078805   2077758   2076743   2075786   2074901  
  6430.000000   2074084   2073305   2072532   2071736   2070914  
  6420.000000   2070078   2069253   2068456   2067686   2066922  
  6410.000000   2066135   2065307   2064436   2063543   2062656  
  6400.000000   2061793   2060956   2060123   2059265   2058361  
  6390.000000   2057413   2056441   2055482   2054567   2053707  
  6380.000000   2052894   2052103   2051310   2050503   2049685  
  6370.000000   2048872   2048073   2047287   2046494   2045665  
  6360.000000   2044781   2043841   2042866   2041897   2040969  
  6350.000000   2040107   2039309   2038554   2037811   2037058  
  6340.000000   2036279   2035475   2034647   2033800   2032926  
  6330.000000   2032018   2031066   2030074   2029052   2028024  
  6320.000000   2027005   2026009   2025029   2024057   2023068  
  6310.000000   2022050   2020981   2019858   2018667   2017406  
  6300.000000   2016067   2014658   2013187   2011680   2010151  
  6290.000000   2008616   2007063   2005471   2003800   2002021  
  6280.000000   2000114   1998089   1995970   1993797   1991597  
  6270.000000   1989395   1987190   1984985   1982772   1980564  
  6260.000000   1978366   1976195   1974049   1971918   1969770  
  6250.000000   1967577   1965312   1962969   1960556   1958093  
  6240.000000   1955596   1953077   1950533   1947960   1945354  
  6230.000000   1942725   1940087   1937460   1934858   1932283  
  6220.000000   1929726   1927176   1924626   1922083   1919565  
  6210.000000   1917097   1914699   1912378   1910124   1907913  
  6200.000000   1905723   1903531   1901331   1899125   1896927  
  6190.000000   1894749   1892600   1890486   1888409   1886367  
  6180.000000   1884357   1882376   1880417   1878472   1876534  
  6170.000000   1874599   1872662   1870725   1868787   1866842  
  6160.000000   1864885   1862907   1860909   1858898   1856895  
  6150.000000   1854925   1853012   1851166   1849381   1847634  
  6140.000000   1845895   1844137   1842349   1840532   1838706  
  6130.000000   1836889   1835101   1833347   1831635   1829963  
  6120.000000   1828341   1826775   1825276   1823842   1822466  
  6110.000000   1821124   1819796   1818465   1817138   1815831  
  6100.000000   1814581   1813415   1812360   1811414   1810571  
  6090.000000   1809806   1809105   1808449   1807840   1807269  
  6080.000000   1806738   1806234   1805753   1805281   1804829  
  6070.000000   1804400   1804024   1803712   1803488   1803350  
  6060.000000   1803303   1803334   1803445   1803627   1803887  
  6050.000000   1804217   1804620   1805079   1805596   1806161  
  6040.000000   1806787   1807478   1808253   1809110   1810052  
  6030.000000   1811058   1812120   1813230   1814400   1815648  
  6020.000000   1816998   1818458   1820021   1821651   1823301  
  6010.000000   1824919   1826472   1827943   1829341   1830677  
  6000.000000   1831969   1833218   1834421   1835565   1836647  
  5990.000000   1837669   1838653   1839622   1840607   1841628  
  5980.000000   1842704   1843844   1845063   1846371   1847780  
  5970.000000   1849290   1850895   1852576   1854311   1856077  
  5960.000000   1857870   1859688   1861543   1863435   1865359  
  5950.000000   1867282   1869173   1870991   1872722   1874363  
  5940.000000   1875946   1877507   1879088   1880712   1882393  
  5930.000000   1884129   1885916   1887752   1889644   1891599  
  5920.000000   1893620   1895694   1897797   1899891   1901942  
  5910.000000   1903918   1905812   1907622   1909366   1911062  
  5900.000000   1912733   1914401   1916091   1917830   1919643  
  5890.000000   1921552   1923566   1925683   1927889   1930158  
  5880.000000   1932465   1934780   1937076   1939325   1941499  
  5870.000000   1943569   1945522   1947349   1949075   1950736  
  5860.000000   1952388   1954078   1955846   1957706   1959655  
  5850.000000   1961678   1963763   1965905   1968113   1970405  
  5840.000000   1972796   1975289   1977877   1980537   1983244  
  5830.000000   1985971   1988693   1991391   1994044   1996633  
  5820.000000   1999136   2001543   2003847   2006055   2008168  
  5810.000000   2010193   2012110   2013903   2015529   2016977  
  5800.000000   2018229   2019323   2020286   2021185   2022041  
  5790.000000   2022880   2023661   2024351   2024872   2025175  
  5780.000000   2025206   2024952   2024398   2023564   2022464  
  5770.000000   2021140   2019630   2017993   2016286   2014571  
  5760.000000   2012897   2011302   2009811   2008444   2007220  
  5750.000000   2006161   2005288   2004612   2004132   2003821  
  5740.000000   2003641   2003538   2003473   2003410   2003345  
  5730.000000   2003276   2003221   2003184   2003179   2003196  
  5720.000000   2003244   2003315   2003422   2003567   2003761  
  5710.000000   2004005   2004304   2004657   2005076   2005570  
  5700.000000   2006158   2006846   2007636   2008511   2009440  
  5690.000000   2010390   2011326   2012228   2013081   2013885  
  5680.000000   2014637   2015337   2015979   2016561   2017073  
  5670.000000   2017518   2017888   2018181   2018376   2018459  
  5660.000000   2018407   2018218   2017896   2017476   2016993  
  5650.000000   2016490   2015985   2015491   2014992   2014480  
  5640.000000   2013945   2013401   2012870   2012382   2011953  
  5630.000000   2011585   2011257   2010942   2010607   2010240  
  5620.000000   2009838   2009417   2008994   2008585   2008193  
  5610.000000   2007817   2007448   2007081   2006709   2006329  
  5600.000000   2005929   2005499   2005018   2004478   2003876  
  5590.000000   2003227   2002552   2001874   2001202   2000529  
  5580.000000   1999829   1999074   1998234   1997305   1996296  
  5570.000000   1995236   1994151   1993068   1991997   1990940  
  5560.000000   1989892   1988850   1987814   1986788   1985773  
  5550.000000   1984765   1983757   1982737   1981698   1980643  
  5540.000000   1979579   1978520   1977478   1976460   1975468  
  5530.000000   1974499   1973552   1972628   1971730   1970859  
  5520.000000   1970009   1969170   1968328   1967472   1966598  
  5510.000000   1965713   1964822   1963936   1963048   1962148  
  5500.000000   1961215   1960236   1959205   1958136   1957046  
  5490.000000   1955962   1954888   1953821   1952734   1951603  
  5480.000000   1950399   1949112   1947741   1946299   1944795  
  5470.000000   1943243   1941648   1940022   1938374   1936725  
  5460.000000   1935086   1933463   1931842   1930200   1928504  
  5450.000000   1926732   1924878   1922961   1921020   1919093  
  5440.000000   1917212   1915383   1913602   1911853   1910131  
  5430.000000   1908435   1906780   1905174   1903625   1902119  
  5420.000000   1900650   1899209   1897818   1896507   1895330  
  5410.000000   1894318   1893495   1892832   1892300   1891842  
  5400.000000   1891441   1891082   1890797   1890609   1890565  
  5390.000000   1890674   1890957   1891399   1892018   1892807  
  5380.000000   1893799   1894984   1896371   1897910   1899579  
  5370.000000   1901314   1903113   1904954   1906892   1908944  
  5360.000000   1911186   1913628   1916334   1919293   1922567  
  5350.000000   1926146   1930100   1934411   1939137   1944232  
  5340.000000   1949737   1955607   1961910   1968629   1975858  
  5330.000000   1983572   1991839   2000584   2009841   2019523  
  5320.000000   2029693   2040319   2051529   2063325   2075849  
  5310.000000   2089073   2103090   2117821   2133332   2149549  
  5300.000000   2166562   2184337   2203003   2222549   2243096  
  5290.000000   2264600   2287113   2310507   2334738   2359627  
  5280.000000   2385118   2411099   2437616   2464680   2492412  
  5270.000000   2520835   2549958   2579643   2609695   2639860  
  5260.000000   2669914   2699727   2729241   2758506   2787532  
  5250.000000   2816344   2844810   2872808   2900084   2926527  
  5240.000000   2951974   2976494   3000079   3022912   3044999  
  5230.000000   3066471   3087225   3107277   3126441   3144709  
  5220.000000   3161935   3178205   3193476   3207926   3221564  
  5210.000000   3234560   3246862   3258541   3269448   3279591  
  5200.000000   3288825   3297221   3304732   3311512   3317554  
  5190.000000   3322993   3327766   3331938   3335407   3338229  
  5180.000000   3340342   3341844   3342707   3343024   3342740  
  5170.000000   3341909   3340461   3338464   3335899   3332884  
  5160.000000   3329438   3325668   3321557   3317152   3312393  
  5150.000000   3307312   3301879   3296163   3290178   3284007  
  5140.000000   3277654   3271168   3264525   3257751   3250830  
  5130.000000   3243798   3236652   3229428   3222115   3214726  
  5120.000000   3207242   3199677   3192031   3184340   3176622  
  5110.000000   3168912   3161215   3153542   3145880   3138227  
  5100.000000   3130579   3122946   3115334   3107756   3100213  
  5090.000000   3092706   3085231   3077789   3070385   3063029  
  5080.000000   3055725   3048475   3041266   3034083   3026905  
  5070.000000   3019721   3012524   3005318   2998105   2990886  
  5060.000000   2983650   2976386   2969077   2961721   2954320  
  5050.000000   2946889   2939446   2932002   2924558   2917105  
  5040.000000   2909628   2902120   2894588   2887051   2879543  
  5030.000000   2872099   2864749   2857505   2850374   2843343  
  5020.000000   2836413   2829573   2822836   2816205   2809700  
  5010.000000   2803318   2797074   2790952   2784963   2779092  
  5000.000000   2773363   2767772   2762361   2757135   2752143  
  4990.000000   2747388   2742915   2738716   2734826   2731219  
  4980.000000   2727916   2724878   2722125   2719623   2717409  
  4970.000000   2715468   2713859   2712576   2711674   2711129  
  4960.000000   2710971   2711150   2711684   2712519   2713680  
  4950.000000   2715129   2716905   2718979   2721395   2724122  
  4940.000000   2727200   2730596   2734341   2738398   2742789  
  4930.000000   2747466   2752440   2757659   2763131   2768812  
  4920.000000   2774716   2780813   2787124   2793627   2800349  
  4910.000000   2807273   2814429   2821801   2829406   2837215  
  4900.000000   2845218   2853365   2861631   2869972   2878375  
  4890.000000   2886826   2895333   2903895   2912506   2921146  
  4880.000000   2929776   2938355   2946838   2955194   2963395  
  4870.000000   2971438   2979309   2987014   2994536   3001882  
  4860.000000   3009035   3016011   3022801   3029428   3035886  
  4850.000000   3042196   3048350   3054372   3060255   3066032  
  4840.000000   3071701   3077292   3082790   3088209   3093518  
  4830.000000   3098719   3103781   3108714   3113496   3118140  
  4820.000000   3122621   3126940   3131065   3134997   3138717  
  4810.000000   3142245   3145585   3148767   3151796   3154696  
  4800.000000   3157456   3160095   3162607   3165021   3167346  
  4790.000000   3169619   3171845   3174042   3176190   3178287  
  4780.000000   3180299   3182224   3184041   3185762   3187376  
  4770.000000   3188897   3190310   3191620   3192805   3193867  
  4760.000000   3194785   3195567   3196194   3196676   3196995  
  4750.000000   3197165   3197167   3197019   3196704   3196235  
  4740.000000   3195587   3194763   3193734   3192502   3191052  
  4730.000000   3189406   3187570   3185581   3183455   3181224  
  4720.000000   3178894   3176485   3173995   3171443   3168831  
  4710.000000   3166181   3163504   3160821   3158137   3155471  
  4700.000000   3152826   3150219   3147657   3145150   3142699  
  4690.000000   3140301   3137941   3135601   3133259   3130891  
  4680.000000   3128481   3126014   3123480   3120868   3118177  
  4670.000000   3115404   3112563   3109672   3106772   3103900  
  4660.000000   3101110   3098438   3095921   3093573   3091408  
  4650.000000   3089421   3087615   3085980   3084518   3083216  
  4640.000000   3082070   3081058   3080169   3079374   3078659  
  4630.000000   3077997   3077378   3076778   3076188   3075589  
  4620.000000   3074978   3074343   3073689   3073012   3072320  
  4610.000000   3071608   3070876   3070118   3069338   3068546  
  4600.000000   3067766   3067028   3066365   3065800   3065346  
  4590.000000   3064993   3064717   3064485   3064262   3064023  
  4580.000000   3063753   3063450   3063120   3062774   3062419  
  4570.000000   3062060   3061697   3061322   3060922   3060487  
  4560.000000   3060000   3059456   3058850   3058188   3057480  
  4550.000000   3056738   3055971   3055178   3054359   3053500  
  4540.000000   3052602   3051660   3050702   3049746   3048841  
  4530.000000   3048012   3047307   3046732   3046321   3046068  
  4520.000000   3046011   3046144   3046524   3047152   3048095  
  4510.000000   3049350   3050991   3053009   3055482   3058398  
  4500.000000   3061832   3065755   3070229   3075211   3080757  
  4490.000000   3086832   3093509   3100773   3108708   3117291  
  4480.000000   3126577   3136508   3147094   3158247   3169953  
  4470.000000   3182121   3194734   3207705   3221006   3234549  
  4460.000000   3248296   3262167   3276130   3290127   3304140  
  4450.000000   3318127   3332066   3345922   3359663   3373272  
  4440.000000   3386722   3400024   3413160   3426160   3438993  
  4430.000000   3451685   3464180   3476493   3488548   3500358  
  4420.000000   3511831   3522972   3533665   3543894   3553516  
  4410.000000   3562501   3570698   3578082   3584527   3590039  
  4400.000000   3594538   3598078   3600640   3602326   3603173  
  4390.000000   3603318   3602835   3601868   3600501   3598868  
  4380.000000   3597049   3595164   3593304   3591592   3590140  
  4370.000000   3589074   3588508   3588531   3589215   3590577  
  4360.000000   3592625   3595304   3598569   3602329   3606517  
  4350.000000   3611040   3615837   3620841   3626023   3631363  
  4340.000000   3636867   3642528   3648325   3654176   3659941  
  4330.000000   3665412   3670338   3674479   3677650   3679790  
  4320.000000   3680961   3681379   3681327   3681147   3681103  
  4310.000000   3681412   3682131   3683261   3684685   3686305  
  4300.000000   3687981   3689639   3691197   3692621   3693857  
  4290.000000   3694876   3695637   3696129   3696354   3696352  
  4280.000000   3696172   3695891   3695563   3695260   3695006  
  4270.000000   3694849   3694783   3694817   3694898   3694967  
  4260.000000   3694904   3694581   3693852   3692611   3690797  
  4250.000000   3688434   3685609   3682478   3679212   3675993  
  4240.000000   3672950   3670182   3667715   3665548   3663631  
  4230.000000   3661912   3660319   3658789   3657259   3655675  
  4220.000000   3653997   3652191   3650257   3648195   3646047  
  4210.000000   3643846   3641657   3639527   3637515   3635657  
  4200.000000   3633985   3632500   3631198   3630041   3629002  
  4190.000000   3628027   3627102   3626191   3625324   3624497  
  4180.000000   3623777   3623178   3622780   3622599   3622724  
  4170.000000   3623182   3624084   3625468   3627450   3630048  
  4160.000000   3633339   3637285   3641907   3647119   3652926  
  4150.000000   3659239   3666077   3673367   3681144   3689343  
  4140.000000   3698010   3707089   3716641   3726629   3737122  
  4130.000000   3748085   3759570   3771521   3783965   3796836  
  4120.000000   3810155   3823873   3838022   3852573   3867559  
  4110.000000   3882944   3898744   3914911   3931437   3948264  
  4100.000000   3965369   3982691   4000205   4017860   4035643  
  4090.000000   4053526   4071509   4089579   4107732   4125959  
  4080.000000   4144240   4162571   4180933   4199335   4217759  
  4070.000000   4236216   4254666   4273105   4291461   4309721  
  4060.000000   4327798   4345683   4363278   4380579   4397475  
  4050.000000   4413971   4429961   4445478   4460429   4474859  
  4040.000000   4488655   4501835   4514241   4525876   4536584  
  4030.000000   4546410   4555241   4563156   4570065   4576024  
  4020.000000   4580899   4584742   4587496   4589251   4589949  
  4010.000000   4589766   4588799   4587119   4584519   4581133  
  4000.000000   4577353  
##END= 
