##TITLE= Sample 010 By ssteindl date Montag, November 19 2018
##JCAMP-DX= 4.24
##DATA TYPE= INFRARED SPECTRUM
##ORIGIN= Exported PE Spectrum Data File
##OWNER= Sandra Steindl
##DATE= 18/11/19
##TIME= 16:15:07.00
##SPECTROMETER/DATA SYSTEM= PERKIN-ELMER Frontier FT-IR/NIR IR
##INSTRUMENT PARAMETERS=
  APODIZATION=stark
  DETECTOR=INGAAS
##RESOLUTION= 16.000000
##DELTAX= -2.000000
##XUNITS= 1/CM
##YUNITS= A
##XFACTOR= 1.00
##YFACTOR= 0.00000011920928955078
##FIRSTX= 10000.00
##LASTX= 4000.00
##NPOINTS= 3001
##FIRSTY= 0.120049
##MAXY= 0.613036
##MINY= 0.094795
##XYDATA= (X++(Y..Y))
 10000.000000   1007047   1003353   0999577   0995411   0990611  
  9990.000000   0985086   0979150   0973371   0968493   0965047  
  9980.000000   0963262   0962880   0963420   0964302   0965209  
  9970.000000   0966114   0967297   0969097   0971737   0975169  
  9960.000000   0979168   0983437   0987859   0992468   0997472  
  9950.000000   1002921   1008631   1014016   1018306   1020804  
  9940.000000   1021180   1019698   1017094   1014467   1012824  
  9930.000000   1012936   1015029   1018932   1024052   1029668  
  9920.000000   1034922   1039005   1041122   1040659   1037291  
  9910.000000   1031174   1023013   1013968   1005393   0998422  
  9900.000000   0993660   0991015   0989821   0989191   0988332  
  9890.000000   0986915   0984989   0982966   0981244   0980109  
  9880.000000   0979631   0979770   0980530   0981938   0984041  
  9870.000000   0986618   0989164   0990783   0990554   0987776  
  9860.000000   0982438   0975251   0967580   0960935   0956506  
  9850.000000   0954740   0955290   0957294   0959812   0962278  
  9840.000000   0964631   0967242   0970524   0974655   0979354  
  9830.000000   0984004   0987910   0990587   0991991   0992410  
  9820.000000   0992341   0992129   0991856   0991310   0990139  
  9810.000000   0988120   0985230   0981767   0978132   0974771  
  9800.000000   0971968   0969899   0968628   0968203   0968626  
  9790.000000   0969761   0971219   0972324   0972250   0970320  
  9780.000000   0966330   0960762   0954734   0949679   0946896  
  9770.000000   0947064   0950057   0954918   0960238   0964530  
  9760.000000   0966708   0966292   0963481   0958974   0953756  
  9750.000000   0948871   0945264   0943670   0944505   0947773  
  9740.000000   0952992   0959263   0965407   0970313   0973164  
  9730.000000   0973722   0972287   0969581   0966466   0963622  
  9720.000000   0961426   0959841   0958594   0957291   0955605  
  9710.000000   0953357   0950503   0947154   0943496   0939867  
  9700.000000   0936667   0934412   0933506   0934184   0936266  
  9690.000000   0939242   0942326   0944783   0946149   0946373  
  9680.000000   0945785   0944804   0943742   0942469   0940538  
  9670.000000   0937236   0932064   0924922   0916364   0907443  
  9660.000000   0899462   0893606   0890610   0890673   0893449  
  9650.000000   0898281   0904367   0910940   0917359   0923101  
  9640.000000   0927811   0931271   0933488   0934653   0935164  
  9630.000000   0935467   0935964   0936852   0938116   0939562  
  9620.000000   0940924   0941990   0942617   0942763   0942355  
  9610.000000   0941314   0939453   0936675   0932954   0928585  
  9600.000000   0924060   0920112   0917406   0916431   0917247  
  9590.000000   0919469   0922315   0924741   0925734   0924445  
  9580.000000   0920481   0913881   0905228   0895454   0885744  
  9570.000000   0877282   0871065   0867723   0867438   0869972  
  9560.000000   0874749   0881028   0887985   0894834   0900830  
  9550.000000   0905343   0907949   0908502   0907294   0904945  
  9540.000000   0902399   0900537   0900003   0900886   0902729  
  9530.000000   0904660   0905700   0905184   0902940   0899443  
  9520.000000   0895519   0892135   0889980   0889366   0890164  
  9510.000000   0891966   0894251   0896517   0898359   0899428  
  9500.000000   0899458   0898249   0895782   0892264   0888177  
  9490.000000   0884172   0880892   0878771   0877870   0877949  
  9480.000000   0878577   0879429   0880365   0881510   0883045  
  9470.000000   0885016   0887162   0888890   0889511   0888469  
  9460.000000   0885655   0881423   0876515   0871730   0867690  
  9450.000000   0864648   0862550   0861215   0860514   0860507  
  9440.000000   0861297   0862924   0865110   0867341   0868986  
  9430.000000   0869645   0869359   0868623   0868203   0868713  
  9420.000000   0870329   0872539   0874344   0874584   0872503  
  9410.000000   0868044   0861952   0855460   0849857   0846052  
  9400.000000   0844328   0844401   0845628   0847365   0849183  
  9390.000000   0850968   0852810   0854825   0857017   0859244  
  9380.000000   0861305   0863027   0864338   0865218   0865686  
  9370.000000   0865723   0865325   0864563   0863621   0862827  
  9360.000000   0862503   0862868   0863845   0865068   0865953  
  9350.000000   0865952   0864748   0862424   0859375   0856166  
  9340.000000   0853269   0850928   0849149   0847794   0846750  
  9330.000000   0846004   0845616   0845611   0845814   0845860  
  9320.000000   0845291   0843818   0841552   0839069   0837251  
  9310.000000   0836865   0838204   0840856   0843850   0845969  
  9300.000000   0846279   0844491   0841133   0837308   0834232  
  9290.000000   0832741   0832989   0834511   0836510   0838272  
  9280.000000   0839462   0840182   0840805   0841651   0842731  
  9270.000000   0843725   0844128   0843540   0841901   0839556  
  9260.000000   0837163   0835370   0834579   0834794   0835687  
  9250.000000   0836770   0837581   0837872   0837617   0836986  
  9240.000000   0836177   0835377   0834713   0834345   0834453  
  9230.000000   0835221   0836716   0838784   0841028   0842853  
  9220.000000   0843645   0842944   0840630   0836989   0832640  
  9210.000000   0828319   0824657   0822033   0820541   0820054  
  9200.000000   0820285   0820925   0821689   0822378   0822866  
  9190.000000   0823093   0823074   0822876   0822615   0822383  
  9180.000000   0822212   0822028   0821691   0821076   0820175  
  9170.000000   0819163   0818357   0818117   0818672   0819979  
  9160.000000   0821688   0823186   0823837   0823172   0821114  
  9150.000000   0817952   0814279   0810784   0808078   0806536  
  9140.000000   0806233   0807029   0808671   0810913   0813536  
  9130.000000   0816375   0819266   0822051   0824525   0826501  
  9120.000000   0827827   0828449   0828434   0827921   0827121  
  9110.000000   0826226   0825409   0824728   0824117   0823399  
  9100.000000   0822348   0820765   0818547   0815808   0812873  
  9090.000000   0810255   0808458   0807881   0808652   0810620  
  9080.000000   0813361   0816349   0819095   0821292   0822820  
  9070.000000   0823721   0824090   0824005   0823495   0822554  
  9060.000000   0821228   0819614   0817904   0816258   0814772  
  9050.000000   0813373   0811852   0809960   0807518   0804560  
  9040.000000   0801350   0798361   0796155   0795200   0795749  
  9030.000000   0797747   0800858   0804514   0808038   0810800  
  9020.000000   0812381   0812651   0811848   0810509   0809392  
  9010.000000   0809196   0810343   0812784   0816003   0819138  
  9000.000000   0821262   0821729   0820429   0817847   0814864  
  8990.000000   0812444   0811270   0811518   0812827   0814497  
  8980.000000   0815810   0816319   0815984   0815153   0814328  
  8970.000000   0813970   0814270   0815173   0816429   0817767  
  8960.000000   0819017   0820115   0821086   0821894   0822428  
  8950.000000   0822474   0821841   0820456   0818427   0816053  
  8940.000000   0813721   0811813   0810592   0810197   0810649  
  8930.000000   0811901   0813838   0816278   0818943   0821420  
  8920.000000   0823231   0823930   0823310   0821464   0818835  
  8910.000000   0816068   0813842   0812648   0812655   0813717  
  8900.000000   0815479   0817572   0819720   0821807   0823807  
  8890.000000   0825698   0827387   0828688   0829419   0829466  
  8880.000000   0828912   0827973   0826967   0826161   0825713  
  8870.000000   0825638   0825878   0826410   0827305   0828721  
  8860.000000   0830786   0833493   0836609   0839719   0842343  
  8850.000000   0844129   0845015   0845258   0845362   0845846  
  8840.000000   0847045   0848964   0851303   0853585   0855361  
  8830.000000   0856381   0856667   0856490   0856220   0856204  
  8820.000000   0856628   0857517   0858759   0860200   0861698  
  8810.000000   0863149   0864486   0865642   0866560   0867187  
  8800.000000   0867515   0867582   0867491   0867366   0867339  
  8790.000000   0867491   0867870   0868487   0869363   0870530  
  8780.000000   0872033   0873889   0876063   0878440   0880872  
  8770.000000   0883185   0885279   0887119   0888774   0890345  
  8760.000000   0891940   0893615   0895386   0897244   0899205  
  8750.000000   0901322   0903669   0906301   0909179   0912160  
  8740.000000   0914998   0917416   0919204   0920301   0920848  
  8730.000000   0921124   0921460   0922095   0923101   0924368  
  8720.000000   0925658   0926737   0927475   0927943   0928389  
  8710.000000   0929166   0930580   0932782   0935682   0938972  
  8700.000000   0942232   0945043   0947161   0948537   0949357  
  8690.000000   0949914   0950527   0951407   0952624   0954113  
  8680.000000   0955745   0957425   0959154   0961053   0963297  
  8670.000000   0966036   0969301   0972962   0976744   0980287  
  8660.000000   0983275   0985490   0986920   0987697   0988093  
  8650.000000   0988412   0988945   0989896   0991368   0993376  
  8640.000000   0995854   0998707   1001797   1005004   1008211  
  8630.000000   1011359   1014419   1017408   1020343   1023214  
  8620.000000   1025968   1028487   1030649   1032343   1033542  
  8610.000000   1034307   1034789   1035182   1035658   1036334  
  8600.000000   1037239   1038356   1039640   1041078   1042679  
  8590.000000   1044483   1046510   1048741   1051095   1053456  
  8580.000000   1055718   1057812   1059739   1061538   1063268  
  8570.000000   1064953   1066569   1068065   1069394   1070573  
  8560.000000   1071699   1072931   1074430   1076284   1078456  
  8550.000000   1080763   1082932   1084678   1085808   1086286  
  8540.000000   1086251   1085985   1085830   1086103   1087002  
  8530.000000   1088594   1090808   1093470   1096349   1099197  
  8520.000000   1101800   1103988   1105655   1106761   1107354  
  8510.000000   1107555   1107556   1107576   1107844   1108531  
  8500.000000   1109728   1111418   1113479   1115722   1117923  
  8490.000000   1119902   1121551   1122871   1123946   1124915  
  8480.000000   1125929   1127095   1128473   1130036   1131724  
  8470.000000   1133430   1135048   1136478   1137640   1138494  
  8460.000000   1139044   1139375   1139646   1140081   1140914  
  8450.000000   1142323   1144365   1146927   1149729   1152397  
  8440.000000   1154573   1156021   1156695   1156753   1156509  
  8430.000000   1156319   1156477   1157136   1158299   1159849  
  8420.000000   1161596   1163351   1164951   1166295   1167319  
  8410.000000   1168003   1168377   1168518   1168562   1168655  
  8400.000000   1168930   1169429   1170099   1170800   1171369  
  8390.000000   1171710   1171844   1171959   1172322   1173216  
  8380.000000   1174776   1176954   1179496   1182034   1184194  
  8370.000000   1185711   1186498   1186632   1186295   1185675  
  8360.000000   1184911   1184078   1183213   1182361   1181598  
  8350.000000   1181032   1180748   1180783   1181055   1181432  
  8340.000000   1181732   1181849   1181760   1181557   1181398  
  8330.000000   1181433   1181751   1182307   1182963   1183499  
  8320.000000   1183724   1183495   1182775   1181635   1180254  
  8310.000000   1178897   1177854   1177403   1177734   1178918  
  8300.000000   1180847   1183240   1185682   1187718   1188984  
  8290.000000   1189291   1188681   1187384   1185746   1184109  
  8280.000000   1182718   1181678   1180963   1180496   1180197  
  8270.000000   1180051   1180079   1180321   1180747   1181251  
  8260.000000   1181633   1181673   1181186   1180099   1178478  
  8250.000000   1176518   1174494   1172693   1171343   1170567  
  8240.000000   1170364   1170614   1171110   1171595   1171812  
  8230.000000   1171544   1170666   1169179   1167213   1165016  
  8220.000000   1162885   1161119   1159938   1159457   1159647  
  8210.000000   1160364   1161361   1162362   1163085   1163313  
  8200.000000   1162898   1161797   1160071   1157866   1155385  
  8190.000000   1152830   1150362   1148064   1145941   1143950  
  8180.000000   1142029   1140162   1138370   1136740   1135352  
  8170.000000   1134275   1133495   1132932   1132441   1131868  
  8160.000000   1131095   1130069   1128811   1127395   1125917  
  8150.000000   1124462   1123092   1121834   1120687   1119614  
  8140.000000   1118552   1117407   1116077   1114469   1112540  
  8130.000000   1110330   1107963   1105635   1103561   1101918  
  8120.000000   1100793   1100159   1099896   1099822   1099757  
  8110.000000   1099552   1099123   1098429   1097474   1096278  
  8100.000000   1094892   1093387   1091884   1090523   1089453  
  8090.000000   1088777   1088504   1088542   1088701   1088763  
  8080.000000   1088539   1087943   1087002   1085844   1084637  
  8070.000000   1083521   1082562   1081726   1080911   1079987  
  8060.000000   1078854   1077476   1075892   1074206   1072541  
  8050.000000   1071021   1069729   1068705   1067938   1067382  
  8040.000000   1066963   1066602   1066220   1065761   1065194  
  8030.000000   1064517   1063758   1062949   1062127   1061296  
  8020.000000   1060447   1059537   1058517   1057340   1055989  
  8010.000000   1054485   1052894   1051330   1049923   1048817  
  8000.000000   1048113   1047864   1048038   1048522   1049143  
  7990.000000   1049692   1049981   1049873   1049318   1048344  
  7980.000000   1047050   1045566   1044032   1042571   1041290  
  7970.000000   1040270   1039572   1039223   1039201   1039424  
  7960.000000   1039750   1039999   1040008   1039668   1038978  
  7950.000000   1038025   1036984   1036025   1035290   1034828  
  7940.000000   1034617   1034581   1034648   1034791   1035032  
  7930.000000   1035435   1036049   1036882   1037871   1038902  
  7920.000000   1039848   1040604   1041131   1041434   1041561  
  7910.000000   1041545   1041397   1041092   1040598   1039911  
  7900.000000   1039081   1038223   1037482   1037003   1036868  
  7890.000000   1037083   1037554   1038145   1038692   1039078  
  7880.000000   1039240   1039194   1039005   1038764   1038553  
  7870.000000   1038413   1038337   1038266   1038110   1037774  
  7860.000000   1037193   1036360   1035330   1034229   1033206  
  7850.000000   1032416   1031948   1031827   1031984   1032291  
  7840.000000   1032595   1032762   1032701   1032380   1031814  
  7830.000000   1031043   1030121   1029096   1028026   1026973  
  7820.000000   1026010   1025209   1024621   1024258   1024077  
  7810.000000   1023996   1023905   1023716   1023376   1022898  
  7800.000000   1022339   1021783   1021310   1020967   1020761  
  7790.000000   1020653   1020582   1020468   1020236   1019826  
  7780.000000   1019203   1018371   1017379   1016322   1015323  
  7770.000000   1014501   1013938   1013645   1013551   1013519  
  7760.000000   1013390   1013032   1012386   1011485   1010434  
  7750.000000   1009381   1008457   1007745   1007265   1006978  
  7740.000000   1006820   1006719   1006615   1006454   1006182  
  7730.000000   1005739   1005067   1004136   1002972   1001664  
  7720.000000   1000369   0999259   0998479   0998085   0998026  
  7710.000000   0998155   0998277   0998218   0997880   0997275  
  7700.000000   0996510   0995744   0995129   0994751   0994608  
  7690.000000   0994608   0994619   0994509   0994206   0993715  
  7680.000000   0993114   0992524   0992060   0991793   0991727  
  7670.000000   0991807   0991942   0992044   0992055   0991967  
  7660.000000   0991807   0991622   0991451   0991300   0991146  
  7650.000000   0990939   0990640   0990221   0989703   0989123  
  7640.000000   0988545   0988014   0987565   0987202   0986928  
  7630.000000   0986749   0986699   0986834   0987222   0987916  
  7620.000000   0988928   0990219   0991696   0993233   0994701  
  7610.000000   0995987   0997029   0997812   0998373   0998770  
  7600.000000   0999080   0999355   0999630   0999896   1000120  
  7590.000000   1000247   1000235   1000073   0999806   0999532  
  7580.000000   0999390   0999513   0999997   1000857   1002024  
  7570.000000   1003348   1004663   1005818   1006751   1007490  
  7560.000000   1008158   1008911   1009908   1011240   1012927  
  7550.000000   1014896   1017019   1019141   1021132   1022903  
  7540.000000   1024437   1025767   1026978   1028171   1029453  
  7530.000000   1030894   1032523   1034307   1036173   1038019  
  7520.000000   1039752   1041311   1042694   1043955   1045192  
  7510.000000   1046515   1048018   1049755   1051733   1053911  
  7500.000000   1056223   1058577   1060893   1063093   1065138  
  7490.000000   1067005   1068727   1070358   1071993   1073723  
  7480.000000   1075638   1077774   1080137   1082684   1085364  
  7470.000000   1088128   1090955   1093845   1096816   1099872  
  7460.000000   1103003   1106166   1109315   1112404   1115424  
  7450.000000   1118380   1121304   1124208   1127090   1129914  
  7440.000000   1132641   1135246   1137747   1140205   1142706  
  7430.000000   1145331   1148120   1151062   1154097   1157156  
  7420.000000   1160191   1163204   1166241   1169360   1172597  
  7410.000000   1175931   1179287   1182547   1185610   1188414  
  7400.000000   1190979   1193378   1195720   1198097   1200571  
  7390.000000   1203161   1205856   1208645   1211531   1214544  
  7380.000000   1217710   1221041   1224501   1228023   1231508  
  7370.000000   1234870   1238047   1241019   1243811   1246467  
  7360.000000   1249041   1251577   1254104   1256642   1259200  
  7350.000000   1261780   1264374   1266965   1269527   1272042  
  7340.000000   1274500   1276925   1279363   1281880   1284528  
  7330.000000   1287339   1290300   1293360   1296440   1299459  
  7320.000000   1302350   1305078   1307631   1310019   1312264  
  7310.000000   1314401   1316469   1318520   1320596   1322737  
  7300.000000   1324944   1327189   1329397   1331477   1333340  
  7290.000000   1334931   1336241   1337316   1338232   1339080  
  7280.000000   1339931   1340837   1341822   1342900   1344073  
  7270.000000   1345350   1346731   1348207   1349749   1351302  
  7260.000000   1352801   1354177   1355391   1356426   1357320  
  7250.000000   1358130   1358956   1359886   1361013   1362393  
  7240.000000   1364062   1366006   1368195   1370566   1373067  
  7230.000000   1375645   1378294   1381012   1383840   1386793  
  7220.000000   1389895   1393111   1396410   1399715   1402993  
  7210.000000   1406211   1409413   1412658   1416052   1419673  
  7200.000000   1423589   1427801   1432285   1436968   1441785  
  7190.000000   1446656   1451538   1456382   1461185   1465930  
  7180.000000   1470638   1475318   1480013   1484749   1489579  
  7170.000000   1494527   1499635   1504908   1510368   1516000  
  7160.000000   1521801   1527733   1533770   1539857   1545965  
  7150.000000   1552055   1558144   1564251   1570454   1576809  
  7140.000000   1583384   1590181   1597187   1604323   1611533  
  7130.000000   1618753   1625991   1633275   1640694   1648322  
  7120.000000   1656237   1664452   1672951   1681649   1690462  
  7110.000000   1699281   1708043   1716691   1725232   1733681  
  7100.000000   1742100   1750542   1759073   1767722   1776503  
  7090.000000   1785387   1794343   1803324   1812311   1821300  
  7080.000000   1830310   1839359   1848456   1857579   1866692  
  7070.000000   1875751   1884736   1893659   1902572   1911537  
  7060.000000   1920608   1929792   1939047   1948287   1957418  
  7050.000000   1966368   1975111   1983678   1992129   2000544  
  7040.000000   2008977   2017468   2026020   2034633   2043286  
  7030.000000   2051958   2060601   2069159   2077548   2085702  
  7020.000000   2093581   2101215   2108684   2116115   2123611  
  7010.000000   2131235   2138949   2146658   2154208   2161490  
  7000.000000   2168435   2175086   2181526   2187883   2194231  
  6990.000000   2200608   2206961   2213223   2219301   2225155  
  6980.000000   2230764   2236168   2241396   2246501   2251496  
  6970.000000   2256414   2261256   2266051   2270801   2275514  
  6960.000000   2280155   2284689   2289047   2293192   2297093  
  6950.000000   2300771   2304253   2307592   2310813   2313945  
  6940.000000   2316988   2319963   2322879   2325772   2328647  
  6930.000000   2331510   2334310   2336995   2339496   2341792  
  6920.000000   2343894   2345875   2347816   2349796   2351834  
  6910.000000   2353908   2355945   2357879   2359659   2361295  
  6900.000000   2362822   2364307   2365793   2367297   2368804  
  6890.000000   2370283   2371714   2373094   2374438   2375764  
  6880.000000   2377076   2378362   2379596   2380769   2381897  
  6870.000000   2383040   2384280   2385694   2387319   2389136  
  6860.000000   2391063   2392988   2394793   2396389   2397735  
  6850.000000   2398840   2399748   2400525   2401241   2401966  
  6840.000000   2402749   2403625   2404591   2405617   2406644  
  6830.000000   2407610   2408464   2409205   2409866   2410520  
  6820.000000   2411236   2412056   2412958   2413878   2414721  
  6810.000000   2415415   2415929   2416296   2416584   2416872  
  6800.000000   2417201   2417571   2417932   2418224   2418396  
  6790.000000   2418441   2418383   2418271   2418138   2418003  
  6780.000000   2417847   2417656   2417411   2417126   2416823  
  6770.000000   2416534   2416265   2416001   2415699   2415313  
  6760.000000   2414812   2414192   2413472   2412687   2411859  
  6750.000000   2411006   2410133   2409264   2408437   2407714  
  6740.000000   2407146   2406764   2406533   2406370   2406150  
  6730.000000   2405760   2405133   2404280   2403273   2402215  
  6720.000000   2401192   2400241   2399336   2398414   2397410  
  6710.000000   2396296   2395091   2393860   2392673   2391588  
  6700.000000   2390615   2389732   2388888   2388035   2387132  
  6690.000000   2386157   2385090   2383911   2382594   2381121  
  6680.000000   2379496   2377762   2375993   2374285   2372715  
  6670.000000   2371331   2370116   2369013   2367926   2366765  
  6660.000000   2365457   2363971   2362310   2360510   2358622  
  6650.000000   2356710   2354832   2353044   2351378   2349845  
  6640.000000   2348419   2347046   2345652   2344169   2342547  
  6630.000000   2340777   2338883   2336916   2334927   2332961  
  6620.000000   2331037   2329159   2327317   2325504   2323713  
  6610.000000   2321940   2320172   2318387   2316551   2314631  
  6600.000000   2312602   2310466   2308245   2305983   2303730  
  6590.000000   2301531   2299418   2297411   2295513   2293717  
  6580.000000   2292004   2290344   2288695   2287014   2285268  
  6570.000000   2283441   2281549   2279631   2277740   2275925  
  6560.000000   2274210   2272590   2271037   2269511   2267989  
  6550.000000   2266463   2264950   2263473   2262049   2260671  
  6540.000000   2259317   2257945   2256527   2255052   2253538  
  6530.000000   2252021   2250550   2249162   2247882   2246720  
  6520.000000   2245675   2244744   2243922   2243199   2242551  
  6510.000000   2241941   2241316   2240619   2239808   2238859  
  6500.000000   2237782   2236599   2235351   2234069   2232774  
  6490.000000   2231475   2230180   2228905   2227675   2226535  
  6480.000000   2225524   2224675   2223991   2223445   2222981  
  6470.000000   2222524   2222003   2221357   2220559   2219609  
  6460.000000   2218541   2217403   2216254   2215139   2214091  
  6450.000000   2213118   2212213   2211360   2210542   2209753  
  6440.000000   2208991   2208262   2207566   2206895   2206225  
  6430.000000   2205528   2204780   2203965   2203089   2202167  
  6420.000000   2201221   2200269   2199316   2198356   2197384  
  6410.000000   2196401   2195423   2194480   2193609   2192836  
  6400.000000   2192170   2191597   2191086   2190600   2190110  
  6390.000000   2189596   2189060   2188511   2187960   2187415  
  6380.000000   2186878   2186344   2185813   2185282   2184758  
  6370.000000   2184248   2183760   2183300   2182870   2182469  
  6360.000000   2182089   2181714   2181321   2180883   2180372  
  6350.000000   2179770   2179076   2178307   2177496   2176684  
  6340.000000   2175904   2175178   2174503   2173871   2173257  
  6330.000000   2172648   2172027   2171391   2170729   2170036  
  6320.000000   2169296   2168506   2167668   2166800   2165919  
  6310.000000   2165043   2164159   2163239   2162222   2161057  
  6300.000000   2159704   2158176   2156517   2154813   2153136  
  6290.000000   2151541   2150023   2148544   2147028   2145409  
  6280.000000   2143636   2141704   2139626   2137445   2135192  
  6270.000000   2132904   2130597   2128297   2126022   2123801  
  6260.000000   2121650   2119576   2117553   2115544   2113495  
  6250.000000   2111363   2109123   2106776   2104337   2101837  
  6240.000000   2099297   2096739   2094180   2091641   2089144  
  6230.000000   2086714   2084360   2082071   2079811   2077530  
  6220.000000   2075180   2072739   2070219   2067668   2065151  
  6210.000000   2062723   2060412   2058210   2056072   2053943  
  6200.000000   2051774   2049537   2047230   2044869   2042479  
  6190.000000   2040085   2037707   2035357   2033047   2030782  
  6180.000000   2028563   2026375   2024194   2021991   2019743  
  6170.000000   2017449   2015128   2012821   2010570   2008408  
  6160.000000   2006343   2004357   2002418   2000493   1998564  
  6150.000000   1996629   1994698   1992778   1990870   1988959  
  6140.000000   1987025   1985055   1983056   1981052   1979081  
  6130.000000   1977172   1975341   1973574   1971843   1970112  
  6120.000000   1968362   1966587   1964814   1963072   1961401  
  6110.000000   1959822   1958351   1956985   1955723   1954554  
  6100.000000   1953476   1952473   1951533   1950628   1949743  
  6090.000000   1948858   1947979   1947114   1946290   1945521  
  6080.000000   1944819   1944173   1943573   1942994   1942433  
  6070.000000   1941884   1941362   1940875   1940437   1940047  
  6060.000000   1939715   1939436   1939230   1939109   1939098  
  6050.000000   1939202   1939429   1939762   1940194   1940709  
  6040.000000   1941322   1942044   1942904   1943911   1945066  
  6030.000000   1946336   1947689   1949079   1950492   1951924  
  6020.000000   1953404   1954956   1956606   1958348   1960159  
  6010.000000   1961988   1963792   1965525   1967176   1968743  
  6000.000000   1970252   1971726   1973198   1974689   1976226  
  5990.000000   1977819   1979488   1981237   1983075   1984998  
  5980.000000   1987005   1989091   1991262   1993521   1995887  
  5970.000000   1998365   2000967   2003683   2006504   2009401  
  5960.000000   2012353   2015327   2018307   2021268   2024203  
  5950.000000   2027104   2029981   2032846   2035732   2038666  
  5940.000000   2041680   2044791   2048002   2051300   2054661  
  5930.000000   2058057   2061465   2064868   2068254   2071615  
  5920.000000   2074940   2078213   2081418   2084537   2087559  
  5910.000000   2090479   2093302   2096035   2098693   2101297  
  5900.000000   2103876   2106472   2109125   2111880   2114761  
  5890.000000   2117775   2120897   2124085   2127286   2130454  
  5880.000000   2133560   2136592   2139555   2142452   2145283  
  5870.000000   2148035   2150695   2153251   2155710   2158094  
  5860.000000   2160442   2162792   2165177   2167611   2170103  
  5850.000000   2172651   2175263   2177952   2180738   2183640  
  5840.000000   2186666   2189809   2193047   2196352   2199696  
  5830.000000   2203062   2206429   2209782   2213094   2216332  
  5820.000000   2219453   2222424   2225216   2227831   2230272  
  5810.000000   2232564   2234716   2236749   2238653   2240447  
  5800.000000   2242120   2243702   2245187   2246595   2247889  
  5790.000000   2249047   2250002   2250714   2251133   2251255  
  5780.000000   2251079   2250639   2249954   2249056   2247959  
  5770.000000   2246693   2245282   2243780   2242238   2240720  
  5760.000000   2239272   2237928   2236697   2235580   2234572  
  5750.000000   2233670   2232876   2232192   2231619   2231144  
  5740.000000   2230759   2230446   2230208   2230042   2229966  
  5730.000000   2229982   2230093   2230280   2230523   2230792  
  5720.000000   2231075   2231362   2231666   2231992   2232354  
  5710.000000   2232746   2233162   2233590   2234033   2234498  
  5700.000000   2235006   2235577   2236222   2236940   2237711  
  5690.000000   2238510   2239307   2240080   2240808   2241481  
  5680.000000   2242077   2242583   2242976   2243248   2243391  
  5670.000000   2243420   2243341   2243169   2242900   2242526  
  5660.000000   2242028   2241405   2240659   2239828   2238945  
  5650.000000   2238059   2237190   2236347   2235514   2234672  
  5640.000000   2233805   2232918   2232026   2231156   2230328  
  5630.000000   2229557   2228837   2228156   2227499   2226852  
  5620.000000   2226205   2225547   2224863   2224134   2223344  
  5610.000000   2222487   2221573   2220634   2219708   2218834  
  5600.000000   2218030   2217291   2216586   2215877   2215121  
  5590.000000   2214296   2213389   2212407   2211359   2210255  
  5580.000000   2209105   2207918   2206711   2205504   2204320  
  5570.000000   2203174   2202068   2200987   2199904   2198793  
  5560.000000   2197636   2196432   2195196   2193949   2192713  
  5550.000000   2191498   2190306   2189134   2187976   2186831  
  5540.000000   2185700   2184580   2183465   2182344   2181207  
  5530.000000   2180052   2178890   2177743   2176637   2175588  
  5520.000000   2174595   2173637   2172683   2171704   2170679  
  5510.000000   2169607   2168495   2167357   2166195   2165003  
  5500.000000   2163768   2162486   2161162   2159821   2158492  
  5490.000000   2157201   2155950   2154722   2153475   2152175  
  5480.000000   2150789   2149315   2147759   2146145   2144481  
  5470.000000   2142775   2141018   2139203   2137327   2135402  
  5460.000000   2133439   2131448   2129420   2127341   2125187  
  5450.000000   2122953   2120657   2118347   2116087   2113932  
  5440.000000   2111913   2110017   2108210   2106439   2104671  
  5430.000000   2102889   2101110   2099352   2097639   2095970  
  5420.000000   2094349   2092766   2091243   2089800   2088490  
  5410.000000   2087333   2086352   2085515   2084799   2084158  
  5400.000000   2083594   2083115   2082780   2082626   2082700  
  5390.000000   2082989   2083478   2084107   2084858   2085703  
  5380.000000   2086677   2087792   2089100   2090596   2092298  
  5370.000000   2094164   2096203   2098379   2100725   2103221  
  5360.000000   2105917   2108792   2111902   2115237   2118883  
  5350.000000   2122859   2127273   2132131   2137505   2143340  
  5340.000000   2149665   2156404   2163613   2171260   2179449  
  5330.000000   2188159   2197478   2207338   2217785   2228727  
  5320.000000   2240234   2252263   2264949   2278286   2292422  
  5310.000000   2307319   2323078   2339612   2356996   2375152  
  5300.000000   2394187   2414066   2434931   2456769   2479705  
  5290.000000   2503688   2528763   2554792   2581720   2609351  
  5280.000000   2637624   2666421   2695796   2725773   2756494  
  5270.000000   2787997   2820299   2853252   2886634   2920160  
  5260.000000   2953572   2986726   3019565   3052157   3084537  
  5250.000000   3116747   3148652   3180117   3210849   3240704  
  5240.000000   3269486   3297258   3324010   3349945   3375083  
  5230.000000   3399571   3423307   3446313   3468391   3489537  
  5220.000000   3509598   3528669   3546705   3563891   3580231  
  5210.000000   3595898   3610830   3625098   3638541   3651174  
  5200.000000   3662841   3673621   3683457   3692506   3700747  
  5190.000000   3708314   3715126   3721247   3726562   3731141  
  5180.000000   3734922   3738033   3740459   3742322   3743572  
  5170.000000   3744268   3744321   3743775   3742575   3740813  
  5160.000000   3738484   3735698   3732447   3728810   3724755  
  5150.000000   3720346   3715566   3710489   3705112   3699496  
  5140.000000   3693617   3687507   3681128   3674515   3667664  
  5130.000000   3660636   3653452   3646169   3638791   3631347  
  5120.000000   3623821   3616234   3608582   3600900   3593198  
  5110.000000   3585504   3577811   3570126   3562431   3554734  
  5100.000000   3547036   3539358   3531714   3524117   3516562  
  5090.000000   3509038   3501524   3494011   3486490   3478972  
  5080.000000   3471460   3463965   3456482   3449007   3441525  
  5070.000000   3434033   3426521   3418996   3411450   3403877  
  5060.000000   3396254   3388563   3380778   3372902   3364943  
  5050.000000   3356938   3348919   3340923   3332963   3325042  
  5040.000000   3317139   3309239   3301324   3293388   3285437  
  5030.000000   3277480   3269533   3261601   3253695   3245819  
  5020.000000   3237995   3230239   3222587   3215060   3207692  
  5010.000000   3200487   3193461   3186598   3179908   3173375  
  5000.000000   3167023   3160848   3154891   3149152   3143675  
  4990.000000   3138453   3133523   3128867   3124515   3120438  
  4980.000000   3116664   3113158   3109952   3107017   3104401  
  4970.000000   3102089   3100140   3098541   3097348   3096532  
  4960.000000   3096132   3096108   3096495   3097252   3098417  
  4950.000000   3099950   3101886   3104176   3106845   3109843  
  4940.000000   3113199   3116873   3120907   3125267   3129991  
  4930.000000   3135031   3140403   3146048   3151979   3158154  
  4920.000000   3164610   3171330   3178366   3185703   3193375  
  4910.000000   3201345   3209618   3218142   3226910   3235874  
  4900.000000   3245031   3254349   3263832   3273462   3283248  
  4890.000000   3293179   3303251   3313443   3323722   3334038  
  4880.000000   3344331   3354544   3364614   3374509   3384192  
  4870.000000   3393657   3402882   3411869   3420590   3429045  
  4860.000000   3437208   3445094   3452694   3460046   3467158  
  4850.000000   3474080   3480819   3487419   3493875   3500217  
  4840.000000   3506420   3512499   3518420   3524193   3529789  
  4830.000000   3535229   3540499   3545631   3550614   3555467  
  4820.000000   3560161   3564694   3569029   3573168   3577097  
  4810.000000   3580845   3584422   3587871   3591196   3594421  
  4800.000000   3597529   3600529   3603406   3606179   3608857  
  4790.000000   3611479   3614060   3616633   3619197   3621759  
  4780.000000   3624299   3626810   3629264   3631658   3633968  
  4770.000000   3636195   3638320   3640346   3642253   3644044  
  4760.000000   3645691   3647194   3648520   3649667   3650608  
  4750.000000   3651355   3651896   3652257   3652432   3652441  
  4740.000000   3652264   3651905   3651333   3650554   3649554  
  4730.000000   3648363   3646994   3645491   3643868   3642154  
  4720.000000   3640342   3638440   3636433   3634331   3632140  
  4710.000000   3629892   3627614   3625345   3623109   3620927  
  4700.000000   3618799   3616726   3614691   3612687   3610704  
  4690.000000   3608740   3606796   3604879   3602989   3601123  
  4680.000000   3599269   3597404   3595501   3593527   3591460  
  4670.000000   3589286   3587011   3584655   3582260   3579866  
  4660.000000   3577523   3575264   3573121   3571103   3569216  
  4650.000000   3567455   3565818   3564299   3562901   3561619  
  4640.000000   3560457   3559406   3558463   3557609   3556835  
  4630.000000   3556117   3555445   3554803   3554185   3553582  
  4620.000000   3552992   3552405   3551815   3551207   3550569  
  4610.000000   3549886   3549152   3548372   3547562   3546745  
  4600.000000   3545950   3545203   3544518   3543899   3543334  
  4590.000000   3542806   3542291   3541770   3541224   3540642  
  4580.000000   3540011   3539326   3538579   3537776   3536926  
  4570.000000   3536052   3535183   3534350   3533573   3532858  
  4560.000000   3532185   3531524   3530824   3530043   3529145  
  4550.000000   3528110   3526941   3525650   3524265   3522814  
  4540.000000   3521334   3519851   3518405   3517017   3515724  
  4530.000000   3514533   3513467   3512517   3511704   3511014  
  4520.000000   3510486   3510119   3509976   3510066   3510464  
  4510.000000   3511173   3512268   3513742   3515677   3518060  
  4500.000000   3520974   3524398   3528411   3532979   3538179  
  4490.000000   3543975   3550452   3557586   3565464   3574058  
  4480.000000   3583433   3593535   3604396   3615940   3628172  
  4470.000000   3641005   3654426   3668334   3682689   3697377  
  4460.000000   3712336   3727454   3742667   3757880   3773040  
  4450.000000   3788070   3802920   3817536   3831882   3845945  
  4440.000000   3859721   3873249   3886550   3899691   3912682  
  4430.000000   3925578   3938349   3951029   3963549   3975927  
  4420.000000   3988074   3999998   4011594   4022852   4033641  
  4410.000000   4043929   4053562   4062493   4070577   4077786  
  4400.000000   4084026   4089331   4093687   4097194   4099900  
  4390.000000   4101939   4103378   4104348   4104911   4105183  
  4380.000000   4105230   4105168   4105082   4105099   4105322  
  4370.000000   4105875   4106853   4108338   4110381   4112992  
  4360.000000   4116157   4119824   4123931   4128397   4133152  
  4350.000000   4138124   4143260   4148517   4153864   4159277  
  4340.000000   4164726   4170173   4175550   4180761   4185663  
  4330.000000   4190091   4193858   4196814   4198854   4199983  
  4320.000000   4200297   4200015   4199393   4198735   4198265  
  4310.000000   4198168   4198483   4199205   4200219   4201428  
  4300.000000   4202698   4203955   4205127   4206186   4207099  
  4290.000000   4207855   4208439   4208855   4209113   4209252  
  4280.000000   4209311   4209351   4209404   4209516   4209682  
  4270.000000   4209910   4210149   4210361   4210450   4210328  
  4260.000000   4209872   4208983   4207566   4205586   4203049  
  4250.000000   4200035   4196656   4193070   4189420   4185855  
  4240.000000   4182471   4179349   4176511   4173972   4171696  
  4230.000000   4169641   4167735   4165896   4164035   4162066  
  4220.000000   4159931   4157589   4155054   4152354   4149569  
  4210.000000   4146767   4144047   4141472   4139116   4137010  
  4200.000000   4135193   4133663   4132429   4131458   4130741  
  4190.000000   4130221   4129881   4129657   4129545   4129495  
  4180.000000   4129536   4129647   4129897   4130299   4130961  
  4170.000000   4131927   4133330   4135218   4137710   4140818  
  4160.000000   4144610   4149036   4154110   4159741   4165931  
  4150.000000   4172594   4179756   4187358   4195457   4204016  
  4140.000000   4213109   4222705   4232875   4243578   4254860  
  4130.000000   4266654   4278977   4291741   4304953   4318541  
  4120.000000   4332527   4346871   4361617   4376746   4392305  
  4110.000000   4408274   4424689   4441517   4458769   4476394  
  4100.000000   4494367   4512615   4531096   4549743   4568531  
  4090.000000   4587430   4606437   4625546   4644747   4664025  
  4080.000000   4683345   4702685   4722002   4741287   4760503  
  4070.000000   4779652   4798685   4817604   4836345   4854924  
  4060.000000   4873280   4891442   4909338   4926980   4944252  
  4050.000000   4961145   4977524   4993400   5008663   5023361  
  4040.000000   5037389   5050783   5063400   5075253   5086191  
  4030.000000   5096259   5105344   5113530   5120730   5127003  
  4020.000000   5132208   5136390   5139475   5141537   5142494  
  4010.000000   5142518   5141710   5140136   5137572   5134153  
  4000.000000   5130309  
##END= 
