##TITLE= Sample 006 By ssteindl date Montag, November 19 2018
##JCAMP-DX= 4.24
##DATA TYPE= INFRARED SPECTRUM
##ORIGIN= Exported PE Spectrum Data File
##OWNER= Sandra Steindl
##DATE= 18/11/19
##TIME= 15:50:16.00
##SPECTROMETER/DATA SYSTEM= PERKIN-ELMER Frontier FT-IR/NIR IR
##INSTRUMENT PARAMETERS=
  APODIZATION=stark
  DETECTOR=INGAAS
##RESOLUTION= 16.000000
##DELTAX= -2.000000
##XUNITS= 1/CM
##YUNITS= A
##XFACTOR= 1.00
##YFACTOR= 0.00000000023841857910
##FIRSTX= 10000.00
##LASTX= 4000.00
##NPOINTS= 3001
##FIRSTY= 0.006936
##MAXY= 0.433038
##MINY= -0.015736
##XYDATA= (X++(Y..Y))
 10000.000000   0029091033   0027092091   0024784570   0021940834   0018951388  
  9990.000000   0016410166   0014606659   0013459225   0012905670   0012931487  
  9980.000000   0013475645   0014386625   0015524182   0016733523   0017854558  
  9970.000000   0018756010   0019464338   0020134746   0021025723   0022366758  
  9960.000000   0024239425   0026488185   0028733358   0030499340   0031397993  
  9950.000000   0031301171   0030419332   0029234779   0028307422   0028044121  
  9940.000000   0028488110   0029309959   0029901018   0029664544   0028246004  
  9930.000000   0025732465   0022610444   0019627480   0017476343   0016578612  
  9920.000000   0016893765   0017978813   0019151562   0019757669   0019406985  
  9910.000000   0018061082   0016002267   0013663862   0011448344   0009594289  
  9900.000000   0008150277   0007027312   0006131947   0005412070   0004924863  
  9890.000000   0004736373   0004889051   0005295969   0005770043   0006063812  
  9880.000000   0005996004   0005524924   0004801558   0004110533   0003780100  
  9870.000000   0004063310   0005052471   0006689061   0008789389   0011149020  
  9860.000000   0013572602   0015903962   0018005281   0019722926   0020901533  
  9850.000000   0021380454   0021060883   0019924356   0018069867   0015684841  
  9840.000000   0013020287   0010334804   0007879031   0005883143   0004546372  
  9830.000000   0004039397   0004408750   0005587316   0007278100   0009086593  
  9820.000000   0010535092   0011311211   0011334148   0010858477   0010362858  
  9810.000000   0010363348   0011181162   0012730190   0014514451   0015722990  
  9800.000000   0015549547   0013444327   0009359164   0003744151  -0002565720  
  9790.000000  -0008628401  -0013641805  -0017131505  -0018995753  -0019427246  
  9780.000000  -0018803677  -0017539073  -0016029715  -0014575447  -0013374727  
  9770.000000  -0012487169  -0011815715  -0011146283  -0010172678  -0008678677  
  9760.000000  -0006592303  -0004163085  -0001847370  -0000249767   0000175302  
  9750.000000  -0000712376  -0002623172  -0004896403  -0006760440  -0007559925  
  9740.000000  -0007043225  -0005372602  -0003057293  -0000694646   0001246977  
  9730.000000   0002562766   0003280793   0003541164   0003409984   0002827023  
  9720.000000   0001610492  -0000375141  -0003060349  -0006093434  -0008858009  
  9710.000000  -0010708474  -0011188420  -0010270424  -0008408953  -0006388967  
  9700.000000  -0005084027  -0005104140  -0006614360  -0009257300  -0012281136  
  9690.000000  -0014790858  -0015999063  -0015474435  -0013236056  -0009767543  
  9680.000000  -0005878157  -0002502879  -0000443426  -0000157450  -0001619069  
  9670.000000  -0004322707  -0007421704  -0009969617  -0011221363  -0010857922  
  9660.000000  -0009106304  -0006631512  -0004322575  -0002944915  -0002917290  
  9650.000000  -0004150384  -0006151215  -0008217244  -0009728269  -0010385349  
  9640.000000  -0010274035  -0009838639  -0009657455  -0010265591  -0011960758  
  9630.000000  -0014719844  -0018230992  -0021928054  -0025168173  -0027305053  
  9620.000000  -0027878638  -0026690726  -0023897340  -0020030740  -0015889084  
  9610.000000  -0012424189  -0010451596  -0010498748  -0012594059  -0016313445  
  9600.000000  -0020855349  -0025307728  -0028862150  -0031012682  -0031612760  
  9590.000000  -0030805704  -0028925287  -0026324630  -0023348122  -0020258006  
  9580.000000  -0017309693  -0014734122  -0012764741  -0011590299  -0011301147  
  9570.000000  -0011882665  -0013184294  -0015011073  -0017124841  -0019330650  
  9560.000000  -0021445224  -0023296737  -0024723789  -0025568366  -0025786084  
  9550.000000  -0025442330  -0024793326  -0024177252  -0023932445  -0024245529  
  9540.000000  -0025060831  -0026115345  -0027023406  -0027481481  -0027389408  
  9530.000000  -0026934585  -0026507140  -0026527917  -0027235505  -0028546216  
  9520.000000  -0030049989  -0031165987  -0031365478  -0030409724  -0028443110  
  9510.000000  -0025965826  -0023652100  -0022132321  -0021803682  -0022725236  
  9500.000000  -0024637770  -0027045431  -0029358640  -0031014503  -0031590914  
  9490.000000  -0030889328  -0028991523  -0026278792  -0023377206  -0021022598  
  9480.000000  -0019878150  -0020316607  -0022317231  -0025416907  -0028865215  
  9470.000000  -0031817351  -0033605009  -0033934227  -0032945461  -0031157436  
  9460.000000  -0029245002  -0027841428  -0027351740  -0027901566  -0029379579  
  9450.000000  -0031521968  -0034015955  -0036539134  -0038781505  -0040449367  
  9440.000000  -0041283171  -0041116274  -0039940533  -0037948289  -0035535789  
  9430.000000  -0033187639  -0031374751  -0030392178  -0030308287  -0030965757  
  9420.000000  -0032052224  -0033256311  -0034334674  -0035223172  -0035974801  
  9410.000000  -0036736996  -0037644203  -0038770776  -0040111680  -0041569562  
  9400.000000  -0043003030  -0044216077  -0045022591  -0045248266  -0044802803  
  9390.000000  -0043708780  -0042131762  -0040370148  -0038782235  -0037712815  
  9380.000000  -0037376214  -0037810404  -0038841592  -0040160758  -0041404170  
  9370.000000  -0042295247  -0042699936  -0042656700  -0042315874  -0041867755  
  9360.000000  -0041484634  -0041263033  -0041238459  -0041365397  -0041572747  
  9350.000000  -0041758186  -0041836973  -0041736866  -0041429401  -0040938746  
  9340.000000  -0040362239  -0039861558  -0039632291  -0039836351  -0040546012  
  9330.000000  -0041697204  -0043112918  -0044560779  -0045834871  -0046825933  
  9320.000000  -0047537766  -0048086507  -0048638141  -0049353310  -0050320539  
  9310.000000  -0051526925  -0052874366  -0054200032  -0055344141  -0056158409  
  9300.000000  -0056548044  -0056459470  -0055893480  -0054926529  -0053688057  
  9290.000000  -0052385263  -0051223499  -0050413067  -0050102222  -0050392523  
  9280.000000  -0051305641  -0052777884  -0054638741  -0056622706  -0058392455  
  9270.000000  -0059584778  -0059887100  -0059101221  -0057266190  -0054668339  
  9260.000000  -0051851259  -0049433098  -0047954528  -0047698935  -0048616725  
  9250.000000  -0050350868  -0052344712  -0054078557  -0055235046  -0055835106  
  9240.000000  -0056155950  -0056612312  -0057536504  -0059051592  -0061012663  
  9230.000000  -0063055964  -0064758571  -0065770093  -0065963138  -0065402751  
  9220.000000  -0064308861  -0062921629  -0061441625  -0059989142  -0058620822  
  9210.000000  -0057381215  -0056318588  -0055509515  -0055013008  -0054875682  
  9200.000000  -0055091820  -0055642345  -0056490650  -0057626796  -0059039320  
  9190.000000  -0060688921  -0062453490  -0064110694  -0065380288  -0066003589  
  9180.000000  -0065858307  -0065013356  -0063745466  -0062454494  -0061534368  
  9170.000000  -0061215238  -0061473094  -0062055665  -0062587789  -0062718423  
  9160.000000  -0062237315  -0061150800  -0059666497  -0058102290  -0056757486  
  9150.000000  -0055825667  -0055356027  -0055278928  -0055461400  -0055772789  
  9140.000000  -0056136465  -0056532136  -0056981312  -0057516774  -0058153986  
  9130.000000  -0058882950  -0059657791  -0060406323  -0061049193  -0061502442  
  9120.000000  -0061722944  -0061697761  -0061481745  -0061161794  -0060841863  
  9110.000000  -0060598094  -0060443425  -0060332739  -0060175695  -0059900625  
  9100.000000  -0059496854  -0059052871  -0058735344  -0058727906  -0059146939  
  9090.000000  -0059979177  -0061060712  -0062117976  -0062851042  -0063055029  
  9080.000000  -0062690643  -0061908439  -0060981369  -0060229534  -0059913530  
  9070.000000  -0060159437  -0060925251  -0062018571  -0063173150  -0064102379  
  9060.000000  -0064574503  -0064442110  -0063669529  -0062330935  -0060592492  
  9050.000000  -0058704580  -0056962387  -0055661243  -0055032810  -0055186110  
  9040.000000  -0056082358  -0057527663  -0059219623  -0060814031  -0062007948  
  9030.000000  -0062609586  -0062572926  -0061998521  -0061100010  -0060147635  
  9020.000000  -0059410660  -0059096531  -0059315527  -0060062209  -0061220049  
  9010.000000  -0062591161  -0063927936  -0065001259  -0065631795  -0065738289  
  9000.000000  -0065331239  -0064509020  -0063431494  -0062265006  -0061166653  
  8990.000000  -0060232512  -0059516735  -0059009082  -0058656863  -0058387079  
  8980.000000  -0058119519  -0057815731  -0057471401  -0057162234  -0057011131  
  8970.000000  -0057172238  -0057768932  -0058843295  -0060326676  -0062011593  
  8960.000000  -0063602841  -0064776837  -0065294195  -0065047192  -0064106835  
  8950.000000  -0062698701  -0061162062  -0059842476  -0059004396  -0058768870  
  8940.000000  -0059102689  -0059843639  -0060745378  -0061562303  -0062105791  
  8930.000000  -0062301248  -0062177163  -0061862101  -0061524614  -0061334879  
  8920.000000  -0061401096  -0061747909  -0062309024  -0062955697  -0063541450  
  8910.000000  -0063948612  -0064119195  -0064065054  -0063842943  -0063521385  
  8900.000000  -0063141950  -0062700546  -0062162130  -0061473395  -0060614443  
  8890.000000  -0059605765  -0058532492  -0057507925  -0056646923  -0056032589  
  8880.000000  -0055695020  -0055625155  -0055779869  -0056122946  -0056630050  
  8870.000000  -0057301805  -0058141317  -0059138502  -0060251213  -0061399904  
  8860.000000  -0062479159  -0063371961  -0063981007  -0064244993  -0064155807  
  8850.000000  -0063758362  -0063130114  -0062378451  -0061596671  -0060874676  
  8840.000000  -0060255600  -0059758847  -0059361804  -0059022764  -0058685300  
  8830.000000  -0058285024  -0057757890  -0057033900  -0056049297  -0054752183  
  8820.000000  -0053131396  -0051238150  -0049209401  -0047269114  -0045689122  
  8810.000000  -0044737257  -0044582721  -0045259541  -0046621984  -0048392188  
  8800.000000  -0050215603  -0051757818  -0052791139  -0053222215  -0053100479  
  8790.000000  -0052544658  -0051695620  -0050651338  -0049460268  -0048140678  
  8780.000000  -0046718181  -0045270885  -0043926972  -0042853060  -0042182859  
  8770.000000  -0041978099  -0042167527  -0042564831  -0042890516  -0042859069  
  8760.000000  -0042253639  -0040989253  -0039146531  -0036946636  -0034710427  
  8750.000000  -0032772511  -0031404337  -0030751919  -0030796478  -0031373941  
  8740.000000  -0032208772  -0033002271  -0033502913  -0033577428  -0033226723  
  8730.000000  -0032563137  -0031751002  -0030932505  -0030182260  -0029476888  
  8720.000000  -0028733586  -0027847386  -0026767044  -0025518646  -0024211521  
  8710.000000  -0022998803  -0022012603  -0021323330  -0020898226  -0020631492  
  8700.000000  -0020374026  -0020001349  -0019452076  -0018748538  -0017977986  
  8690.000000  -0017258508  -0016685078  -0016309296  -0016107228  -0016010352  
  8680.000000  -0015909875  -0015707523  -0015330221  -0014756475  -0014009794  
  8670.000000  -0013138624  -0012188737  -0011176215  -0010077526  -0008825089  
  8660.000000  -0007334218  -0005536982  -0003430675  -0001102195   0001279142  
  8650.000000   0003488490   0005316086   0006612746   0007347409   0007604130  
  8640.000000   0007554516   0007405955   0007330454   0007442756   0007773989  
  8630.000000   0008308723   0009003737   0009825339   0010748891   0011750347  
  8620.000000   0012773002   0013721339   0014459488   0014862382   0014860486  
  8610.000000   0014491838   0013916138   0013384143   0013178346   0013521628  
  8600.000000   0014509732   0016074925   0017999743   0019980368   0021705959  
  8590.000000   0022947573   0023613238   0023766539   0023594817   0023347558  
  8580.000000   0023260678   0023496665   0024109607   0025036985   0026134767  
  8570.000000   0027220119   0028140305   0028805540   0029205385   0029393443  
  8560.000000   0029446634   0029441198   0029421908   0029414292   0029437203  
  8550.000000   0029530637   0029764189   0030227148   0030991174   0032077804  
  8540.000000   0033421449   0034874779   0036236688   0037313124   0037984284  
  8530.000000   0038228362   0038134010   0037852249   0037555027   0037373624  
  8520.000000   0037367597   0037534972   0037832998   0038226564   0038700049  
  8510.000000   0039273235   0039977420   0040827987   0041797604   0042804313  
  8500.000000   0043731646   0044448015   0044852825   0044895205   0044607347  
  8490.000000   0044090493   0043511935   0043066202   0042943063   0043286315  
  8480.000000   0044149225   0045483465   0047126304   0048851332   0050411104  
  8470.000000   0051617844   0052389015   0052769976   0052913465   0053009337  
  8460.000000   0053224142   0053622448   0054166660   0054721106   0055130115  
  8450.000000   0055273147   0055122968   0054763620   0054353793   0054085957  
  8440.000000   0054106898   0054500373   0055261768   0056320823   0057565064  
  8430.000000   0058871011   0060130812   0061250034   0062150326   0062775182  
  8420.000000   0063104136   0063166794   0063045951   0062871197   0062796829  
  8410.000000   0062957580   0063427129   0064191015   0065143627   0066126702  
  8400.000000   0066961720   0067516087   0067719759   0067603755   0067265841  
  8390.000000   0066856533   0066514533   0066351372   0066414697   0066689462  
  8380.000000   0067100175   0067534806   0067880645   0068038793   0067948203  
  8370.000000   0067583644   0066964195   0066140719   0065187967   0064191808  
  8360.000000   0063246986   0062455749   0061923569   0061744876   0061978619  
  8350.000000   0062633414   0063650426   0064907625   0066233855   0067442970  
  8340.000000   0068383497   0068966088   0069192589   0069131228   0068903204  
  8330.000000   0068632566   0068425368   0068343373   0068403570   0068595139  
  8320.000000   0068888337   0069259796   0069678052   0070115397   0070528489  
  8310.000000   0070869849   0071091073   0071153269   0071043722   0070770068  
  8300.000000   0070363733   0069860120   0069292069   0068695033   0068107247  
  8290.000000   0067592073   0067225245   0067104214   0067311141   0067891851  
  8280.000000   0068811705   0069948339   0071102511   0072045000   0072575924  
  8270.000000   0072573028   0072032536   0071064948   0069878235   0068712647  
  8260.000000   0067783253   0067225463   0067069248   0067250308   0067627813  
  8250.000000   0068042446   0068345028   0068455820   0068356569   0068108069  
  8240.000000   0067792382   0067503911   0067294620   0067173934   0067102385  
  8230.000000   0067010095   0066833228   0066522261   0066065435   0065467866  
  8220.000000   0064740368   0063881358   0062866626   0061669925   0060285456  
  8210.000000   0058769461   0057253952   0055932720   0055007119   0054623234  
  8200.000000   0054804386   0055436922   0056277988   0057034044   0057441730  
  8190.000000   0057358050   0056802672   0055941329   0055020968   0054270588  
  8180.000000   0053825111   0053679711   0053711457   0053726741   0053545999  
  8170.000000   0053057673   0052255218   0051223873   0050092700   0048991049  
  8160.000000   0047994383   0047129146   0046374871   0045704343   0045104742  
  8150.000000   0044590405   0044193667   0043942172   0043829291   0043807342  
  8140.000000   0043783859   0043657082   0043341520   0042802007   0042066968  
  8130.000000   0041214065   0040354478   0039585288   0038973149   0038521472  
  8120.000000   0038181851   0037858007   0037442565   0036843819   0036021028  
  8110.000000   0034999530   0033872449   0032781503   0031881940   0031303939  
  8100.000000   0031114398   0031299689   0031763702   0032356034   0032908127  
  8090.000000   0033283096   0033405348   0033277896   0032966597   0032570745  
  8080.000000   0032184950   0031863536   0031610458   0031375832   0031086610  
  8070.000000   0030666300   0030068645   0029287523   0028358227   0027348851  
  8060.000000   0026334892   0025391624   0024569450   0023901231   0023391448  
  8050.000000   0023031786   0022798566   0022665695   0022602726   0022580407  
  8040.000000   0022568402   0022535222   0022451362   0022285280   0022015409  
  8030.000000   0021623091   0021110623   0020490626   0019799497   0019081345  
  8020.000000   0018389391   0017768227   0017250095   0016846027   0016549155  
  8010.000000   0016338891   0016189535   0016077944   0015985880   0015903080  
  8000.000000   0015822861   0015743425   0015666174   0015597357   0015550463  
  7990.000000   0015540938   0015584991   0015684228   0015824550   0015964830  
  7980.000000   0016051517   0016023334   0015839344   0015486606   0014993837  
  7970.000000   0014421497   0013845442   0013338507   0012947522   0012694708  
  7960.000000   0012573507   0012569703   0012664783   0012848539   0013108277  
  7950.000000   0013423724   0013752477   0014030642   0014182961   0014141151  
  7940.000000   0013874110   0013395233   0012774192   0012108119   0011502082  
  7930.000000   0011031385   0010723420   0010557383   0010473348   0010409112  
  7920.000000   0010316028   0010187356   0010048370   0009949340   0009937060  
  7910.000000   0010033353   0010224254   0010454004   0010648178   0010722445  
  7900.000000   0010619561   0010311856   0009823408   0009214779   0008579086  
  7890.000000   0008016814   0007615863   0007434735   0007486584   0007745188  
  7880.000000   0008146297   0008614096   0009073476   0009474830   0009796425  
  7870.000000   0010044519   0010239426   0010396652   0010518518   0010582836  
  7860.000000   0010558526   0010411360   0010128614   0009724112   0009242049  
  7850.000000   0008747147   0008304605   0007968500   0007763540   0007689306  
  7840.000000   0007719327   0007816084   0007937725   0008048203   0008119250  
  7830.000000   0008134079   0008085305   0007980239   0007836028   0007684766  
  7820.000000   0007560840   0007499912   0007522106   0007630582   0007804073  
  7810.000000   0008003683   0008178621   0008276894   0008253141   0008073202  
  7800.000000   0007717461   0007181517   0006480421   0005651065   0004753614  
  7790.000000   0003867934   0003078873   0002463435   0002065314   0001891519  
  7780.000000   0001900413   0002024113   0002177993   0002292312   0002321883  
  7770.000000   0002254504   0002104976   0001896988   0001656223   0001391076  
  7760.000000   0001102539   0000778421   0000412293   0000002174  -0000439797  
  7750.000000  -0000892727  -0001329040  -0001718823  -0002036359  -0002260289  
  7740.000000  -0002383629  -0002411720  -0002371876  -0002304122  -0002259504  
  7730.000000  -0002280379  -0002390560  -0002581523  -0002817149  -0003044972  
  7720.000000  -0003220380  -0003326808  -0003386816  -0003458266  -0003611636  
  7710.000000  -0003906798  -0004365827  -0004969179  -0005659941  -0006368172  
  7700.000000  -0007033181  -0007620505  -0008126147  -0008563654  -0008950766  
  7690.000000  -0009290460  -0009570796  -0009766702  -0009857613  -0009838934  
  7680.000000  -0009728771  -0009567494  -0009401224  -0009278684  -0009231058  
  7670.000000  -0009283286  -0009440769  -0009706581  -0010065868  -0010495324  
  7660.000000  -0010948220  -0011365253  -0011678397  -0011831341  -0011797277  
  7650.000000  -0011587496  -0011253324  -0010865153  -0010493791  -0010185032  
  7640.000000  -0009949723  -0009768822  -0009605480  -0009433337  -0009244801  
  7630.000000  -0009066200  -0008937774  -0008905169  -0008989005  -0009180815  
  7620.000000  -0009436927  -0009693828  -0009886383  -0009962565  -0009900048  
  7610.000000  -0009702611  -0009400411  -0009035601  -0008651615  -0008286440  
  7600.000000  -0007962296  -0007693319  -0007478969  -0007318926  -0007206539  
  7590.000000  -0007140729  -0007114882  -0007121194  -0007138746  -0007135805  
  7580.000000  -0007069246  -0006892997  -0006571103  -0006087993  -0005458610  
  7570.000000  -0004728921  -0003965842  -0003245811  -0002629839  -0002159552  
  7560.000000  -0001840225  -0001657510  -0001571462  -0001540499  -0001514455  
  7550.000000  -0001450827  -0001308168  -0001054917  -0000671678  -0000153822  
  7540.000000   0000482897   0001211543   0001996394   0002807543   0003625623  
  7530.000000   0004442804   0005259359   0006065558   0006841617   0007544261  
  7520.000000   0008131450   0008564031   0008840937   0008994277   0009099169  
  7510.000000   0009241512   0009500827   0009920818   0010506838   0011226914  
  7500.000000   0012034399   0012885885   0013760465   0014657354   0015589356  
  7490.000000   0016564587   0017581863   0018623142   0019670907   0020708788  
  7480.000000   0021743648   0022788276   0023866267   0024982191   0026124875  
  7470.000000   0027256834   0028335012   0029323831   0030217769   0031043049  
  7460.000000   0031856186   0032720715   0033691709   0034791000   0036006165  
  7450.000000   0037292075   0038590637   0039844340   0041013623   0042084562  
  7440.000000   0043073748   0044021354   0044981798   0046010360   0047151098  
  7430.000000   0048423437   0049815787   0051283192   0052760715   0054176982  
  7420.000000   0055477932   0056638716   0057671598   0058617282   0059529926  
  7410.000000   0060457303   0061428389   0062448611   0063508549   0064594682  
  7400.000000   0065700348   0066829851   0067991565   0069191070   0070419935  
  7390.000000   0071657106   0072875008   0074050212   0075176149   0076262177  
  7380.000000   0077332065   0078407476   0079499566   0080602522   0081699773  
  7370.000000   0082777440   0083835545   0084896145   0085994815   0087169685  
  7360.000000   0088439544   0089794794   0091192713   0092572646   0093873824  
  7350.000000   0095055678   0096108113   0097052616   0097929619   0098783655  
  7340.000000   0099644646   0100526663   0101427114   0102340607   0103261984  
  7330.000000   0104195163   0105143979   0106111982   0107086537   0108047547  
  7320.000000   0108962343   0109806492   0110565714   0111250606   0111890743  
  7310.000000   0112528936   0113203740   0113936222   0114720042   0115524329  
  7300.000000   0116302692   0117010891   0117620154   0118129570   0118563474  
  7290.000000   0118966747   0119385897   0119860224   0120408096   0121030509  
  7280.000000   0121711486   0122429349   0123160354   0123885820   0124589756  
  7270.000000   0125259477   0125883093   0126451549   0126963871   0127426574  
  7260.000000   0127859740   0128285384   0128730262   0129205726   0129715476  
  7250.000000   0130242982   0130773237   0131289836   0131796540   0132309950  
  7240.000000   0132863813   0133490043   0134214954   0135045528   0135982226  
  7230.000000   0137013267   0138138395   0139353265   0140664384   0142056250  
  7220.000000   0143502945   0144945081   0146324346   0147580154   0148698347  
  7210.000000   0149699396   0150665876   0151695032   0152892202   0154313037  
  7200.000000   0155965005   0157791756   0159713571   0161645565   0163543739  
  7190.000000   0165403387   0167271970   0169207799   0171270032   0173473929  
  7180.000000   0175801930   0178189896   0180570422   0182872645   0185067421  
  7170.000000   0187148041   0189156068   0191141298   0193171774   0195292007  
  7160.000000   0197533084   0199889087   0202340320   0204847730   0207384451  
  7150.000000   0209931362   0212503357   0215129101   0217859973   0220729462  
  7140.000000   0223755381   0226904175   0230120038   0233317298   0236436974  
  7130.000000   0239442780   0242363321   0245258165   0248223827   0251337504  
  7120.000000   0254652382   0258161266   0261820714   0265553662   0269294371  
  7110.000000   0272995012   0276649441   0280272173   0283895958   0287540912  
  7100.000000   0291218806   0294917867   0298626780   0302327299   0306017492  
  7090.000000   0309695531   0313368470   0317035416   0320692464   0324330914  
  7080.000000   0327946890   0331546021   0335148779   0338782045   0342475445  
  7070.000000   0346243609   0350085269   0353974061   0357869567   0361723258  
  7060.000000   0365495755   0369164219   0372731768   0376226336   0379696362  
  7050.000000   0383199926   0386787301   0390490697   0394307927   0398207838  
  7040.000000   0402129701   0406009057   0409787130   0413435238   0416950242  
  7030.000000   0420358888   0423695287   0426993085   0430265034   0433508254  
  7020.000000   0436701237   0439825254   0442862895   0445818684   0448701885  
  7010.000000   0451539320   0454348205   0457153187   0459962780   0462791403  
  7000.000000   0465635937   0468494268   0471341818   0474149886   0476872838  
  6990.000000   0479475193   0481928987   0484239180   0486429157   0488547386  
  6980.000000   0490634362   0492722899   0494812596   0496890999   0498928677  
  6970.000000   0500914774   0502845915   0504747225   0506636468   0508532801  
  6960.000000   0510421865   0512280743   0514067767   0515761059   0517351123  
  6950.000000   0518861126   0520316249   0521743990   0523140668   0524487644  
  6940.000000   0525744723   0526887622   0527908767   0528838796   0529721625  
  6930.000000   0530607950   0531519466   0532452058   0533366372   0534220557  
  6920.000000   0534979433   0535644625   0536244303   0536832853   0537458697  
  6910.000000   0538157191   0538930098   0539760989   0540614757   0541462552  
  6900.000000   0542279293   0543054796   0543782807   0544461853   0545090787  
  6890.000000   0545671589   0546212344   0546723713   0547216334   0547691163  
  6880.000000   0548137692   0548535984   0548865793   0549125161   0549336744  
  6870.000000   0549557875   0549858764   0550309308   0550944035   0551756300  
  6860.000000   0552689680   0553659612   0554572747   0555355533   0555969466  
  6850.000000   0556413956   0556717540   0556921995   0557069353   0557194214  
  6840.000000   0557320788   0557467157   0557644844   0557863772   0558125986  
  6830.000000   0558429768   0558761922   0559108384   0559449336   0559771403  
  6820.000000   0560061294   0560312480   0560519833   0560684040   0560810045  
  6810.000000   0560912247   0561009978   0561129461   0561290153   0561504458  
  6800.000000   0561764869   0562052006   0562333899   0562581581   0562771264  
  6790.000000   0562893447   0562945155   0562929852   0562846497   0562695013  
  6780.000000   0562474386   0562196725   0561884742   0561578589   0561317640  
  6770.000000   0561136122   0561040274   0561014248   0561014608   0560993988  
  6760.000000   0560907050   0560731361   0560464143   0560123756   0559735003  
  6750.000000   0559323313   0558905014   0558490359   0558081992   0557682864  
  6740.000000   0557292911   0556913633   0556541722   0556174387   0555805398  
  6730.000000   0555433701   0555057981   0554682141   0554304485   0553920914  
  6720.000000   0553517957   0553082943   0552605873   0552092773   0551561531  
  6710.000000   0551043195   0550562791   0550133380   0549741563   0549354612  
  6700.000000   0548927466   0548422350   0547820548   0547129767   0546376061  
  6690.000000   0545593701   0544807308   0544029575   0543257371   0542488317  
  6680.000000   0541724387   0540985251   0540296291   0539685186   0539159425  
  6670.000000   0538705457   0538281883   0537837396   0537321940   0536705729  
  6660.000000   0535983573   0535173547   0534305581   0533410549   0532510254  
  6650.000000   0531617701   0530737150   0529873038   0529028976   0528211805  
  6640.000000   0527423209   0526661355   0525913667   0525165652   0524398954  
  6630.000000   0523603648   0522774849   0521918878   0521045475   0520168927  
  6620.000000   0519300685   0518451585   0517626313   0516826761   0516046416  
  6610.000000   0515273820   0514489774   0513673836   0512807061   0511879504  
  6600.000000   0510892307   0509857974   0508796466   0507728080   0506669915  
  6590.000000   0505631264   0504616786   0503627711   0502665875   0501734460  
  6580.000000   0500836927   0499975703   0499150930   0498361251   0497606470  
  6570.000000   0496887906   0496209618   0495572310   0494972198   0494393508  
  6560.000000   0493815036   0493210160   0492562236   0491865884   0491135355  
  6550.000000   0490394420   0489670847   0488981538   0488329956   0487704094  
  6540.000000   0487088018   0486469061   0485847884   0485235600   0484648597  
  6530.000000   0484096674   0483576840   0483072434   0482561408   0482027017  
  6520.000000   0481468179   0480900041   0480349658   0479841328   0479388349  
  6510.000000   0478983469   0478605498   0478224319   0477815740   0477365715  
  6500.000000   0476874824   0476352275   0475811603   0475265801   0474727278  
  6490.000000   0474209875   0473730453   0473306656   0472951307   0472663931  
  6480.000000   0472426399   0472203836   0471953464   0471638407   0471239346  
  6470.000000   0470761797   0470232762   0469691026   0469174177   0468707366  
  6460.000000   0468298786   0467940981   0467615723   0467301594   0466976674  
  6450.000000   0466623327   0466227523   0465782949   0465292171   0464769342  
  6440.000000   0464238274   0463726206   0463255355   0462832643   0462447625  
  6430.000000   0462073987   0461682582   0461252573   0460783211   0460294020  
  6420.000000   0459817896   0459386358   0459016885   0458705588   0458431752  
  6410.000000   0458167389   0457892011   0457599062   0457298359   0457006503  
  6400.000000   0456738637   0456497904   0456276085   0456055958   0455822131  
  6390.000000   0455565249   0455286742   0454993482   0454694390   0454394585  
  6380.000000   0454095380   0453797184   0453502849   0453221223   0452963106  
  6370.000000   0452737699   0452543836   0452369840   0452193743   0451993683  
  6360.000000   0451754400   0451475406   0451168503   0450852688   0450542983  
  6350.000000   0450244578   0449949044   0449641444   0449305355   0448934813  
  6340.000000   0448533374   0448117293   0447703797   0447309526   0446939706  
  6330.000000   0446592838   0446257432   0445921216   0445569678   0445192159  
  6320.000000   0444778470   0444323219   0443822950   0443282748   0442711705  
  6310.000000   0442128736   0441551080   0440997456   0440473609   0439980060  
  6300.000000   0439503347   0439031441   0438547779   0438045423   0437515788  
  6290.000000   0436956314   0436357243   0435709519   0434998395   0434216032  
  6280.000000   0433359010   0432438468   0431470708   0430480201   0429484169  
  6270.000000   0428497329   0427520811   0426555016   0425593338   0424636182  
  6260.000000   0423681473   0422732784   0421786169   0420837739   0419874798  
  6250.000000   0418888483   0417869857   0416821613   0415751602   0414675734  
  6240.000000   0413607559   0412557048   0411523707   0410499392   0409467864  
  6230.000000   0408411787   0407314942   0406168578   0404971880   0403734715  
  6220.000000   0402474783   0401216747   0399985958   0398804337   0397684143  
  6210.000000   0396625516   0395617461   0394640647   0393674960   0392703770  
  6200.000000   0391719338   0390721545   0389716392   0388711243   0387713393  
  6190.000000   0386728445   0385763122   0384825027   0383923998   0383067494  
  6180.000000   0382257447   0381484820   0380729962   0379965446   0379164432  
  6170.000000   0378307544   0377389889   0376420364   0375420240   0374413324  
  6160.000000   0373421901   0372459114   0371530975   0370636094   0369769970  
  6150.000000   0368926828   0368100510   0367285720   0366477725   0365674691  
  6140.000000   0364879094   0364098225   0363343577   0362624146   0361943696  
  6130.000000   0361292705   0360653203   0359998578   0359307898   0358568758  
  6120.000000   0357788189   0356985271   0356190127   0355428047   0354717408  
  6110.000000   0354059506   0353447108   0352864079   0352299368   0351745033  
  6100.000000   0351203903   0350680065   0350182132   0349712757   0349276125  
  6090.000000   0348870371   0348499264   0348161674   0347862206   0347596447  
  6080.000000   0347362319   0347147748   0346945777   0346747034   0346554354  
  6070.000000   0346372568   0346217488   0346100223   0346035477   0346025216  
  6060.000000   0346072077   0346165607   0346299346   0346456894   0346628673  
  6050.000000   0346798119   0346959679   0347107033   0347251369   0347408067  
  6040.000000   0347608698   0347880735   0348252040   0348730212   0349310605  
  6030.000000   0349966985   0350669027   0351382242   0352086020   0352769090  
  6020.000000   0353437920   0354101781   0354775947   0355465778   0356175122  
  6010.000000   0356895964   0357621630   0358339564   0359043581   0359726295  
  6000.000000   0360388391   0361032265   0361669370   0362313495   0362983753  
  5990.000000   0363694512   0364456446   0365266715   0366116089   0366985156  
  5980.000000   0367859055   0368725463   0369586625   0370450049   0371331908  
  5970.000000   0372242371   0373189108   0374168210   0375175717   0376204144  
  5960.000000   0377254574   0378329076   0379435328   0380574001   0381741952  
  5950.000000   0382924722   0384107112   0385272015   0386413123   0387530383  
  5940.000000   0388635360   0389739654   0390854858   0391984404   0393127062  
  5930.000000   0394277915   0395433630   0396595176   0397767652   0398957562  
  5920.000000   0400168471   0401397652   0402636097   0403869012   0405081024  
  5910.000000   0406257246   0407388766   0408469901   0409502210   0410490996  
  5900.000000   0411449279   0412394442   0413348673   0414334159   0415369065  
  5890.000000   0416462765   0417612821   0418806745   0420025705   0421251023  
  5880.000000   0422469318   0423673807   0424865604   0426046318   0427219633  
  5870.000000   0428381996   0429531091   0430659506   0431767057   0432853526  
  5860.000000   0433927680   0434997437   0436076217   0437174549   0438306289  
  5850.000000   0439482772   0440716161   0442013269   0443374703   0444791184  
  5840.000000   0446244975   0447714120   0449178635   0450627838   0452062123  
  5830.000000   0453492481   0454931422   0456386678   0457851061   0459305142  
  5820.000000   0460716924   0462057377   0463302415   0464448552   0465502152  
  5810.000000   0466487332   0467422208   0468329412   0469211079   0470072485  
  5800.000000   0470898780   0471687911   0472422956   0473105567   0473722477  
  5790.000000   0474278198   0474761004   0475174763   0475506490   0475753888  
  5780.000000   0475896551   0475920505   0475798829   0475517271   0475063674  
  5770.000000   0474450813   0473703154   0472867752   0471991931   0471125462  
  5760.000000   0470300574   0469538749   0468844047   0468216301   0467651350  
  5750.000000   0467148831   0466709112   0466331417   0466012392   0465742947  
  5740.000000   0465516878   0465327335   0465179677   0465078633   0465037570  
  5730.000000   0465057334   0465137309   0465258518   0465403488   0465547751  
  5720.000000   0465681221   0465797844   0465907224   0466018068   0466143833  
  5710.000000   0466289163   0466459001   0466652570   0466873334   0467123411  
  5700.000000   0467406845   0467722090   0468062020   0468413113   0468758822  
  5690.000000   0469087514   0469393508   0469683461   0469967035   0470257733  
  5680.000000   0470559507   0470870941   0471178274   0471466782   0471717335  
  5670.000000   0471917202   0472052251   0472113870   0472089901   0471974368  
  5660.000000   0471763038   0471466339   0471103106   0470706633   0470309019  
  5650.000000   0469940191   0469611961   0469323720   0469058196   0468797506  
  5640.000000   0468524383   0468234834   0467931764   0467626516   0467328210  
  5630.000000   0467043496   0466773200   0466516658   0466273842   0466047200  
  5620.000000   0465840084   0465653027   0465480614   0465311255   0465129561  
  5610.000000   0464923166   0464685935   0464422340   0464142656   0463860250  
  5600.000000   0463583163   0463313628   0463045823   0462772748   0462486934  
  5590.000000   0462186734   0461871464   0461542896   0461198208   0460833862  
  5580.000000   0460443651   0460027081   0459587555   0459136894   0458686486  
  5570.000000   0458246760   0457818215   0457395763   0456968152   0456528026  
  5560.000000   0456072665   0455608398   0455143504   0454684992   0454231080  
  5550.000000   0453772404   0453294779   0452787758   0452250328   0451693741  
  5540.000000   0451137159   0450600356   0450095241   0449622557   0449172592  
  5530.000000   0448732375   0448290975   0447845558   0447398977   0446957819  
  5520.000000   0446525518   0446101450   0445680259   0445256872   0444828610  
  5510.000000   0444397435   0443965856   0443534230   0443095526   0442638209  
  5500.000000   0442148087   0441619033   0441054413   0440472445   0439894933  
  5490.000000   0439342892   0438821529   0438323233   0437824826   0437303650  
  5480.000000   0436739466   0436128638   0435475645   0434796110   0434101055  
  5470.000000   0433399525   0432690262   0431971710   0431239032   0430492248  
  5460.000000   0429728473   0428944152   0428127847   0427266494   0426347823  
  5450.000000   0425371394   0424351134   0423316469   0422301548   0421334099  
  5440.000000   0420424649   0419564401   0418734369   0417914697   0417100666  
  5430.000000   0416299825   0415533677   0414815263   0414148856   0413513862  
  5420.000000   0412886579   0412238245   0411567536   0410889891   0410253054  
  5410.000000   0409701676   0409277664   0408986477   0408817024   0408731783  
  5400.000000   0408704493   0408709627   0408751050   0408832118   0408972577  
  5390.000000   0409171178   0409430588   0409731790   0410073283   0410447565  
  5380.000000   0410876082   0411370773   0411960688   0412646835   0413437802  
  5370.000000   0414312207   0415269047   0416289075   0417386860   0418556746  
  5360.000000   0419824321   0421182047   0422652587   0424224273   0425927559  
  5350.000000   0427763311   0429779562   0431984710   0434424030   0437085595  
  5340.000000   0439991442   0443107918   0446453216   0449999118   0453778788  
  5330.000000   0457773055   0462018796   0466489173   0471212596   0476157160  
  5320.000000   0481361849   0486811601   0492569760   0498634121   0505073653  
  5310.000000   0511872515   0519078162   0526650331   0534620175   0542945129  
  5300.000000   0551663965   0560751321   0570264575   0580194948   0590605642  
  5290.000000   0601482677   0612864243   0624701513   0636982887   0649623002  
  5280.000000   0662588833   0675810907   0689294466   0703028248   0717061808  
  5270.000000   0731405482   0746074071   0761015158   0776149364   0791363554  
  5260.000000   0806549797   0821636281   0836583617   0851403531   0866098403  
  5250.000000   0880684377   0895111938   0909339947   0923259449   0936823097  
  5240.000000   0949946834   0962650790   0974912857   0986804096   0998316837  
  5230.000000   1009510312   1020340962   1030827448   1040891539   1050539160  
  5220.000000   1059701698   1068417311   1076658272   1084502626   1091948295  
  5210.000000   1099075380   1105857861   1112330690   1118417963   1124119968  
  5200.000000   1129356414   1134156355   1138490066   1142435243   1145994264  
  5190.000000   1149244009   1152163919   1154791722   1157075914   1159038158  
  5180.000000   1160634840   1161906950   1162835365   1163472259   1163799987  
  5170.000000   1163858624   1163622249   1163125752   1162351078   1161342300  
  5160.000000   1160092993   1158647959   1156997647   1155175889   1153167990  
  5150.000000   1151004396   1148676049   1146215358   1143615070   1140898741  
  5140.000000   1138051512   1135088132   1131997417   1128803489   1125513022  
  5130.000000   1122161684   1118760837   1115335291   1111879840   1108399254  
  5120.000000   1104878712   1101322613   1097728332   1094112537   1090482093  
  5110.000000   1086850561   1083215229   1079575070   1075919275   1072246611  
  5100.000000   1068556847   1064862412   1061175028   1057510156   1053874212  
  5090.000000   1050271385   1046696930   1043148097   1039618590   1036107623  
  5080.000000   1032610837   1029126841   1025648346   1022170900   1018687326  
  5070.000000   1015197088   1011699688   1008199796   1004697676   1001192225  
  5060.000000   0997673882   0994132590   0990555879   0986940155   0983286689  
  5050.000000   0979608711   0975920500   0972239905   0968576565   0964936701  
  5040.000000   0961317813   0957716509   0954127491   0950547924   0946976101  
  5030.000000   0943409778   0939846864   0936282058   0932714050   0929141429  
  5020.000000   0925573846   0922021837   0918507277   0915045159   0911655668  
  5010.000000   0908343104   0905115522   0901964352   0898891832   0895887642  
  5000.000000   0892959378   0890101664   0887328584   0884636634   0882042708  
  4990.000000   0879543540   0877159941   0874891070   0872761696   0870769556  
  4980.000000   0868935278   0867246449   0865713850   0864316294   0863063232  
  4970.000000   0861937766   0860960029   0860123408   0859455879   0858951143  
  4960.000000   0858632025   0858482520   0858516608   0858712218   0859082298  
  4950.000000   0859606652   0860301262   0861147213   0862159575   0863317004  
  4940.000000   0864632538   0866085019   0867689828   0869429909   0871323587  
  4930.000000   0873355793   0875543508   0877870803   0880352353   0882973111  
  4920.000000   0885747530   0888661921   0891728421   0894930381   0898273586  
  4910.000000   0901736697   0905320573   0909003166   0912784030   0916642610  
  4900.000000   0920576517   0924565970   0928607161   0932685607   0936802956  
  4890.000000   0940956895   0945156669   0949406686   0953711060   0958064291  
  4880.000000   0962451597   0966851149   0971233542   0975572716   0979840825  
  4870.000000   0984021481   0988097360   0992064483   0995915103   0999655246  
  4860.000000   1003284843   1006818211   1010259887   1013627005   1016920769  
  4850.000000   1020153283   1023317396   1026420251   1029451841   1032422107  
  4840.000000   1035325743   1038177970   1040976074   1043733316   1046441811  
  4830.000000   1049106649   1051712789   1054258719   1056725931   1059110631  
  4820.000000   1061395022   1063577747   1065647293   1067611110   1069469513  
  4810.000000   1071241248   1072935775   1074574963   1076165265   1077719820  
  4800.000000   1079234055   1080711739   1082143248   1083533194   1084877040  
  4790.000000   1086186666   1087464060   1088724560   1089969972   1091211460  
  4780.000000   1092444062   1093669839   1094873692   1096047405   1097167553  
  4770.000000   1098221827   1099188717   1100064601   1100841161   1101529784  
  4760.000000   1102133400   1102668636   1103134991   1103540766   1103874886  
  4750.000000   1104139088   1104320941   1104427505   1104454173   1104414865  
  4740.000000   1104306777   1104139463   1103902410   1103596581   1103207870  
  4730.000000   1102738213   1102181095   1101547155   1100838604   1100069541  
  4720.000000   1099242048   1098366295   1097441696   1096477372   1095475706  
  4710.000000   1094449703   1093405728   1092356952   1091306699   1090261684  
  4700.000000   1089219411   1088182005   1087146434   1086115565   1085088569  
  4690.000000   1084067397   1083048586   1082028085   1080998185   1079952046  
  4680.000000   1078884993   1077795432   1076686930   1075563338   1074431355  
  4670.000000   1073292983   1072151911   1071007267   1069864012   1068726229  
  4660.000000   1067606991   1066517967   1065476847   1064494535   1063583118  
  4650.000000   1062744516   1061981809   1061289351   1060665793   1060102785  
  4640.000000   1059597708   1059140751   1058727957   1058348653   1057999341  
  4630.000000   1057671701   1057365838   1057077595   1056809861   1056559621  
  4620.000000   1056328138   1056109908   1055902721   1055699151   1055495833  
  4610.000000   1055286524   1055069674   1054842612   1054607116   1054365090  
  4600.000000   1054121794   1053882998   1053655385   1053445200   1053256554  
  4590.000000   1053092242   1052951259   1052831800   1052728219   1052635028  
  4580.000000   1052543140   1052444173   1052326902   1052182499   1052001742  
  4570.000000   1051780581   1051516605   1051213377   1050875246   1050509919  
  4560.000000   1050123030   1049720375   1049304491   1048877055   1048437501  
  4550.000000   1047984309   1047515517   1047028150   1046522233   1045997787  
  4540.000000   1045463322   1044927467   1044410374   1043926194   1043497782  
  4530.000000   1043131323   1042839872   1042614289   1042459567   1042361487  
  4520.000000   1042332752   1042368938   1042499501   1042729746   1043098447  
  4510.000000   1043609455   1044300783   1045169370   1046251296   1047538825  
  4500.000000   1049067498   1050825494   1052846256   1055114272   1057663089  
  4490.000000   1060479648   1063602763   1067024336   1070782927   1074864361  
  4480.000000   1079291881   1084034261   1089095240   1094432633   1100041987  
  4470.000000   1105882290   1111947142   1118195697   1124613271   1131152372  
  4460.000000   1137787993   1144471187   1151177449   1157868736   1164528853  
  4450.000000   1171132787   1177668947   1184121566   1190482372   1196749397  
  4440.000000   1202924802   1209026951   1215068195   1221078758   1227064707  
  4430.000000   1233049002   1239015559   1244971504   1250879813   1256738372  
  4420.000000   1262499685   1268159012   1273662654   1279001056   1284112022  
  4410.000000   1288977641   1293528802   1297743649   1301556501   1304954077  
  4400.000000   1307889666   1310372826   1312388528   1313976613   1315156120  
  4390.000000   1315992500   1316528565   1316839914   1316975615   1317004776  
  4380.000000   1316970633   1316930835   1316925179   1317007193   1317220989  
  4370.000000   1317618682   1318243760   1319133440   1320312670   1321787105  
  4360.000000   1323551530   1325579286   1327839769   1330287749   1332879772  
  4350.000000   1335567599   1338308008   1341064080   1343807588   1346524765  
  4340.000000   1349208542   1351860180   1354470074   1357016345   1359444688  
  4330.000000   1361679704   1363619449   1365170384   1366254050   1366850537  
  4320.000000   1366989401   1366774277   1366336538   1365840156   1365414294  
  4310.000000   1365168682   1365139295   1365334778   1365705922   1366207736  
  4300.000000   1366775697   1367373836   1367964829   1368533748   1369061254  
  4290.000000   1369534278   1369935617   1370251669   1370473672   1370603931  
  4280.000000   1370652564   1370644537   1370602881   1370563239   1370545818  
  4270.000000   1370578357   1370661884   1370796245   1370947415   1371073906  
  4260.000000   1371106127   1370976475   1370614291   1369975946   1369043648  
  4250.000000   1367843284   1366430140   1364890465   1363312371   1361785097  
  4240.000000   1360368143   1359103769   1357995241   1357034132   1356186949  
  4230.000000   1355423020   1354702626   1353993209   1353261350   1352476972  
  4220.000000   1351616794   1350659807   1349603132   1348448725   1347223363  
  4210.000000   1345955743   1344692763   1343472578   1342338094   1341313588  
  4200.000000   1340420120   1339657090   1339023320   1338498084   1338069934  
  4190.000000   1337710443   1337412737   1337153991   1336943794   1336772970  
  4180.000000   1336669418   1336634471   1336706074   1336888574   1337223881  
  4170.000000   1337718819   1338420649   1339340021   1340525873   1341982145  
  4160.000000   1343744173   1345792743   1348140082   1350745140   1353610805  
  4150.000000   1356695374   1360012784   1363534836   1367289985   1371259653  
  4140.000000   1375477683   1379927353   1384642307   1389606146   1394850420  
  4130.000000   1400356034   1406145294   1412189096   1418494902   1425024047  
  4120.000000   1431775873   1438714291   1445844616   1453144206   1460628776  
  4110.000000   1468286104   1476133051   1484154550   1492354150   1500703604  
  4100.000000   1509189963   1517777152   1526447351   1535172578   1543945122  
  4090.000000   1552754618   1561602931   1570489582   1579414752   1588379354  
  4080.000000   1597378458   1606416504   1615487961   1624601899   1633746336  
  4070.000000   1642922412   1652097806   1661257938   1670352960   1679366010  
  4060.000000   1688247844   1696994082   1705561621   1713955359   1722131071  
  4050.000000   1730099779   1737818622   1745311597   1752540179   1759534105  
  4040.000000   1766241677   1772676590   1778761651   1784498106   1789805633  
  4030.000000   1794700550   1799121673   1803099598   1806580563   1809582565  
  4020.000000   1812030280   1813938769   1815268381   1816060371   1816291764  
  4010.000000   1816056312   1815408494   1814409029   1812995480   1811248555  
  4000.000000   1809334392  
##END= 
