##TITLE= Sample 023 By ssteindl date Montag, November 19 2018
##JCAMP-DX= 4.24
##DATA TYPE= INFRARED SPECTRUM
##ORIGIN= Exported PE Spectrum Data File
##OWNER= Sandra Steindl
##DATE= 18/11/19
##TIME= 17:50:30.00
##SPECTROMETER/DATA SYSTEM= PERKIN-ELMER Frontier FT-IR/NIR IR
##INSTRUMENT PARAMETERS=
  APODIZATION=stark
  DETECTOR=INGAAS
##RESOLUTION= 16.000000
##DELTAX= -2.000000
##XUNITS= 1/CM
##YUNITS= A
##XFACTOR= 1.00
##YFACTOR= 0.00000011920928955078
##FIRSTX= 10000.00
##LASTX= 4000.00
##NPOINTS= 3001
##FIRSTY= 0.210397
##MAXY= 0.581889
##MINY= 0.187252
##XYDATA= (X++(Y..Y))
 10000.000000   1764936   1764995   1764529   1763224   1761730  
  9990.000000   1760962   1761083   1761643   1762195   1762584  
  9980.000000   1762686   1762494   1762225   1762241   1762804  
  9970.000000   1763923   1765335   1766472   1766622   1765149  
  9960.000000   1761768   1756688   1750591   1744512   1739466  
  9950.000000   1736250   1735133   1735917   1738014   1740724  
  9940.000000   1743431   1745698   1747237   1747791   1747052  
  9930.000000   1744688   1740502   1734638   1727736   1720849  
  9920.000000   1715234   1711909   1711347   1713255   1716675  
  9910.000000   1720262   1722704   1723068   1721061   1716997  
  9900.000000   1711738   1706327   1701853   1699130   1698655  
  9890.000000   1700486   1704253   1709246   1714537   1719310  
  9880.000000   1723041   1725784   1728030   1730575   1734042  
  9870.000000   1738575   1743641   1748123   1750761   1750536  
  9860.000000   1747157   1741071   1733345   1725182   1717526  
  9850.000000   1710797   1704931   1699662   1694837   1690671  
  9840.000000   1687672   1686472   1687419   1690434   1694935  
  9830.000000   1700112   1705214   1709790   1713761   1717237  
  9820.000000   1720340   1722973   1724870   1725711   1725381  
  9810.000000   1724088   1722350   1720761   1719717   1719165  
  9800.000000   1718632   1717392   1714853   1710824   1705645  
  9790.000000   1700053   1694853   1690666   1687718   1685974  
  9780.000000   1685290   1685700   1687437   1690857   1696141  
  9770.000000   1703034   1710731   1717977   1723456   1726149  
  9760.000000   1725770   1722746   1718167   1713277   1709141  
  9750.000000   1706307   1704761   1704119   1703869   1703700  
  9740.000000   1703559   1703701   1704399   1705856   1707932  
  9730.000000   1710259   1712289   1713538   1713779   1713074  
  9720.000000   1711801   1710418   1709320   1708629   1708163  
  9710.000000   1707507   1706224   1704066   1701140   1697924  
  9700.000000   1695077   1693245   1692740   1693510   1695090  
  9690.000000   1696883   1698351   1699252   1699661   1699850  
  9680.000000   1700088   1700413   1700595   1700167   1698673  
  9670.000000   1695841   1691756   1686831   1681678   1676932  
  9660.000000   1673059   1670323   1668757   1668281   1668717  
  9650.000000   1669837   1671331   1672772   1673707   1673685  
  9640.000000   1672500   1670192   1667178   1664019   1661326  
  9630.000000   1659472   1658545   1658387   1658754   1659550  
  9620.000000   1660876   1663032   1666295   1670719   1675993  
  9610.000000   1681441   1686219   1689516   1690813   1689956  
  9600.000000   1687209   1683113   1678403   1673858   1670201  
  9590.000000   1668031   1667651   1669047   1671717   1674839  
  9580.000000   1677384   1678520   1677861   1675665   1672724  
  9570.000000   1670027   1668357   1667906   1668248   1668501  
  9560.000000   1667779   1665614   1662170   1658234   1654843  
  9550.000000   1652907   1652849   1654498   1657264   1660354  
  9540.000000   1663101   1664999   1665757   1665148   1663038  
  9530.000000   1659430   1654689   1649648   1645572   1643848  
  9520.000000   1645449   1650512   1658065   1666349   1673336  
  9510.000000   1677559   1678567   1677067   1674515   1672429  
  9500.000000   1671745   1672398   1673463   1673552   1671552  
  9490.000000   1667067   1660630   1653426   1646752   1641613  
  9480.000000   1638342   1636834   1636635   1637400   1638922  
  9470.000000   1641182   1644160   1647630   1651131   1653947  
  9460.000000   1655408   1654970   1652490   1648095   1642249  
  9450.000000   1635513   1628555   1622083   1616834   1613575  
  9440.000000   1612907   1615146   1620063   1626895   1634430  
  9430.000000   1641335   1646485   1649231   1649530   1647823  
  9420.000000   1644905   1641598   1638626   1636438   1635248  
  9410.000000   1635043   1635640   1636732   1637907   1638766  
  9400.000000   1638984   1638473   1637336   1635875   1634387  
  9390.000000   1633081   1631985   1631012   1630090   1629278  
  9380.000000   1628811   1629014   1630109   1632012   1634255  
  9370.000000   1636052   1636634   1635520   1632802   1629093  
  9360.000000   1625303   1622280   1620470   1619856   1620055  
  9350.000000   1620683   1621593   1623008   1625310   1628756  
  9340.000000   1633138   1637691   1641278   1642758   1641507  
  9330.000000   1637634   1632031   1625959   1620610   1616710  
  9320.000000   1614388   1613338   1613082   1613312   1613992  
  9310.000000   1615293   1617311   1619881   1622500   1624483  
  9300.000000   1625257   1624611   1622853   1620644   1618773  
  9290.000000   1617784   1617834   1618696   1619961   1621288  
  9280.000000   1622529   1623761   1625112   1626601   1628001  
  9270.000000   1628917   1628952   1627941   1626069   1623807  
  9260.000000   1621730   1620249   1619444   1619075   1618720  
  9250.000000   1618023   1616850   1615377   1613971   1613010  
  9240.000000   1612661   1612822   1613150   1613237   1612773  
  9230.000000   1611679   1610141   1608483   1607057   1606083  
  9220.000000   1605608   1605493   1605462   1605207   1604477  
  9210.000000   1603148   1601278   1599093   1596978   1595361  
  9200.000000   1594605   1594846   1595933   1597445   1598821  
  9190.000000   1599546   1599319   1598229   1596716   1595451  
  9180.000000   1595048   1595889   1597981   1600955   1604169  
  9170.000000   1606862   1608393   1608336   1606593   1603308  
  9160.000000   1598881   1593857   1588895   1584617   1581497  
  9150.000000   1579779   1579441   1580263   1581880   1583976  
  9140.000000   1586341   1588960   1591896   1595174   1598661  
  9130.000000   1601996   1604729   1606400   1606795   1605967  
  9120.000000   1604285   1602261   1600371   1598913   1597931  
  9110.000000   1597338   1597001   1596908   1597123   1597769  
  9100.000000   1598833   1600124   1601222   1601657   1601090  
  9090.000000   1599478   1597147   1594644   1592564   1591257  
  9080.000000   1590726   1590617   1590424   1589715   1588347  
  9070.000000   1586554   1584849   1583828   1583883   1585113  
  9060.000000   1587257   1589847   1592340   1594309   1595568  
  9050.000000   1596135   1596177   1595852   1595260   1594375  
  9040.000000   1593097   1591295   1588921   1586051   1582926  
  9030.000000   1579893   1577332   1575577   1574815   1575053  
  9020.000000   1576080   1577565   1579137   1580500   1581504  
  9010.000000   1582160   1582621   1583072   1583666   1584426  
  9000.000000   1585282   1586073   1586643   1586891   1586810  
  8990.000000   1586487   1586048   1585636   1585360   1585303  
  8980.000000   1585498   1585938   1586542   1587157   1587562  
  8970.000000   1587523   1586867   1585561   1583750   1581747  
  8960.000000   1579952   1578714   1578222   1578434   1579125  
  8950.000000   1579954   1580604   1580864   1580704   1580221  
  8940.000000   1579593   1578984   1578524   1578287   1578323  
  8930.000000   1578677   1579396   1580508   1581988   1583747  
  8920.000000   1585634   1587487   1589167   1590598   1591760  
  8910.000000   1592660   1593288   1593610   1593563   1593125  
  8900.000000   1592336   1591347   1590367   1589627   1589267  
  8890.000000   1589305   1589580   1589828   1589727   1589019  
  8880.000000   1587561   1585367   1582617   1579605   1576708  
  8870.000000   1574269   1572550   1571634   1571421   1571638  
  8860.000000   1571935   1572005   1571722   1571203   1570784  
  8850.000000   1570898   1571902   1573893   1576662   1579711  
  8840.000000   1582488   1584517   1585618   1585871   1585587  
  8830.000000   1585103   1584648   1584274   1583915   1583520  
  8820.000000   1583176   1583144   1583764   1585307   1587776  
  8810.000000   1590874   1594031   1596635   1598236   1598734  
  8800.000000   1598397   1597724   1597236   1597253   1597816  
  8790.000000   1598701   1599578   1600161   1600324   1600115  
  8780.000000   1599686   1599202   1598769   1598440   1598251  
  8770.000000   1598293   1598702   1599622   1601092   1603003  
  8760.000000   1605075   1606966   1608389   1609247   1609670  
  8750.000000   1609940   1610360   1611058   1611941   1612686  
  8740.000000   1612910   1612329   1610911   1608915   1606818  
  8730.000000   1605171   1604414   1604764   1606166   1608366  
  8720.000000   1610996   1613679   1616093   1618004   1619307  
  8710.000000   1620012   1620277   1620347   1620530   1621070  
  8700.000000   1622093   1623525   1625133   1626602   1627672  
  8690.000000   1628262   1628510   1628729   1629267   1630349  
  8680.000000   1631973   1633904   1635779   1637248   1638120  
  8670.000000   1638426   1638389   1638333   1638553   1639242  
  8660.000000   1640454   1642140   1644192   1646477   1648839  
  8650.000000   1651078   1652955   1654235   1654770   1654593  
  8640.000000   1653951   1653273   1653036   1653607   1655107  
  8630.000000   1657346   1659897   1662234   1663938   1664819  
  8620.000000   1664972   1664674   1664266   1664007   1664021  
  8610.000000   1664305   1664804   1665511   1666502   1667934  
  8600.000000   1669942   1672570   1675697   1679059   1682289  
  8590.000000   1685035   1687036   1688185   1688525   1688212  
  8580.000000   1687479   1686578   1685756   1685227   1685131  
  8570.000000   1685518   1686298   1687271   1688142   1688643  
  8560.000000   1688605   1688056   1687220   1686450   1686115  
  8550.000000   1686444   1687451   1688902   1690428   1691638  
  8540.000000   1692289   1692360   1692060   1691751   1691804  
  8530.000000   1692491   1693887   1695876   1698198   1700545  
  8520.000000   1702649   1704329   1705519   1706231   1706538  
  8510.000000   1706534   1706337   1706047   1705773   1705589  
  8500.000000   1705555   1705677   1705923   1706247   1706609  
  8490.000000   1707029   1707572   1708364   1709523   1711127  
  8480.000000   1713156   1715480   1717892   1720140   1722017  
  8470.000000   1723378   1724204   1724559   1724589   1724442  
  8460.000000   1724245   1724096   1724053   1724174   1724492  
  8450.000000   1725072   1725970   1727244   1728889   1730846  
  8440.000000   1732986   1735113   1736993   1738370   1739043  
  8430.000000   1738888   1737917   1736275   1734251   1732238  
  8420.000000   1730657   1729872   1730084   1731310   1733357  
  8410.000000   1735881   1738446   1740651   1742217   1743035  
  8400.000000   1743162   1742768   1742098   1741375   1740778  
  8390.000000   1740403   1740301   1740479   1740927   1741622  
  8380.000000   1742514   1743544   1744605   1745596   1746405  
  8370.000000   1746977   1747318   1747494   1747610   1747758  
  8360.000000   1747994   1748285   1748523   1748549   1748218  
  8350.000000   1747467   1746337   1744996   1743689   1742684  
  8340.000000   1742179   1742253   1742832   1743725   1744683  
  8330.000000   1745465   1745915   1745981   1745726   1745281  
  8320.000000   1744801   1744417   1744220   1744263   1744563  
  8310.000000   1745122   1745915   1746898   1747983   1749059  
  8300.000000   1749992   1750658   1750972   1750896   1750448  
  8290.000000   1749677   1748645   1747411   1746028   1744573  
  8280.000000   1743157   1741951   1741129   1740852   1741174  
  8270.000000   1742035   1743226   1744452   1745403   1745835  
  8260.000000   1745652   1744897   1743737   1742370   1740980  
  8250.000000   1739681   1738523   1737520   1736692   1736087  
  8240.000000   1735770   1735800   1736163   1736777   1737464  
  8230.000000   1738030   1738302   1738208   1737787   1737177  
  8220.000000   1736557   1736080   1735824   1735758   1735771  
  8210.000000   1735699   1735389   1734735   1733698   1732312  
  8200.000000   1730647   1728821   1726946   1725159   1723577  
  8190.000000   1722321   1721475   1721076   1721080   1721362  
  8180.000000   1721717   1721910   1721720   1720998   1719705  
  8170.000000   1717925   1715850   1713724   1711783   1710186  
  8160.000000   1708985   1708117   1707443   1706796   1706038  
  8150.000000   1705090   1703943   1702639   1701233   1699776  
  8140.000000   1698300   1696849   1695488   1694325   1693494  
  8130.000000   1693109   1693210   1693723   1694445   1695085  
  8120.000000   1695340   1694984   1693944   1692324   1690376  
  8110.000000   1688406   1686682   1685347   1684395   1683696  
  8100.000000   1683057   1682302   1681328   1680128   1678774  
  8090.000000   1677375   1676027   1674791   1673682   1672689  
  8080.000000   1671801   1671015   1670346   1669811   1669418  
  8070.000000   1669164   1669022   1668967   1668967   1668993  
  8060.000000   1669007   1668950   1668741   1668270   1667437  
  8050.000000   1666166   1664456   1662378   1660084   1657769  
  8040.000000   1655632   1653839   1652478   1651571   1651061  
  8030.000000   1650855   1650838   1650894   1650920   1650827  
  8020.000000   1650549   1650034   1649283   1648325   1647257  
  8010.000000   1646195   1645278   1644605   1644228   1644121  
  8000.000000   1644198   1644345   1644451   1644459   1644368  
  7990.000000   1644237   1644147   1644162   1644298   1644504  
  7980.000000   1644681   1644706   1644479   1643959   1643180  
  7970.000000   1642242   1641280   1640429   1639778   1639360  
  7960.000000   1639130   1638997   1638838   1638546   1638049  
  7950.000000   1637340   1636466   1635522   1634613   1633822  
  7940.000000   1633182   1632663   1632192   1631668   1631020  
  7930.000000   1630214   1629288   1628318   1627403   1626618  
  7920.000000   1626003   1625546   1625221   1625001   1624895  
  7910.000000   1624941   1625193   1625677   1626366   1627163  
  7900.000000   1627931   1628532   1628885   1628989   1628934  
  7890.000000   1628850   1628861   1629024   1629317   1629647  
  7880.000000   1629898   1629988   1629897   1629686   1629447  
  7870.000000   1629275   1629205   1629223   1629253   1629228  
  7860.000000   1629101   1628891   1628653   1628457   1628334  
  7850.000000   1628261   1628151   1627892   1627386   1626595  
  7840.000000   1625553   1624355   1623118   1621946   1620896  
  7830.000000   1619976   1619157   1618408   1617711   1617082  
  7820.000000   1616547   1616137   1615852   1615666   1615518  
  7810.000000   1615335   1615056   1614637   1614076   1613386  
  7800.000000   1612603   1611759   1610882   1609986   1609086  
  7790.000000   1608202   1607365   1606620   1606014   1605593  
  7780.000000   1605381   1605376   1605538   1605790   1606031  
  7770.000000   1606148   1606048   1605669   1605013   1604130  
  7760.000000   1603127   1602127   1601247   1600569   1600116  
  7750.000000   1599866   1599751   1599705   1599663   1599596  
  7740.000000   1599494   1599362   1599194   1598956   1598591  
  7730.000000   1598022   1597194   1596079   1594719   1593201  
  7720.000000   1591662   1590240   1589050   1588167   1587613  
  7710.000000   1587374   1587411   1587686   1588153   1588772  
  7700.000000   1589489   1590235   1590925   1591473   1591818  
  7690.000000   1591928   1591820   1591536   1591132   1590645  
  7680.000000   1590085   1589434   1588662   1587762   1586760  
  7670.000000   1585725   1584748   1583910   1583251   1582751  
  7660.000000   1582338   1581908   1581372   1580690   1579886  
  7650.000000   1579048   1578295   1577749   1577492   1577560  
  7640.000000   1577933   1578545   1579306   1580100   1580807  
  7630.000000   1581301   1581472   1581237   1580580   1579550  
  7620.000000   1578283   1576967   1575812   1574988   1574589  
  7610.000000   1574606   1574926   1575382   1575801   1576069  
  7600.000000   1576154   1576110   1576048   1576078   1576283  
  7590.000000   1576664   1577166   1577673   1578078   1578301  
  7580.000000   1578331   1578223   1578076   1578007   1578110  
  7570.000000   1578440   1578998   1579736   1580578   1581426  
  7560.000000   1582193   1582794   1583177   1583310   1583205  
  7550.000000   1582906   1582507   1582120   1581869   1581852  
  7540.000000   1582130   1582705   1583534   1584542   1585651  
  7530.000000   1586797   1587950   1589107   1590278   1591466  
  7520.000000   1592665   1593842   1594969   1596014   1596979  
  7510.000000   1597875   1598739   1599601   1600485   1601396  
  7500.000000   1602332   1603297   1604310   1605410   1606646  
  7490.000000   1608063   1609677   1611460   1613344   1615223  
  7480.000000   1616990   1618549   1619857   1620913   1621779  
  7470.000000   1622545   1623335   1624265   1625431   1626886  
  7460.000000   1628637   1630635   1632796   1635008   1637172  
  7450.000000   1639218   1641127   1642920   1644657   1646396  
  7440.000000   1648187   1650040   1651944   1653860   1655764  
  7430.000000   1657647   1659531   1661454   1663450   1665534  
  7420.000000   1667685   1669855   1671977   1673994   1675874  
  7410.000000   1677616   1679246   1680801   1682313   1683802  
  7400.000000   1685279   1686749   1688225   1689729   1691289  
  7390.000000   1692927   1694643   1696415   1698202   1699963  
  7380.000000   1701675   1703343   1705010   1706729   1708549  
  7370.000000   1710482   1712501   1714538   1716513   1718362  
  7360.000000   1720067   1721667   1723249   1724923   1726779  
  7350.000000   1728858   1731136   1733520   1735878   1738082  
  7340.000000   1740042   1741737   1743212   1744570   1745929  
  7330.000000   1747404   1749065   1750934   1752966   1755079  
  7320.000000   1757162   1759117   1760865   1762381   1763680  
  7310.000000   1764824   1765887   1766944   1768034   1769161  
  7300.000000   1770289   1771359   1772313   1773116   1773765  
  7290.000000   1774295   1774759   1775221   1775729   1776319  
  7280.000000   1776999   1777767   1778609   1779513   1780462  
  7270.000000   1781444   1782447   1783465   1784496   1785536  
  7260.000000   1786586   1787629   1788645   1789587   1790420  
  7250.000000   1791104   1791641   1792059   1792431   1792842  
  7240.000000   1793384   1794109   1795041   1796162   1797451  
  7230.000000   1798887   1800482   1802255   1804234   1806412  
  7220.000000   1808757   1811186   1813627   1816010   1818335  
  7210.000000   1820629   1822978   1825444   1828073   1830838  
  7200.000000   1833686   1836535   1839349   1842131   1844954  
  7190.000000   1847901   1851050   1854411   1857936   1861515  
  7180.000000   1865047   1868458   1871763   1875026   1878366  
  7170.000000   1881865   1885575   1889454   1893437   1897423  
  7160.000000   1901366   1905254   1909149   1913116   1917240  
  7150.000000   1921558   1926096   1930835   1935772   1940882  
  7140.000000   1946171   1951612   1957190   1962843   1968525  
  7130.000000   1974181   1979811   1985435   1991136   1996981  
  7120.000000   2003045   2009328   2015797   2022352   2028898  
  7110.000000   2035337   2041633   2047787   2053862   2059930  
  7100.000000   2066090   2072408   2078940   2085696   2092666  
  7090.000000   2099802   2107051   2114350   2121663   2128970  
  7080.000000   2136293   2143665   2151135   2158717   2166404  
  7070.000000   2174127   2181803   2189330   2196641   2203706  
  7060.000000   2210558   2217273   2223955   2230713   2237635  
  7050.000000   2244774   2252132   2259665   2267285   2274881  
  7040.000000   2282334   2289558   2296506   2303202   2309715  
  7030.000000   2316157   2322627   2329198   2335876   2342619  
  7020.000000   2349337   2355947   2362375   2368605   2374639  
  7010.000000   2380513   2386246   2391858   2397330   2402654  
  7000.000000   2407809   2412805   2417652   2422386   2427028  
  6990.000000   2431619   2436171   2440719   2445268   2449838  
  6980.000000   2454402   2458932   2463352   2467601   2471611  
  6970.000000   2475375   2478911   2482294   2485593   2488873  
  6960.000000   2492142   2495381   2498525   2501524   2504335  
  6950.000000   2506968   2509443   2511810   2514097   2516340  
  6940.000000   2518554   2520775   2523027   2525352   2527753  
  6930.000000   2530206   2532624   2534895   2536900   2538575  
  6920.000000   2539917   2541017   2542006   2543032   2544185  
  6910.000000   2545493   2546901   2548319   2549646   2550814  
  6900.000000   2551794   2552604   2553277   2553866   2554413  
  6890.000000   2554975   2555605   2556362   2557284   2558381  
  6880.000000   2559610   2560889   2562114   2563200   2564103  
  6870.000000   2564845   2565490   2566120   2566791   2567518  
  6860.000000   2568266   2568983   2569624   2570183   2570691  
  6850.000000   2571212   2571799   2572484   2573249   2574053  
  6840.000000   2574835   2575551   2576177   2576716   2577184  
  6830.000000   2577599   2577974   2578317   2578632   2578931  
  6820.000000   2579223   2579514   2579793   2580041   2580226  
  6810.000000   2580336   2580369   2580359   2580345   2580372  
  6800.000000   2580452   2580574   2580692   2580762   2580743  
  6790.000000   2580626   2580422   2580154   2579834   2579459  
  6780.000000   2579004   2578444   2577766   2576992   2576164  
  6770.000000   2575347   2574591   2573932   2573369   2572891  
  6760.000000   2572470   2572093   2571745   2571420   2571094  
  6750.000000   2570738   2570303   2569751   2569054   2568218  
  6740.000000   2567270   2566260   2565235   2564231   2563260  
  6730.000000   2562325   2561410   2560499   2559568   2558588  
  6720.000000   2557524   2556346   2555036   2553609   2552113  
  6710.000000   2550630   2549244   2548025   2546994   2546127  
  6700.000000   2545354   2544595   2543777   2542861   2541837  
  6690.000000   2540718   2539519   2538245   2536889   2535446  
  6680.000000   2533919   2532334   2530729   2529150   2527625  
  6670.000000   2526169   2524766   2523398   2522041   2520687  
  6660.000000   2519328   2517960   2516565   2515115   2513576  
  6650.000000   2511926   2510168   2508333   2506464   2504606  
  6640.000000   2502773   2500958   2499126   2497247   2495310  
  6630.000000   2493338   2491377   2489485   2487695   2486007  
  6620.000000   2484385   2482771   2481110   2479370   2477547  
  6610.000000   2475661   2473738   2471800   2469855   2467906  
  6600.000000   2465956   2464020   2462119   2460275   2458494  
  6590.000000   2456767   2455065   2453359   2451627   2449871  
  6580.000000   2448110   2446368   2444664   2442994   2441342  
  6570.000000   2439678   2437986   2436257   2434503   2432740  
  6560.000000   2430983   2429233   2427488   2425748   2424030  
  6550.000000   2422369   2420817   2419416   2418185   2417107  
  6540.000000   2416132   2415188   2414216   2413175   2412058  
  6530.000000   2410881   2409673   2408453   2407238   2406034  
  6520.000000   2404848   2403692   2402582   2401524   2400511  
  6510.000000   2399513   2398488   2397397   2396226   2394993  
  6500.000000   2393750   2392557   2391465   2390490   2389610  
  6490.000000   2388772   2387914   2386991   2385985   2384910  
  6480.000000   2383800   2382693   2381617   2380590   2379618  
  6470.000000   2378703   2377847   2377050   2376307   2375601  
  6460.000000   2374907   2374196   2373444   2372642   2371794  
  6450.000000   2370914   2370016   2369104   2368174   2367216  
  6440.000000   2366226   2365211   2364191   2363187   2362217  
  6430.000000   2361285   2360375   2359466   2358538   2357588  
  6420.000000   2356634   2355709   2354849   2354079   2353406  
  6410.000000   2352814   2352271   2351739   2351185   2350579  
  6400.000000   2349905   2349155   2348335   2347459   2346557  
  6390.000000   2345669   2344832   2344078   2343415   2342834  
  6380.000000   2342301   2341783   2341248   2340688   2340108  
  6370.000000   2339527   2338961   2338408   2337848   2337246  
  6360.000000   2336564   2335780   2334895   2333936   2332946  
  6350.000000   2331975   2331059   2330226   2329474   2328797  
  6340.000000   2328168   2327561   2326942   2326284   2325561  
  6330.000000   2324759   2323871   2322904   2321869   2320784  
  6320.000000   2319661   2318512   2317338   2316144   2314924  
  6310.000000   2313685   2312426   2311156   2309871   2308577  
  6300.000000   2307269   2305955   2304633   2303307   2301964  
  6290.000000   2300591   2299151   2297613   2295944   2294134  
  6280.000000   2292194   2290165   2288095   2286037   2284016  
  6270.000000   2282040   2280083   2278113   2276092   2274004  
  6260.000000   2271847   2269645   2267425   2265220   2263044  
  6250.000000   2260902   2258780   2256659   2254509   2252311  
  6240.000000   2250048   2247718   2245330   2242909   2240479  
  6230.000000   2238070   2235693   2233346   2231005   2228636  
  6220.000000   2226200   2223674   2221053   2218360   2215633  
  6210.000000   2212923   2210275   2207719   2205271   2202928  
  6200.000000   2200673   2198484   2196336   2194205   2192074  
  6190.000000   2189932   2187783   2185639   2183519   2181439  
  6180.000000   2179413   2177434   2175489   2173553   2171608  
  6170.000000   2169647   2167678   2165719   2163790   2161900  
  6160.000000   2160048   2158214   2156378   2154521   2152639  
  6150.000000   2150742   2148853   2146988   2145161   2143368  
  6140.000000   2141600   2139846   2138101   2136374   2134683  
  6130.000000   2133050   2131491   2130011   2128601   2127237  
  6120.000000   2125895   2124546   2123177   2121777   2120353  
  6110.000000   2118917   2117496   2116114   2114797   2113559  
  6100.000000   2112404   2111320   2110292   2109296   2108323  
  6090.000000   2107369   2106447   2105568   2104751   2103996  
  6080.000000   2103303   2102658   2102056   2101487   2100965  
  6070.000000   2100491   2100081   2099732   2099446   2099208  
  6060.000000   2099022   2098883   2098811   2098818   2098927  
  6050.000000   2099139   2099457   2099866   2100363   2100941  
  6040.000000   2101611   2102380   2103261   2104247   2105329  
  6030.000000   2106478   2107675   2108896   2110141   2111408  
  6020.000000   2112709   2114043   2115410   2116797   2118198  
  6010.000000   2119602   2121013   2122428   2123846   2125250  
  6000.000000   2126623   2127939   2129189   2130382   2131555  
  5990.000000   2132754   2134034   2135430   2136956   2138591  
  5980.000000   2140307   2142064   2143840   2145622   2147418  
  5970.000000   2149234   2151082   2152961   2154874   2156816  
  5960.000000   2158798   2160823   2162904   2165034   2167207  
  5950.000000   2169392   2171570   2173721   2175850   2177971  
  5940.000000   2180117   2182311   2184573   2186905   2189300  
  5930.000000   2191748   2194245   2196792   2199396   2202054  
  5920.000000   2204753   2207462   2210143   2212757   2215276  
  5910.000000   2217689   2220003   2222235   2224405   2226532  
  5900.000000   2228633   2230729   2232841   2234998   2237222  
  5890.000000   2239529   2241913   2244355   2246820   2249273  
  5880.000000   2251682   2254030   2256306   2258506   2260630  
  5870.000000   2262672   2264632   2266514   2268341   2270139  
  5860.000000   2271943   2273779   2275661   2277585   2279546  
  5850.000000   2281538   2283569   2285663   2287854   2290171  
  5840.000000   2292633   2295231   2297940   2300722   2303537  
  5830.000000   2306353   2309145   2311897   2314591   2317209  
  5820.000000   2319730   2322140   2324430   2326609   2328684  
  5810.000000   2330672   2332570   2334380   2336078   2337663  
  5800.000000   2339119   2340473   2341727   2342919   2344038  
  5790.000000   2345095   2346048   2346875   2347520   2347954  
  5780.000000   2348126   2348006   2347549   2346735   2345548  
  5770.000000   2344019   2342203   2340197   2338108   2336048  
  5760.000000   2334095   2332307   2330698   2329268   2328005  
  5750.000000   2326901   2325949   2325145   2324479   2323926  
  5740.000000   2323465   2323067   2322722   2322418   2322164  
  5730.000000   2321953   2321788   2321644   2321516   2321388  
  5720.000000   2321275   2321199   2321200   2321301   2321519  
  5710.000000   2321838   2322233   2322665   2323114   2323571  
  5700.000000   2324047   2324552   2325097   2325672   2326257  
  5690.000000   2326832   2327384   2327926   2328480   2329079  
  5680.000000   2329740   2330463   2331209   2331927   2332546  
  5670.000000   2333008   2333263   2333285   2333065   2332614  
  5660.000000   2331956   2331136   2330203   2329223   2328249  
  5650.000000   2327328   2326474   2325688   2324947   2324233  
  5640.000000   2323529   2322839   2322170   2321530   2320916  
  5630.000000   2320307   2319676   2319000   2318272   2317507  
  5620.000000   2316740   2316008   2315341   2314745   2314210  
  5610.000000   2313714   2313235   2312764   2312300   2311850  
  5600.000000   2311410   2310966   2310490   2309952   2309330  
  5590.000000   2308623   2307845   2307022   2306177   2305322  
  5580.000000   2304452   2303562   2302637   2301682   2300703  
  5570.000000   2299714   2298719   2297714   2296677   2295586  
  5560.000000   2294422   2293186   2291896   2290584   2289284  
  5550.000000   2288024   2286818   2285670   2284574   2283524  
  5540.000000   2282515   2281539   2280585   2279640   2278687  
  5530.000000   2277715   2276724   2275723   2274732   2273767  
  5520.000000   2272837   2271941   2271064   2270193   2269316  
  5510.000000   2268431   2267543   2266656   2265766   2264860  
  5500.000000   2263915   2262913   2261844   2260713   2259535  
  5490.000000   2258331   2257110   2255872   2254605   2253300  
  5480.000000   2251948   2250561   2249151   2247735   2246316  
  5470.000000   2244888   2243428   2241917   2240341   2238706  
  5460.000000   2237020   2235300   2233548   2231759   2229920  
  5450.000000   2228021   2226067   2224078   2222086   2220124  
  5440.000000   2218210   2216343   2214512   2212704   2210920  
  5430.000000   2209169   2207473   2205838   2204266   2202729  
  5420.000000   2201206   2199674   2198154   2196678   2195314  
  5410.000000   2194105   2193085   2192229   2191508   2190865  
  5400.000000   2190285   2189762   2189340   2189054   2188951  
  5390.000000   2189027   2189274   2189643   2190118   2190673  
  5380.000000   2191337   2192117   2193054   2194134   2195363  
  5370.000000   2196695   2198135   2199655   2201298   2203067  
  5360.000000   2205023   2207163   2209537   2212130   2214999  
  5350.000000   2218145   2221653   2225527   2229841   2234558  
  5340.000000   2239711   2245233   2251159   2257442   2264152  
  5330.000000   2271261   2278844   2286851   2295337   2304240  
  5320.000000   2313633   2323485   2333916   2344916   2356614  
  5310.000000   2368977   2382093   2395893   2410447   2425694  
  5300.000000   2441730   2458529   2476215   2494774   2514312  
  5290.000000   2534769   2556178   2578400   2601385   2624960  
  5280.000000   2649081   2673654   2698745   2724379   2750684  
  5270.000000   2777684   2805384   2833637   2862239   2890933  
  5260.000000   2919501   2947823   2975868   3003709   3031394  
  5250.000000   3058971   3086333   3113360   3139792   3165489  
  5240.000000   3190266   3214162   3237166   3259457   3281067  
  5230.000000   3302144   3322618   3342512   3361645   3379990  
  5220.000000   3397381   3413868   3429392   3444107   3458020  
  5210.000000   3471296   3483893   3495880   3507111   3517589  
  5200.000000   3527159   3535886   3543715   3550800   3557142  
  5190.000000   3562884   3567976   3572478   3576284   3579430  
  5180.000000   3581833   3583573   3584617   3585072   3584912  
  5170.000000   3584228   3582989   3581288   3579118   3576587  
  5160.000000   3573694   3570521   3567032   3563260   3559145  
  5150.000000   3554719   3549951   3544906   3539584   3534043  
  5140.000000   3528267   3522280   3516047   3509590   3502900  
  5130.000000   3496026   3488989   3481846   3474605   3467301  
  5120.000000   3459926   3452503   3445032   3437544   3430049  
  5110.000000   3422570   3415100   3407639   3400170   3392696  
  5100.000000   3385219   3377765   3370357   3363018   3355756  
  5090.000000   3348569   3341436   3334342   3327266   3320204  
  5080.000000   3313148   3306096   3299040   3291970   3284874  
  5070.000000   3277747   3270590   3263418   3256245   3249091  
  5060.000000   3241962   3234859   3227768   3220679   3213580  
  5050.000000   3206469   3199348   3192223   3185098   3177971  
  5040.000000   3170839   3163695   3156543   3149390   3142260  
  5030.000000   3135175   3128163   3121240   3114423   3107706  
  5020.000000   3101097   3094586   3088184   3081890   3075727  
  5010.000000   3069697   3063827   3058112   3052578   3047217  
  5000.000000   3042057   3037093   3032360   3027850   3023596  
  4990.000000   3019582   3015833   3012321   3009069   3006048  
  4980.000000   3003288   3000767   2998530   2996564   2994927  
  4970.000000   2993610   2992665   2992074   2991874   2992024  
  4960.000000   2992548   2993396   2994594   2996101   2997956  
  4950.000000   3000127   3002655   3005504   3008704   3012210  
  4940.000000   3016049   3020180   3024637   3029389   3034469  
  4930.000000   3039844   3045538   3051509   3057774   3064295  
  4920.000000   3071093   3078135   3085443   3092983   3100764  
  4910.000000   3108746   3116932   3125288   3133818   3142497  
  4900.000000   3151328   3160284   3169356   3178516   3187746  
  4890.000000   3197028   3206351   3215702   3225065   3234419  
  4880.000000   3243723   3252938   3262008   3270897   3279559  
  4870.000000   3287983   3296146   3304064   3311728   3319167  
  4860.000000   3326375   3333379   3340169   3346770   3353167  
  4850.000000   3359386   3365414   3371282   3376983   3382553  
  4840.000000   3387983   3393298   3398478   3403535   3408439  
  4830.000000   3413199   3417792   3422234   3426507   3430626  
  4820.000000   3434568   3438341   3441925   3445332   3448556  
  4810.000000   3451627   3454550   3457357   3460047   3462636  
  4800.000000   3465110   3467484   3469750   3471933   3474040  
  4790.000000   3476102   3478119   3480103   3482031   3483895  
  4780.000000   3485665   3487339   3488899   3490360   3491720  
  4770.000000   3492997   3494181   3495280   3496271   3497152  
  4760.000000   3497894   3498499   3498944   3499236   3499357  
  4750.000000   3499322   3499115   3498752   3498219   3497531  
  4740.000000   3496674   3495663   3494487   3493164   3491690  
  4730.000000   3490084   3488345   3486494   3484528   3482468  
  4720.000000   3480314   3478088   3475799   3473471   3471118  
  4710.000000   3468763   3466415   3464088   3461780   3459496  
  4700.000000   3457233   3454990   3452765   3450564   3448390  
  4690.000000   3446249   3444147   3442089   3440077   3438105  
  4680.000000   3436163   3434228   3432281   3430289   3428237  
  4670.000000   3426103   3423894   3421620   3419318   3417019  
  4660.000000   3414778   3412631   3410627   3408790   3407152  
  4650.000000   3405720   3404506   3403502   3402702   3402086  
  4640.000000   3401637   3401329   3401146   3401061   3401061  
  4630.000000   3401119   3401219   3401327   3401424   3401477  
  4620.000000   3401472   3401393   3401243   3401026   3400754  
  4610.000000   3400439   3400088   3399707   3399299   3398870  
  4600.000000   3398426   3397983   3397551   3397144   3396766  
  4590.000000   3396419   3396093   3395777   3395454   3395113  
  4580.000000   3394739   3394325   3393863   3393354   3392794  
  4570.000000   3392190   3391544   3390861   3390142   3389385  
  4560.000000   3388583   3387730   3386819   3385851   3384831  
  4550.000000   3383775   3382699   3381617   3380544   3379482  
  4540.000000   3378436   3377400   3376383   3375381   3374414  
  4530.000000   3373482   3372610   3371797   3371073   3370437  
  4520.000000   3369931   3369560   3369384   3369406   3369689  
  4510.000000   3370227   3371082   3372241   3373775   3375679  
  4500.000000   3378036   3380843   3384186   3388046   3392499  
  4490.000000   3397511   3403144   3409359   3416217   3423673  
  4480.000000   3431785   3440506   3449880   3459856   3470464  
  4470.000000   3481638   3493384   3505617   3518313   3531371  
  4460.000000   3544753   3558364   3572173   3586105   3600132  
  4450.000000   3614191   3628247   3642246   3656153   3669939  
  4440.000000   3683587   3697105   3710491   3723770   3736928  
  4430.000000   3749985   3762896   3775672   3788242   3800607  
  4420.000000   3812677   3824448   3835808   3846747   3857142  
  4410.000000   3866979   3876134   3884593   3892241   3899074  
  4400.000000   3905000   3910047   3914175   3917464   3919940  
  4390.000000   3921734   3922919   3923644   3923993   3924093  
  4380.000000   3924015   3923860   3923692   3923605   3923679  
  4370.000000   3924012   3924692   3925797   3927395   3929512  
  4360.000000   3932170   3935346   3939019   3943139   3947659  
  4350.000000   3952526   3957686   3963102   3968738   3974590  
  4340.000000   3980646   3986905   3993309   3999751   4006016  
  4330.000000   4011816   4016787   4020579   4022908   4023658  
  4320.000000   4022901   4020929   4018162   4015118   4012237  
  4310.000000   4009888   4008225   4007296   4006974   4007118  
  4300.000000   4007537   4008111   4008730   4009350   4009931  
  4290.000000   4010448   4010880   4011208   4011432   4011564  
  4280.000000   4011634   4011683   4011739   4011845   4012009  
  4270.000000   4012267   4012613   4013059   4013552   4014020  
  4260.000000   4014313   4014256   4013641   4012307   4010155  
  4250.000000   4007203   4003571   3999483   3995195   3990975  
  4240.000000   3987021   3983473   3980363   3977670   3975308  
  4230.000000   3973187   3971206   3969282   3967351   3965364  
  4220.000000   3963305   3961165   3958979   3956779   3954638  
  4210.000000   3952604   3950746   3949083   3947640   3946394  
  4200.000000   3945332   3944412   3943623   3942931   3942342  
  4190.000000   3941834   3941426   3941096   3940869   3940722  
  4180.000000   3940691   3940760   3940985   3941369   3941999  
  4170.000000   3942905   3944201   3945931   3948204   3951036  
  4160.000000   3954491   3958523   3963144   3968266   3973889  
  4150.000000   3979933   3986425   3993314   4000652   4008404  
  4140.000000   4016632   4025299   4034467   4044100   4054253  
  4130.000000   4064879   4076015   4087599   4099648   4112098  
  4120.000000   4124972   4138225   4151898   4165967   4180474  
  4110.000000   4195392   4210741   4226469   4242565   4258955  
  4100.000000   4275607   4292447   4309443   4326542   4343733  
  4090.000000   4360996   4378337   4395761   4413276   4430895  
  4080.000000   4448623   4466476   4484448   4502547   4520733  
  4070.000000   4538984   4557213   4575371   4593350   4611119  
  4060.000000   4628593   4645777   4662605   4679095   4695166  
  4050.000000   4710838   4726023   4740764   4754982   4768732  
  4040.000000   4781910   4794540   4806468   4817693   4828062  
  4030.000000   4837614   4846241   4854015   4860849   4866787  
  4020.000000   4871691   4875601   4878460   4880352   4881219  
  4010.000000   4881235   4880501   4879070   4876712   4873541  
  4000.000000   4869962  
##END= 
