##TITLE= Sample 026 By ssteindl date Montag, November 19 2018
##JCAMP-DX= 4.24
##DATA TYPE= INFRARED SPECTRUM
##ORIGIN= Exported PE Spectrum Data File
##OWNER= Sandra Steindl
##DATE= 18/11/19
##TIME= 17:54:32.00
##SPECTROMETER/DATA SYSTEM= PERKIN-ELMER Frontier FT-IR/NIR IR
##INSTRUMENT PARAMETERS=
  APODIZATION=stark
  DETECTOR=INGAAS
##RESOLUTION= 16.000000
##DELTAX= -2.000000
##XUNITS= 1/CM
##YUNITS= A
##XFACTOR= 1.00
##YFACTOR= 0.00000011920928955078
##FIRSTX= 10000.00
##LASTX= 4000.00
##NPOINTS= 3001
##FIRSTY= 0.220094
##MAXY= 0.656156
##MINY= 0.191650
##XYDATA= (X++(Y..Y))
 10000.000000   1846280   1839582   1834412   1832611   1834035  
  9990.000000   1836868   1839432   1840554   1839405   1835317  
  9980.000000   1828372   1819063   1808243   1796899   1786384  
  9970.000000   1778122   1773329   1772695   1776159   1782929  
  9960.000000   1791692   1801100   1810057   1818022   1824861  
  9950.000000   1830676   1835518   1839205   1841484   1842080  
  9940.000000   1841090   1838850   1835971   1832905   1829791  
  9930.000000   1826317   1821923   1816200   1809200   1801723  
  9920.000000   1795021   1790523   1789126   1791013   1795478  
  9910.000000   1801398   1807589   1813278   1818154   1822251  
  9900.000000   1825634   1828124   1829286   1828556   1825640  
  9890.000000   1820668   1814352   1807653   1801526   1796471  
  9880.000000   1792450   1788984   1785456   1781512   1777206  
  9870.000000   1773048   1769717   1767821   1767646   1769149  
  9860.000000   1772028   1775901   1780402   1785188   1789923  
  9850.000000   1794188   1797569   1799715   1800523   1800162  
  9840.000000   1799058   1797673   1796321   1795011   1793480  
  9830.000000   1791383   1788506   1784980   1781226   1777842  
  9820.000000   1775279   1773662   1772726   1771961   1770896  
  9810.000000   1769297   1767279   1765196   1763443   1762267  
  9800.000000   1761706   1761661   1762074   1763043   1764832  
  9790.000000   1767713   1771715   1776468   1781163   1784827  
  9780.000000   1786628   1786265   1784094   1780998   1778082  
  9770.000000   1776174   1775579   1775905   1776296   1775721  
  9760.000000   1773385   1769012   1762945   1756081   1749591  
  9750.000000   1744656   1742145   1742477   1745539   1750748  
  9740.000000   1757173   1763708   1769296   1773162   1774975  
  9730.000000   1774923   1773620   1771886   1770541   1770124  
  9720.000000   1770850   1772511   1774614   1776491   1777460  
  9710.000000   1777052   1775069   1771751   1767658   1763636  
  9700.000000   1760528   1758990   1759242   1760981   1763463  
  9690.000000   1765710   1766845   1766363   1764255   1760980  
  9680.000000   1757225   1753678   1750820   1748865   1747841  
  9670.000000   1747677   1748295   1749586   1751312   1753046  
  9660.000000   1754181   1754094   1752423   1749259   1745268  
  9650.000000   1741452   1738845   1738019   1738858   1740568  
  9640.000000   1742037   1742365   1741260   1739234   1737315  
  9630.000000   1736653   1737930   1741120   1745463   1749821  
  9620.000000   1753124   1754718   1754533   1752901   1750323  
  9610.000000   1747167   1743597   1739625   1735301   1730855  
  9600.000000   1726711   1723352   1721113   1720030   1719827  
  9590.000000   1720076   1720402   1720663   1720948   1721451  
  9580.000000   1722291   1723354   1724371   1725029   1725242  
  9570.000000   1725218   1725444   1726424   1728400   1731158  
  9560.000000   1734044   1736232   1737088   1736483   1734861  
  9550.000000   1733045   1731845   1731690   1732431   1733436  
  9540.000000   1733896   1733214   1731263   1728442   1725460  
  9530.000000   1723050   1721630   1721226   1721482   1721930  
  9520.000000   1722187   1722118   1721830   1721521   1721325  
  9510.000000   1721204   1720946   1720285   1719021   1717106  
  9500.000000   1714696   1712053   1709533   1707429   1705950  
  9490.000000   1705144   1704881   1704910   1704901   1704599  
  9480.000000   1703873   1702837   1701797   1701226   1701570  
  9470.000000   1703099   1705726   1708953   1711992   1713957  
  9460.000000   1714194   1712435   1708910   1704204   1699062  
  9450.000000   1694161   1689937   1686586   1684075   1682322  
  9440.000000   1681241   1680835   1681112   1682021   1683363  
  9430.000000   1684770   1685797   1686002   1685113   1683037  
  9420.000000   1679949   1676203   1672338   1668954   1666646  
  9410.000000   1665871   1666834   1669416   1673149   1677318  
  9400.000000   1681122   1683889   1685248   1685192   1684055  
  9390.000000   1682328   1680519   1678962   1677813   1677054  
  9380.000000   1676593   1676345   1676233   1676239   1676312  
  9370.000000   1676429   1676536   1676605   1676646   1676691  
  9360.000000   1676787   1676883   1676816   1676264   1674891  
  9350.000000   1672501   1669213   1665532   1662209   1660059  
  9340.000000   1659650   1661154   1664255   1668261   1672304  
  9330.000000   1675576   1677546   1677988   1676987   1674787  
  9320.000000   1671759   1668302   1664844   1661830   1659654  
  9310.000000   1658642   1658902   1660353   1662666   1665419  
  9300.000000   1668161   1670542   1672319   1673307   1673358  
  9290.000000   1672269   1669905   1666202   1661387   1655946  
  9280.000000   1650655   1646376   1643799   1643273   1644619  
  9270.000000   1647322   1650629   1653919   1656819   1659326  
  9260.000000   1661685   1664135   1666733   1669177   1670948  
  9250.000000   1671382   1670008   1666686   1661790   1656101  
  9240.000000   1650595   1646217   1643573   1642917   1644034  
  9230.000000   1646452   1649504   1652574   1655177   1657018  
  9220.000000   1657952   1657915   1656903   1654939   1652142  
  9210.000000   1648706   1644976   1641375   1638381   1636389  
  9200.000000   1635585   1635893   1636953   1638278   1639357  
  9190.000000   1639832   1639560   1638633   1637323   1635933  
  9180.000000   1634698   1633702   1632930   1632301   1631767  
  9170.000000   1631333   1631071   1631068   1631363   1631895  
  9160.000000   1632495   1632944   1633048   1632713   1631974  
  9150.000000   1630972   1629919   1629034   1628486   1628361  
  9140.000000   1628632   1629201   1629903   1630557   1630972  
  9130.000000   1631006   1630595   1629773   1628632   1627309  
  9120.000000   1625931   1624586   1623310   1622085   1620892  
  9110.000000   1619713   1618569   1617466   1616402   1615328  
  9100.000000   1614184   1612901   1611473   1609998   1608691  
  9090.000000   1607834   1607672   1608351   1609873   1612089  
  9080.000000   1614752   1617558   1620254   1622603   1624426  
  9070.000000   1625543   1625839   1625267   1623924   1622070  
  9060.000000   1620111   1618543   1617791   1618111   1619453  
  9050.000000   1621539   1623913   1626126   1627805   1628766  
  9040.000000   1628996   1628578   1627604   1626126   1624192  
  9030.000000   1621869   1619306   1616755   1614572   1613095  
  9020.000000   1612545   1612947   1614116   1615701   1617259  
  9010.000000   1618405   1618906   1618729   1618034   1617126  
  9000.000000   1616397   1616201   1616753   1618073   1619965  
  8990.000000   1622072   1623952   1625225   1625694   1625403  
  8980.000000   1624595   1623614   1622764   1622177   1621769  
  8970.000000   1621278   1620422   1619011   1617062   1614810  
  8960.000000   1612626   1610895   1609852   1609567   1609928  
  8950.000000   1610751   1611838   1613055   1614330   1615609  
  8940.000000   1616804   1617760   1618299   1618261   1617595  
  8930.000000   1616368   1614803   1613166   1611732   1610678  
  8920.000000   1610084   1609918   1610066   1610390   1610751  
  8910.000000   1611066   1611286   1611446   1611631   1611994  
  8900.000000   1612688   1613820   1615384   1617221   1619053  
  8890.000000   1620531   1621363   1621367   1620558   1619103  
  8880.000000   1617280   1615352   1613516   1611867   1610463  
  8870.000000   1609354   1608623   1608386   1608735   1609690  
  8860.000000   1611141   1612892   1614718   1616463   1618080  
  8850.000000   1619637   1621260   1623028   1624924   1626797  
  8840.000000   1628447   1629676   1630395   1630628   1630496  
  8830.000000   1630145   1629679   1629146   1628556   1627959  
  8820.000000   1627442   1627171   1627276   1627833   1628760  
  8810.000000   1629874   1630940   1631776   1632343   1632714  
  8800.000000   1633034   1633374   1633682   1633750   1633342  
  8790.000000   1632314   1630780   1629120   1627914   1627717  
  8780.000000   1628852   1631259   1634501   1637908   1640798  
  8770.000000   1642712   1643556   1643598   1643355   1643372  
  8760.000000   1644069   1645592   1647846   1650516   1653207  
  8750.000000   1655525   1657184   1658053   1658175   1657784  
  8740.000000   1657227   1656933   1657269   1658468   1660527  
  8730.000000   1663217   1666143   1668863   1671019   1672421  
  8720.000000   1673070   1673107   1672735   1672132   1671430  
  8710.000000   1670716   1670105   1669741   1669818   1670491  
  8700.000000   1671818   1673693   1675854   1677961   1679726  
  8690.000000   1681010   1681890   1682604   1683465   1684722  
  8680.000000   1686480   1688682   1691157   1693723   1696262  
  8670.000000   1698757   1701261   1703824   1706421   1708903  
  8660.000000   1711034   1712559   1713307   1713238   1712483  
  8650.000000   1711303   1710033   1709016   1708513   1708701  
  8640.000000   1709623   1711229   1713344   1715739   1718137  
  8630.000000   1720300   1722074   1723408   1724373   1725095  
  8620.000000   1725723   1726340   1726961   1727515   1727929  
  8610.000000   1728179   1728347   1728620   1729230   1730375  
  8600.000000   1732112   1734335   1736784   1739129   1741084  
  8590.000000   1742485   1743346   1743828   1744174   1744615  
  8580.000000   1745288   1746236   1747418   1748769   1750241  
  8570.000000   1751818   1753514   1755306   1757107   1758730  
  8560.000000   1759943   1760508   1760297   1759349   1757903  
  8550.000000   1756365   1755199   1754849   1755607   1757587  
  8540.000000   1760659   1764533   1768781   1772960   1776641  
  8530.000000   1779499   1781337   1782106   1781923   1781019  
  8520.000000   1779741   1778426   1777362   1776681   1776368  
  8510.000000   1776265   1776151   1775852   1775309   1774637  
  8500.000000   1774067   1773895   1774359   1775572   1777488  
  8490.000000   1779910   1782588   1785266   1787783   1790064  
  8480.000000   1792128   1794024   1795820   1797561   1799291  
  8470.000000   1801037   1802833   1804684   1806561   1808380  
  8460.000000   1810010   1811326   1812246   1812800   1813123  
  8450.000000   1813437   1813951   1814803   1815975   1817330  
  8440.000000   1818636   1819685   1820365   1820708   1820864  
  8430.000000   1821031   1821362   1821894   1822534   1823094  
  8420.000000   1823385   1823293   1822843   1822194   1821592  
  8410.000000   1821312   1821553   1822416   1823846   1825699  
  8400.000000   1827760   1829818   1831699   1833284   1834533  
  8390.000000   1835441   1836026   1836273   1836145   1835575  
  8380.000000   1834539   1833077   1831346   1829614   1828221  
  8370.000000   1827500   1827656   1828727   1830532   1832760  
  8360.000000   1835026   1837014   1838543   1839601   1840306  
  8350.000000   1840810   1841226   1841561   1841739   1841647  
  8340.000000   1841211   1840456   1839507   1838568   1837826  
  8330.000000   1837413   1837341   1837529   1837826   1838072  
  8320.000000   1838146   1837972   1837523   1836789   1835783  
  8310.000000   1834545   1833166   1831797   1830640   1829921  
  8300.000000   1829825   1830438   1831700   1833399   1835217  
  8290.000000   1836809   1837884   1838273   1837959   1837069  
  8280.000000   1835833   1834518   1833356   1832497   1831985  
  8270.000000   1831776   1831747   1831768   1831714   1831533  
  8260.000000   1831220   1830825   1830390   1829936   1829431  
  8250.000000   1828798   1827947   1826814   1825407   1823818  
  8240.000000   1822207   1820761   1819630   1818895   1818533  
  8230.000000   1818446   1818483   1818497   1818371   1818050  
  8220.000000   1817531   1816844   1816038   1815154   1814227  
  8210.000000   1813279   1812318   1811352   1810380   1809406  
  8200.000000   1808427   1807454   1806493   1805559   1804655  
  8190.000000   1803773   1802875   1801899   1800774   1799443  
  8180.000000   1797889   1796156   1794339   1792570   1790980  
  8170.000000   1789668   1788668   1787957   1787455   1787061  
  8160.000000   1786684   1786249   1785714   1785046   1784224  
  8150.000000   1783211   1781972   1780479   1778743   1776832  
  8140.000000   1774879   1773071   1771595   1770605   1770149  
  8130.000000   1770167   1770479   1770838   1770990   1770735  
  8120.000000   1769984   1768753   1767164   1765372   1763529  
  8110.000000   1761735   1760034   1758436   1756947   1755608  
  8100.000000   1754485   1753673   1753225   1753136   1753289  
  8090.000000   1753489   1753492   1753079   1752126   1750623  
  8080.000000   1748692   1746516   1744310   1742226   1740355  
  8070.000000   1738693   1737191   1735780   1734415   1733099  
  8060.000000   1731876   1730834   1730062   1729646   1729629  
  8050.000000   1730005   1730709   1731612   1732548   1733327  
  8040.000000   1733788   1733818   1733395   1732568   1731462  
  8030.000000   1730208   1728927   1727674   1726454   1725233  
  8020.000000   1723979   1722716   1721511   1720498   1719796  
  8010.000000   1719498   1719592   1719982   1720487   1720908  
  8000.000000   1721078   1720897   1720359   1719506   1718417  
  7990.000000   1717144   1715726   1714161   1712471   1710701  
  7980.000000   1708961   1707404   1706183   1705418   1705137  
  7970.000000   1705285   1705723   1706303   1706895   1707436  
  7960.000000   1707924   1708390   1708858   1709297   1709623  
  7950.000000   1709708   1709444   1708764   1707704   1706367  
  7940.000000   1704912   1703481   1702173   1701016   1699984  
  7930.000000   1699044   1698180   1697438   1696892   1696639  
  7920.000000   1696736   1697184   1697908   1698781   1699656  
  7910.000000   1700398   1700918   1701157   1701103   1700761  
  7900.000000   1700163   1699354   1698411   1697424   1696497  
  7890.000000   1695709   1695098   1694650   1694303   1693990  
  7880.000000   1693657   1693311   1693005   1692831   1692863  
  7870.000000   1693129   1693583   1694116   1694598   1694920  
  7860.000000   1695035   1694961   1694762   1694511   1694245  
  7850.000000   1693953   1693581   1693066   1692376   1691529  
  7840.000000   1690598   1689679   1688853   1688159   1687571  
  7830.000000   1687030   1686461   1685834   1685166   1684541  
  7820.000000   1684066   1683847   1683928   1684287   1684818  
  7810.000000   1685362   1685745   1685813   1685479   1684720  
  7800.000000   1683593   1682199   1680667   1679125   1677683  
  7790.000000   1676422   1675391   1674616   1674088   1673783  
  7780.000000   1673643   1673604   1673587   1673533   1673410  
  7770.000000   1673228   1673033   1672884   1672829   1672865  
  7760.000000   1672934   1672925   1672713   1672198   1671355  
  7750.000000   1670244   1668999   1667784   1666737   1665927  
  7740.000000   1665333   1664871   1664431   1663929   1663343  
  7730.000000   1662717   1662130   1661666   1661365   1661213  
  7720.000000   1661151   1661107   1661030   1660910   1660770  
  7710.000000   1660647   1660558   1660482   1660358   1660112  
  7700.000000   1659687   1659069   1658299   1657452   1656609  
  7690.000000   1655819   1655083   1654358   1653582   1652717  
  7680.000000   1651771   1650810   1649937   1649251   1648811  
  7670.000000   1648609   1648576   1648602   1648587   1648466  
  7660.000000   1648239   1647962   1647721   1647595   1647624  
  7650.000000   1647793   1648047   1648302   1648489   1648564  
  7640.000000   1648526   1648400   1648223   1648027   1647823  
  7630.000000   1647616   1647408   1647221   1647094   1647078  
  7620.000000   1647216   1647515   1647931   1648371   1648715  
  7610.000000   1648840   1648678   1648220   1647543   1646770  
  7600.000000   1646050   1645511   1645238   1645263   1645575  
  7590.000000   1646135   1646898   1647820   1648859   1649962  
  7580.000000   1651068   1652097   1652973   1653634   1654060  
  7570.000000   1654270   1654338   1654349   1654398   1654547  
  7560.000000   1654821   1655210   1655682   1656200   1656741  
  7550.000000   1657294   1657869   1658477   1659126   1659809  
  7540.000000   1660515   1661225   1661936   1662654   1663412  
  7530.000000   1664248   1665211   1666328   1667610   1669030  
  7520.000000   1670539   1672058   1673505   1674800   1675901  
  7510.000000   1676801   1677552   1678240   1678980   1679877  
  7500.000000   1681013   1682405   1684019   1685766   1687545  
  7490.000000   1689265   1690880   1692394   1693862   1695359  
  7480.000000   1696962   1698710   1700610   1702628   1704721  
  7470.000000   1706845   1708978   1711109   1713241   1715367  
  7460.000000   1717469   1719513   1721474   1723340   1725143  
  7450.000000   1726930   1728779   1730739   1732834   1735027  
  7440.000000   1737251   1739418   1741472   1743401   1745265  
  7430.000000   1747169   1749244   1751604   1754302   1757323  
  7420.000000   1760581   1763950   1767289   1770479   1773451  
  7410.000000   1776183   1778701   1781055   1783300   1785473  
  7400.000000   1787587   1789630   1791576   1793400   1795098  
  7390.000000   1796696   1798248   1799833   1801526   1803388  
  7380.000000   1805443   1807682   1810056   1812508   1814983  
  7370.000000   1817451   1819905   1822356   1824827   1827326  
  7360.000000   1829853   1832376   1834861   1837263   1839550  
  7350.000000   1841704   1843732   1845673   1847587   1849554  
  7340.000000   1851650   1853938   1856441   1859145   1861982  
  7330.000000   1864860   1867671   1870330   1872781   1875014  
  7320.000000   1877049   1878918   1880644   1882233   1883677  
  7310.000000   1884973   1886139   1887230   1888319   1889492  
  7300.000000   1890799   1892253   1893806   1895388   1896913  
  7290.000000   1898330   1899625   1900829   1901992   1903163  
  7280.000000   1904359   1905569   1906753   1907871   1908897  
  7270.000000   1909825   1910679   1911487   1912280   1913074  
  7260.000000   1913873   1914669   1915463   1916259   1917076  
  7250.000000   1917936   1918874   1919913   1921090   1922425  
  7240.000000   1923946   1925653   1927540   1929552   1931633  
  7230.000000   1933695   1935691   1937585   1939418   1941254  
  7220.000000   1943207   1945365   1947808   1950542   1953549  
  7210.000000   1956749   1960071   1963437   1966814   1970186  
  7200.000000   1973587   1977051   1980639   1984380   1988313  
  7190.000000   1992425   1996701   2001075   2005493   2009880  
  7180.000000   2014201   2018439   2022634   2026838   2031128  
  7170.000000   2035547   2040123   2044823   2049612   2054421  
  7160.000000   2059221   2063988   2068750   2073529   2078375  
  7150.000000   2083311   2088378   2093587   2098969   2104532  
  7140.000000   2110296   2116242   2122358   2128597   2134939  
  7130.000000   2141360   2147889   2154546   2161389   2168417  
  7120.000000   2175620   2182911   2190209   2197412   2204488  
  7110.000000   2211444   2218375   2225383   2232589   2240052  
  7100.000000   2247793   2255760   2263892   2272109   2280370  
  7090.000000   2288648   2296952   2305288   2313665   2322077  
  7080.000000   2330523   2338998   2347513   2356076   2364700  
  7070.000000   2373377   2382083   2390773   2399396   2407905  
  7060.000000   2416269   2424471   2432518   2440423   2448217  
  7050.000000   2455938   2463631   2471347   2479120   2486975  
  7040.000000   2494899   2502861   2510805   2518690   2526482  
  7030.000000   2534194   2541853   2549507   2557186   2564895  
  7020.000000   2572595   2580224   2587697   2594955   2601952  
  7010.000000   2608697   2615211   2621562   2627806   2634016  
  7000.000000   2640233   2646490   2652770   2659040   2665216  
  6990.000000   2671222   2676964   2682403   2687524   2692389  
  6980.000000   2697075   2701700   2706344   2711070   2715871  
  6970.000000   2720716   2725522   2730213   2734690   2738894  
  6960.000000   2742763   2746288   2749474   2752388   2755114  
  6950.000000   2757783   2760503   2763378   2766442   2769688  
  6940.000000   2773029   2776365   2779567   2782551   2785250  
  6930.000000   2787669   2789844   2791857   2793790   2795725  
  6920.000000   2797710   2799755   2801818   2803828   2805688  
  6910.000000   2807329   2808712   2809871   2810881   2811862  
  6900.000000   2812921   2814141   2815540   2817092   2818729  
  6890.000000   2820379   2821984   2823513   2824945   2826274  
  6880.000000   2827484   2828565   2829517   2830372   2831199  
  6870.000000   2832096   2833153   2834431   2835921   2837552  
  6860.000000   2839203   2840744   2842069   2843130   2843937  
  6850.000000   2844549   2845044   2845499   2845975   2846519  
  6840.000000   2847161   2847928   2848827   2849853   2850967  
  6830.000000   2852114   2853215   2854204   2855026   2855663  
  6820.000000   2856121   2856426   2856611   2856713   2856766  
  6810.000000   2856820   2856923   2857132   2857480   2857984  
  6800.000000   2858600   2859262   2859872   2860350   2860637  
  6790.000000   2860726   2860643   2860434   2860140   2859786  
  6780.000000   2859374   2858900   2858361   2857770   2857149  
  6770.000000   2856528   2855921   2855336   2854763   2854194  
  6760.000000   2853626   2853075   2852558   2852094   2851679  
  6750.000000   2851292   2850897   2850460   2849961   2849411  
  6740.000000   2848836   2848275   2847756   2847290   2846857  
  6730.000000   2846423   2845942   2845373   2844678   2843838  
  6720.000000   2842839   2841693   2840427   2839095   2837759  
  6710.000000   2836493   2835342   2834328   2833426   2832584  
  6700.000000   2831729   2830804   2829765   2828610   2827346  
  6690.000000   2826003   2824605   2823178   2821747   2820345  
  6680.000000   2819005   2817755   2816590   2815470   2814311  
  6670.000000   2813013   2811490   2809714   2807721   2805626  
  6660.000000   2803566   2801675   2800024   2798614   2797374  
  6650.000000   2796204   2795001   2793705   2792289   2790768  
  6640.000000   2789163   2787494   2785758   2783948   2782054  
  6630.000000   2780076   2778026   2775922   2773777   2771597  
  6620.000000   2769378   2767128   2764859   2762609   2760419  
  6610.000000   2758330   2756356   2754490   2752693   2750924  
  6600.000000   2749142   2747324   2745463   2743556   2741602  
  6590.000000   2739589   2737504   2735338   2733106   2730838  
  6580.000000   2728586   2726400   2724318   2722357   2720513  
  6570.000000   2718772   2717120   2715545   2714040   2712594  
  6560.000000   2711182   2709766   2708306   2706767   2705146  
  6550.000000   2703466   2701779   2700143   2698610   2697200  
  6540.000000   2695903   2694680   2693481   2692253   2690958  
  6530.000000   2689578   2688118   2686602   2685074   2683586  
  6520.000000   2682190   2680925   2679800   2678793   2677851  
  6510.000000   2676909   2675904   2674800   2673594   2672315  
  6500.000000   2671006   2669704   2668430   2667184   2665951  
  6490.000000   2664718   2663484   2662258   2661055   2659881  
  6480.000000   2658725   2657563   2656371   2655140   2653884  
  6470.000000   2652641   2651457   2650367   2649381   2648476  
  6460.000000   2647614   2646755   2645878   2644981   2644077  
  6450.000000   2643181   2642291   2641386   2640437   2639415  
  6440.000000   2638315   2637154   2635971   2634805   2633687  
  6430.000000   2632622   2631603   2630615   2629649   2628709  
  6420.000000   2627809   2626961   2626168   2625423   2624711  
  6410.000000   2624026   2623376   2622780   2622261   2621820  
  6400.000000   2621436   2621052   2620605   2620034   2619318  
  6390.000000   2618472   2617548   2616612   2615723   2614915  
  6380.000000   2614194   2613546   2612951   2612396   2611869  
  6370.000000   2611363   2610857   2610323   2609727   2609044  
  6360.000000   2608273   2607436   2606574   2605728   2604926  
  6350.000000   2604166   2603426   2602683   2601919   2601149  
  6340.000000   2600405   2599732   2599154   2598673   2598249  
  6330.000000   2597824   2597331   2596723   2595973   2595091  
  6320.000000   2594098   2593030   2591912   2590766   2589598  
  6310.000000   2588418   2587221   2586011   2584775   2583509  
  6300.000000   2582194   2580826   2579398   2577925   2576414  
  6290.000000   2574885   2573337   2571769   2570156   2568481  
  6280.000000   2566714   2564846   2562864   2560774   2558578  
  6270.000000   2556294   2553935   2551529   2549097   2546668  
  6260.000000   2544253   2541861   2539479   2537096   2534697  
  6250.000000   2532288   2529878   2527494   2525146   2522833  
  6240.000000   2520525   2518180   2515753   2513216   2510571  
  6230.000000   2507849   2505099   2502368   2499686   2497058  
  6220.000000   2494468   2491893   2489315   2486729   2484145  
  6210.000000   2481582   2479053   2476570   2474137   2471756  
  6200.000000   2469428   2467154   2464928   2462733   2460540  
  6190.000000   2458314   2456027   2453671   2451264   2448847  
  6180.000000   2446474   2444184   2441997   2439903   2437870  
  6170.000000   2435859   2433839   2431791   2429710   2427596  
  6160.000000   2425448   2423260   2421031   2418767   2416494  
  6150.000000   2414248   2412074   2410000   2408036   2406161  
  6140.000000   2404340   2402537   2400733   2398931   2397157  
  6130.000000   2395439   2393801   2392234   2390716   2389202  
  6120.000000   2387655   2386049   2384385   2382680   2380971  
  6110.000000   2379292   2377680   2376159   2374752   2373469  
  6100.000000   2372312   2371267   2370314   2369414   2368532  
  6090.000000   2367635   2366711   2365759   2364804   2363862  
  6080.000000   2362959   2362097   2361281   2360493   2359734  
  6070.000000   2358996   2358295   2357638   2357053   2356549  
  6060.000000   2356154   2355876   2355738   2355747   2355918  
  6050.000000   2356242   2356714   2357305   2358001   2358773  
  6040.000000   2359621   2360539   2361540   2362619   2363779  
  6030.000000   2364998   2366264   2367556   2368873   2370215  
  6020.000000   2371601   2373038   2374537   2376081   2377656  
  6010.000000   2379228   2380781   2382296   2383775   2385220  
  6000.000000   2386648   2388069   2389503   2390960   2392465  
  5990.000000   2394035   2395694   2397448   2399305   2401249  
  5980.000000   2403268   2405339   2407457   2409618   2411839  
  5970.000000   2414135   2416531   2419031   2421645   2424359  
  5960.000000   2427165   2430035   2432955   2435895   2438839  
  5950.000000   2441760   2444651   2447503   2450330   2453142  
  5940.000000   2455964   2458811   2461699   2464632   2467610  
  5930.000000   2470630   2473693   2476797   2479943   2483127  
  5920.000000   2486336   2489548   2492736   2495868   2498920  
  5910.000000   2501871   2504713   2507447   2510085   2512648  
  5900.000000   2515168   2517682   2520228   2522842   2525543  
  5890.000000   2528337   2531210   2534143   2537106   2540082  
  5880.000000   2543054   2546013   2548948   2551836   2554650  
  5870.000000   2557355   2559927   2562352   2564646   2566839  
  5860.000000   2568983   2571124   2573306   2575558   2577901  
  5850.000000   2580350   2582914   2585600   2588402   2591304  
  5840.000000   2594276   2597281   2600284   2603266   2606225  
  5830.000000   2609176   2612133   2615108   2618088   2621049  
  5820.000000   2623951   2626766   2629471   2632070   2634565  
  5810.000000   2636973   2639277   2641471   2643515   2645400  
  5800.000000   2647101   2648645   2650036   2651316   2652478  
  5790.000000   2653530   2654430   2655155   2655652   2655900  
  5780.000000   2655857   2655512   2654831   2653815   2652460  
  5770.000000   2650808   2648920   2646895   2644833   2642836  
  5760.000000   2640965   2639259   2637714   2636321   2635061  
  5750.000000   2633930   2632932   2632074   2631359   2630770  
  5740.000000   2630290   2629886   2629544   2629243   2628990  
  5730.000000   2628778   2628618   2628498   2628425   2628391  
  5720.000000   2628415   2628507   2628691   2628968   2629335  
  5710.000000   2629759   2630210   2630655   2631083   2631501  
  5700.000000   2631934   2632411   2632952   2633564   2634236  
  5690.000000   2634953   2635696   2636456   2637217   2637967  
  5680.000000   2638674   2639306   2639814   2640172   2640353  
  5670.000000   2640363   2640208   2639905   2639457   2638867  
  5660.000000   2638126   2637247   2636252   2635193   2634125  
  5650.000000   2633103   2632149   2631265   2630420   2629582  
  5640.000000   2628718   2627826   2626916   2626017   2625148  
  5630.000000   2624323   2623535   2622773   2622026   2621289  
  5620.000000   2620567   2619868   2619194   2618541   2617896  
  5610.000000   2617248   2616591   2615929   2615273   2614631  
  5600.000000   2614000   2613367   2612707   2612001   2611236  
  5590.000000   2610423   2609577   2608719   2607856   2606985  
  5580.000000   2606087   2605146   2604146   2603093   2601996  
  5570.000000   2600868   2599710   2598514   2597263   2595943  
  5560.000000   2594554   2593116   2591662   2590229   2588842  
  5550.000000   2587511   2586226   2584972   2583738   2582522  
  5540.000000   2581333   2580184   2579080   2578016   2576981  
  5530.000000   2575961   2574952   2573961   2573001   2572085  
  5520.000000   2571213   2570374   2569543   2568695   2567814  
  5510.000000   2566892   2565931   2564933   2563886   2562777  
  5500.000000   2561583   2560295   2558923   2557503   2556079  
  5490.000000   2554701   2553383   2552125   2550886   2549628  
  5480.000000   2548306   2546903   2545411   2543840   2542191  
  5470.000000   2540467   2538661   2536774   2534813   2532808  
  5460.000000   2530785   2528774   2526776   2524777   2522744  
  5450.000000   2520647   2518469   2516224   2513945   2511674  
  5440.000000   2509446   2507277   2505172   2503125   2501140  
  5430.000000   2499225   2497397   2495654   2493987   2492354  
  5420.000000   2490722   2489058   2487380   2485725   2484178  
  5410.000000   2482803   2481655   2480724   2479986   2479375  
  5400.000000   2478859   2478409   2478048   2477794   2477689  
  5390.000000   2477735   2477944   2478287   2478773   2479391  
  5380.000000   2480178   2481136   2482296   2483626   2485123  
  5370.000000   2486731   2488454   2490270   2492234   2494355  
  5360.000000   2496713   2499308   2502204   2505383   2508909  
  5350.000000   2512767   2517031   2521682   2526779   2532272  
  5340.000000   2538204   2544518   2551284   2558477   2566195  
  5330.000000   2574408   2583191   2592471   2602293   2612577  
  5320.000000   2623403   2634741   2646729   2659361   2672775  
  5310.000000   2686924   2701901   2717620   2734164   2751473  
  5300.000000   2769668   2788733   2808818   2829915   2852144  
  5290.000000   2875444   2899848   2925199   2951432   2978337  
  5280.000000   3005848   3033840   3062371   3091468   3121285  
  5270.000000   3151872   3183265   3215328   3247851   3280553  
  5260.000000   3313178   3345573   3377679   3409559   3441249  
  5250.000000   3472795   3504071   3534942   3565123   3594467  
  5240.000000   3622780   3650123   3676492   3702095   3726957  
  5230.000000   3751229   3774803   3797684   3819654   3840684  
  5220.000000   3860602   3879489   3897303   3914235   3930302  
  5210.000000   3945685   3960325   3974288   3987403   3999672  
  5200.000000   4010931   4021263   4030618   4039174   4046933  
  5190.000000   4054044   4060440   4066179   4071139   4075364  
  5180.000000   4078772   4081470   4083434   4084789   4085499  
  5170.000000   4085651   4085184   4084175   4082591   4080533  
  5160.000000   4077993   4075067   4071718   4067998   4063852  
  5150.000000   4059325   4054393   4049133   4043546   4037703  
  5140.000000   4031583   4025219   4018576   4011688   4004553  
  5130.000000   3997240   3989774   3982220   3974583   3966888  
  5120.000000   3959108   3951256   3943323   3935344   3927335  
  5110.000000   3919333   3911342   3903369   3895394   3887415  
  5100.000000   3879420   3871427   3863448   3855504   3847598  
  5090.000000   3839727   3831871   3824016   3816146   3808263  
  5080.000000   3800369   3792479   3784593   3776711   3768822  
  5070.000000   3760917   3752984   3745025   3737041   3729044  
  5060.000000   3721040   3713039   3705042   3697052   3689068  
  5050.000000   3681092   3673121   3665151   3657174   3649185  
  5040.000000   3641181   3633171   3625170   3617200   3609285  
  5030.000000   3601439   3593670   3585969   3578329   3570736  
  5020.000000   3563199   3555723   3548341   3541068   3533938  
  5010.000000   3526951   3520127   3513449   3506933   3500566  
  5000.000000   3494379   3488368   3482573   3476985   3471641  
  4990.000000   3466527   3461678   3457080   3452777   3448756  
  4980.000000   3445059   3441661   3438598   3435838   3433422  
  4970.000000   3431326   3429602   3428230   3427259   3426651  
  4960.000000   3426436   3426562   3427062   3427896   3429120  
  4950.000000   3430718   3432749   3435187   3438067   3441329  
  4940.000000   3444986   3448970   3453301   3457933   3462903  
  4930.000000   3468174   3473780   3479678   3485892   3492377  
  4920.000000   3499163   3506220   3513584   3521230   3529184  
  4910.000000   3537408   3545910   3554649   3563626   3572807  
  4900.000000   3582199   3591773   3601528   3611435   3621481  
  4890.000000   3631636   3641877   3652176   3662503   3672826  
  4880.000000   3683103   3693304   3703379   3713303   3723029  
  4870.000000   3732533   3741767   3750710   3759319   3767591  
  4860.000000   3775510   3783113   3790414   3797480   3804329  
  4850.000000   3811018   3817541   3823926   3830145   3836213  
  4840.000000   3842104   3847838   3853397   3858810   3864060  
  4830.000000   3869173   3874132   3878957   3883628   3888159  
  4820.000000   3892529   3896745   3900786   3904665   3908371  
  4810.000000   3911928   3915332   3918610   3921756   3924786  
  4800.000000   3927688   3930479   3933155   3935743   3938251  
  4790.000000   3940711   3943127   3945516   3947862   3950168  
  4780.000000   3952409   3954590   3956694   3958731   3960687  
  4770.000000   3962568   3964348   3966026   3967568   3968972  
  4760.000000   3970209   3971283   3972170   3972875   3973379  
  4750.000000   3973691   3973798   3973719   3973448   3973009  
  4740.000000   3972392   3971613   3970655   3969531   3968229  
  4730.000000   3966772   3965162   3963433   3961595   3959677  
  4720.000000   3957682   3955625   3953504   3951332   3949111  
  4710.000000   3946857   3944579   3942293   3940006   3937731  
  4700.000000   3935474   3933251   3931071   3928946   3926880  
  4690.000000   3924872   3922911   3920979   3919057   3917129  
  4680.000000   3915184   3913215   3911223   3909201   3907151  
  4670.000000   3905061   3902935   3900771   3898594   3896423  
  4660.000000   3894300   3892254   3890322   3888520   3886867  
  4650.000000   3885363   3884019   3882834   3881822   3880986  
  4640.000000   3880333   3879857   3879551   3879394   3879368  
  4630.000000   3879440   3879585   3879763   3879942   3880078  
  4620.000000   3880139   3880093   3879926   3879631   3879218  
  4610.000000   3878699   3878089   3877406   3876657   3875858  
  4600.000000   3875020   3874163   3873307   3872477   3871686  
  4590.000000   3870946   3870248   3869582   3868919   3868240  
  4580.000000   3867518   3866739   3865893   3864982   3864009  
  4570.000000   3862988   3861929   3860841   3859727   3858584  
  4560.000000   3857399   3856163   3854862   3853495   3852065  
  4550.000000   3850588   3849082   3847563   3846044   3844527  
  4540.000000   3843016   3841510   3840025   3838573   3837191  
  4530.000000   3835896   3834729   3833690   3832809   3832069  
  4520.000000   3831501   3831092   3830890   3830889   3831153  
  4510.000000   3831677   3832535   3833721   3835328   3837360  
  4500.000000   3839921   3843013   3846733   3851054   3856051  
  4490.000000   3861673   3867985   3874942   3882617   3890975  
  4480.000000   3900090   3909916   3920502   3931778   3943760  
  4470.000000   3956359   3969568   3983287   3997493   4012083  
  4460.000000   4027027   4042228   4057655   4073223   4088897  
  4450.000000   4104599   4120283   4135879   4151346   4166647  
  4440.000000   4181760   4196696   4211454   4226075   4240555  
  4430.000000   4254936   4269188   4283343   4297338   4311191  
  4420.000000   4324806   4338177   4351171   4363753   4375757  
  4410.000000   4387130   4397700   4407419   4416147   4423879  
  4400.000000   4430535   4436176   4440801   4444533   4447427  
  4390.000000   4449639   4451248   4452401   4453174   4453693  
  4380.000000   4454029   4454295   4454572   4454976   4455606  
  4370.000000   4456576   4457983   4459908   4462412   4465516  
  4360.000000   4469227   4473509   4478322   4483595   4489259  
  4350.000000   4495235   4501444   4507821   4514302   4520851  
  4340.000000   4527426   4533996   4540489   4546799   4552742  
  4330.000000   4558089   4562560   4565908   4567943   4568630  
  4320.000000   4568073   4566565   4564473   4562239   4560216  
  4310.000000   4558697   4557781   4557491   4557702   4558300  
  4300.000000   4559126   4560094   4561123   4562183   4563235  
  4290.000000   4564248   4565185   4566010   4566708   4567287  
  4280.000000   4567774   4568223   4568669   4569162   4569702  
  4270.000000   4570303   4570920   4571522   4572015   4572309  
  4260.000000   4572256   4571723   4570564   4568696   4566085  
  4250.000000   4562803   4558984   4554840   4550581   4546420  
  4240.000000   4542491   4538888   4535607   4532621   4529846  
  4230.000000   4527213   4524639   4522066   4519437   4516708  
  4220.000000   4513857   4510866   4507763   4504581   4501402  
  4210.000000   4498294   4495353   4492629   4490173   4487983  
  4200.000000   4486061   4484367   4482889   4481588   4480465  
  4190.000000   4479488   4478677   4478004   4477500   4477140  
  4180.000000   4476970   4476970   4477201   4477652   4478402  
  4170.000000   4479461   4480933   4482847   4485318   4488367  
  4160.000000   4492081   4496431   4501451   4507061   4513264  
  4150.000000   4519964   4527174   4534814   4542923   4551443  
  4140.000000   4560435   4569861   4579797   4590219   4601204  
  4130.000000   4612723   4624831   4637471   4650670   4664359  
  4120.000000   4678555   4693202   4708331   4723905   4739959  
  4110.000000   4756453   4773402   4790749   4808483   4826529  
  4100.000000   4844862   4863412   4882157   4901049   4920084  
  4090.000000   4939247   4958547   4977985   4997565   5017291  
  4080.000000   5037150   5057143   5077236   5097419   5117625  
  4070.000000   5137821   5157902   5177821   5197469   5216828  
  4060.000000   5235820   5254468   5272703   5290554   5307925  
  4050.000000   5324836   5341178   5356995   5372193   5386837  
  4040.000000   5400819   5414177   5426759   5438582   5449493  
  4030.000000   5459545   5468623   5476802   5483974   5490174  
  4020.000000   5495238   5499195   5501971   5503664   5504235  
  4010.000000   5503897   5502774   5500969   5498295   5494879  
  4000.000000   5491087  
##END= 
