##TITLE= Sample 034 By ssteindl date Montag, November 19 2018
##JCAMP-DX= 4.24
##DATA TYPE= INFRARED SPECTRUM
##ORIGIN= Exported PE Spectrum Data File
##OWNER= Sandra Steindl
##DATE= 18/11/19
##TIME= 18:03:42.00
##SPECTROMETER/DATA SYSTEM= PERKIN-ELMER Frontier FT-IR/NIR IR
##INSTRUMENT PARAMETERS=
  APODIZATION=stark
  DETECTOR=INGAAS
##RESOLUTION= 16.000000
##DELTAX= -2.000000
##XUNITS= 1/CM
##YUNITS= A
##XFACTOR= 1.00
##YFACTOR= 0.00000011920928955078
##FIRSTX= 10000.00
##LASTX= 4000.00
##NPOINTS= 3001
##FIRSTY= 0.195188
##MAXY= 0.620544
##MINY= 0.170972
##XYDATA= (X++(Y..Y))
 10000.000000   1637355   1634962   1633452   1633635   1634859  
  9990.000000   1635483   1634346   1631273   1626890   1622302  
  9980.000000   1618873   1617596   1618610   1621224   1624351  
  9970.000000   1627029   1628711   1629477   1629801   1630299  
  9960.000000   1631357   1633043   1635094   1637096   1638663  
  9950.000000   1639481   1639349   1638051   1635367   1631125  
  9940.000000   1625299   1618201   1610453   1602965   1596700  
  9930.000000   1592437   1590570   1591003   1593144   1596061  
  9920.000000   1598626   1599808   1598913   1595795   1591023  
  9910.000000   1585718   1581360   1579224   1580010   1583429  
  9900.000000   1588345   1593043   1595953   1596168   1593823  
  9890.000000   1590014   1586293   1584095   1584139   1586313  
  9880.000000   1589844   1593800   1597523   1600844   1603932  
  9870.000000   1606953   1609730   1611640   1611855   1609745  
  9860.000000   1605294   1599214   1592705   1586993   1582809  
  9850.000000   1580215   1578718   1577730   1576981   1576704  
  9840.000000   1577422   1579485   1582611   1585742   1587389  
  9830.000000   1586276   1582080   1575731   1569233   1564905  
  9820.000000   1564444   1568241   1575207   1583285   1590303  
  9810.000000   1594791   1596434   1595889   1594285   1592528  
  9800.000000   1590901   1589087   1586517   1582932   1578669  
  9790.000000   1574669   1572089   1571810   1574033   1578219  
  9780.000000   1583254   1587881   1591009   1591933   1590385  
  9770.000000   1586436   1580551   1573507   1566465   1560785  
  9760.000000   1557737   1558120   1561828   1567863   1574487  
  9750.000000   1579947   1583024   1583587   1582517   1581283  
  9740.000000   1581214   1582796   1585465   1587724   1587899  
  9730.000000   1584783   1578269   1569373   1559851   1551575  
  9720.000000   1545847   1543183   1543253   1545303   1548447  
  9710.000000   1551979   1555412   1558392   1560599   1561714  
  9700.000000   1561536   1560110   1557846   1555389   1553464  
  9690.000000   1552511   1552597   1553352   1554222   1554730  
  9680.000000   1554668   1554163   1553512   1552994   1552683  
  9670.000000   1552428   1551981   1551163   1550035   1548865  
  9660.000000   1548036   1547815   1548229   1549060   1549949  
  9650.000000   1550629   1551027   1551334   1551872   1552921  
  9640.000000   1554575   1556659   1558821   1560638   1561762  
  9630.000000   1561993   1561274   1559681   1557366   1554614  
  9620.000000   1551813   1549483   1548134   1548123   1549470  
  9610.000000   1551750   1554184   1555814   1555847   1553884  
  9600.000000   1550084   1545077   1539789   1535133   1531816  
  9590.000000   1530206   1530372   1532154   1535251   1539252  
  9580.000000   1543639   1547834   1551268   1553550   1554574  
  9570.000000   1554593   1554134   1553809   1554106   1555177  
  9560.000000   1556817   1558558   1559865   1560367   1559920  
  9550.000000   1558644   1556750   1554478   1551978   1549367  
  9540.000000   1546760   1544325   1542251   1540672   1539558  
  9530.000000   1538684   1537678   1536203   1534134   1531694  
  9520.000000   1529405   1527899   1527636   1528688   1530665  
  9510.000000   1532881   1534600   1535349   1535048   1534005  
  9500.000000   1532727   1531686   1531151   1531080   1531206  
  9490.000000   1531123   1530462   1528954   1526494   1523120  
  9480.000000   1519033   1514591   1510305   1506789   1504614  
  9470.000000   1504144   1505353   1507797   1510713   1513300  
  9460.000000   1514983   1515646   1515608   1515465   1515786  
  9450.000000   1516854   1518548   1520379   1521732   1522072  
  9440.000000   1521191   1519205   1516500   1513504   1510533  
  9430.000000   1507737   1505114   1502658   1500388   1498419  
  9420.000000   1496894   1495954   1495685   1496084   1497077  
  9410.000000   1498482   1500060   1501464   1502333   1502298  
  9400.000000   1501140   1498877   1495856   1492762   1490439  
  9390.000000   1489700   1490996   1494298   1499041   1504332  
  9380.000000   1509177   1512758   1514557   1514405   1512419  
  9370.000000   1508899   1504287   1499082   1493876   1489240  
  9360.000000   1485691   1483510   1482651   1482705   1482981  
  9350.000000   1482823   1481799   1480000   1477924   1476366  
  9340.000000   1476065   1477448   1480506   1484727   1489329  
  9330.000000   1493367   1496074   1496911   1495710   1492588  
  9320.000000   1487950   1482445   1476915   1472342   1469610  
  9310.000000   1469315   1471514   1475713   1480959   1486122  
  9300.000000   1490186   1492506   1492918   1491666   1489241  
  9290.000000   1486137   1482773   1479437   1476418   1474062  
  9280.000000   1472772   1472899   1474523   1477403   1480891  
  9270.000000   1484202   1486572   1487577   1487212   1485851  
  9260.000000   1484060   1482275   1480689   1479157   1477398  
  9250.000000   1475116   1472209   1468816   1465300   1462116  
  9240.000000   1459646   1458132   1457641   1458134   1459479  
  9230.000000   1461486   1463882   1466319   1468440   1469942  
  9220.000000   1470725   1470914   1470858   1470963   1471516  
  9210.000000   1472549   1473811   1474899   1475443   1475327  
  9200.000000   1474730   1474070   1473738   1473922   1474451  
  9190.000000   1474847   1474528   1473040   1470308   1466638  
  9180.000000   1462626   1458894   1455876   1453710   1452269  
  9170.000000   1451342   1450791   1450674   1451207   1452638  
  9160.000000   1455066   1458308   1461900   1465234   1467769  
  9150.000000   1469155   1469341   1468535   1467163   1465683  
  9140.000000   1464475   1463773   1463649   1464059   1464832  
  9130.000000   1465736   1466495   1466880   1466731   1466023  
  9120.000000   1464843   1463375   1461837   1460395   1459132  
  9110.000000   1458026   1457026   1456100   1455274   1454653  
  9100.000000   1454329   1454398   1454851   1455644   1456672  
  9090.000000   1457849   1459119   1460442   1461752   1462870  
  9080.000000   1463516   1463337   1462072   1459618   1456151  
  9070.000000   1452094   1448055   1444624   1442206   1440933  
  9060.000000   1440670   1441106   1441879   1442712   1443497  
  9050.000000   1444263   1445098   1446065   1447157   1448295  
  9040.000000   1449353   1450256   1451028   1451818   1452837  
  9030.000000   1454293   1456290   1458758   1461401   1463745  
  9020.000000   1465238   1465373   1463842   1460619   1456030  
  9010.000000   1450669   1445278   1440567   1437050   1434962  
  9000.000000   1434220   1434530   1435493   1436762   1438095  
  8990.000000   1439398   1440666   1441915   1443142   1444288  
  8980.000000   1445314   1446183   1446939   1447654   1448425  
  8970.000000   1449309   1450285   1451270   1452156   1452861  
  8960.000000   1453374   1453730   1454007   1454201   1454233  
  8950.000000   1453908   1453013   1451397   1449079   1446326  
  8940.000000   1443631   1441639   1440946   1442006   1444929  
  8930.000000   1449491   1455088   1460934   1466219   1470279  
  8920.000000   1472726   1473485   1472814   1471130   1468898  
  8910.000000   1466461   1464019   1461625   1459235   1456856  
  8900.000000   1454574   1452657   1451402   1451116   1451911  
  8890.000000   1453667   1455986   1458272   1459915   1460387  
  8880.000000   1459449   1457124   1453777   1449968   1446390  
  8870.000000   1443680   1442322   1442571   1444422   1447642  
  8860.000000   1451792   1456337   1460739   1464563   1467534  
  8850.000000   1469541   1470642   1470976   1470759   1470183  
  8840.000000   1469441   1468691   1468092   1467797   1467925  
  8830.000000   1468562   1469709   1471290   1473140   1475042  
  8820.000000   1476764   1478088   1478846   1478945   1478394  
  8810.000000   1477343   1476071   1475001   1474608   1475336  
  8800.000000   1477434   1480878   1485319   1490126   1494524  
  8790.000000   1497773   1499372   1499156   1497330   1494378  
  8780.000000   1490961   1487748   1485316   1484042   1484080  
  8770.000000   1485364   1487641   1490531   1493569   1496328  
  8760.000000   1498480   1499898   1500657   1501007   1501285  
  8750.000000   1501782   1502682   1503982   1505570   1507260  
  8740.000000   1508912   1510448   1511864   1513173   1514353  
  8730.000000   1515314   1515939   1516135   1515939   1515533  
  8720.000000   1515224   1515341   1516116   1517619   1519716  
  8710.000000   1522174   1524725   1527210   1529591   1531938  
  8700.000000   1534335   1536778   1539152   1541217   1542719  
  8690.000000   1543460   1543414   1542710   1541623   1540471  
  8680.000000   1539552   1539092   1539213   1539960   1541289  
  8670.000000   1543114   1545285   1547625   1549926   1552016  
  8660.000000   1553799   1555292   1556621   1557951   1559439  
  8650.000000   1561125   1562943   1564698   1566164   1567144  
  8640.000000   1567558   1567468   1567061   1566608   1566389  
  8630.000000   1566637   1567491   1568982   1571026   1573441  
  8620.000000   1575977   1578351   1580340   1581819   1582827  
  8610.000000   1583530   1584175   1584999   1586144   1587627  
  8600.000000   1589360   1591233   1593196   1595304   1597683  
  8590.000000   1600446   1603569   1606824   1609785   1611961  
  8580.000000   1612987   1612783   1611627   1610084   1608830  
  8570.000000   1608421   1609106   1610766   1612980   1615218  
  8560.000000   1617028   1618193   1618754   1618950   1619071  
  8550.000000   1619353   1619899   1620697   1621689   1622812  
  8540.000000   1624055   1625424   1626919   1628490   1630024  
  8530.000000   1631394   1632496   1633321   1633954   1634546  
  8520.000000   1635250   1636146   1637220   1638356   1639399  
  8510.000000   1640206   1640716   1640946   1640993   1640987  
  8500.000000   1641064   1641323   1641819   1642569   1643552  
  8490.000000   1644738   1646064   1647491   1648986   1650563  
  8480.000000   1652265   1654141   1656219   1658432   1660621  
  8470.000000   1662494   1663742   1664084   1663422   1661863  
  8460.000000   1659751   1657587   1655928   1655240   1655772  
  8450.000000   1657538   1660317   1663752   1667421   1670960  
  8440.000000   1674122   1676797   1678988   1680766   1682250  
  8430.000000   1683542   1684727   1685837   1686884   1687867  
  8420.000000   1688789   1689679   1690569   1691518   1692548  
  8410.000000   1693654   1694737   1695657   1696242   1696354  
  8400.000000   1695926   1695012   1693772   1692459   1691324  
  8390.000000   1690579   1690317   1690529   1691096   1691862  
  8380.000000   1692664   1693391   1693991   1694461   1694823  
  8370.000000   1695084   1695233   1695230   1695038   1694634  
  8360.000000   1694055   1693390   1692793   1692427   1692430  
  8350.000000   1692871   1693714   1694831   1696010   1697035  
  8340.000000   1697737   1698054   1698046   1697870   1697728  
  8330.000000   1697787   1698120   1698667   1699263   1699693  
  8320.000000   1699779   1699440   1698730   1697821   1696944  
  8310.000000   1696326   1696099   1696294   1696827   1697563  
  8300.000000   1698349   1699094   1699759   1700385   1701025  
  8290.000000   1701725   1702471   1703187   1703750   1704008  
  8280.000000   1703839   1703168   1702006   1700447   1698648  
  8270.000000   1696803   1695101   1693716   1692768   1692324  
  8260.000000   1692368   1692825   1693555   1694385   1695120  
  8250.000000   1695594   1695697   1695417   1694842   1694132  
  8240.000000   1693481   1693044   1692892   1692983   1693172  
  8230.000000   1693267   1693087   1692553   1691695   1690652  
  8220.000000   1689592   1688658   1687890   1687221   1686499  
  8210.000000   1685560   1684304   1682746   1681019   1679326  
  8200.000000   1677856   1676729   1675942   1675408   1674977  
  8190.000000   1674536   1674031   1673502   1673036   1672721  
  8180.000000   1672582   1672560   1672518   1672280   1671689  
  8170.000000   1670638   1669101   1667123   1664810   1662308  
  8160.000000   1659780   1657399   1655322   1653688   1652565  
  8150.000000   1651954   1651746   1651765   1651782   1651602  
  8140.000000   1651110   1650301   1649274   1648164   1647096  
  8130.000000   1646103   1645128   1644021   1642626   1640835  
  8120.000000   1638663   1636250   1633835   1631681   1629984  
  8110.000000   1628822   1628118   1627697   1627332   1626841  
  8100.000000   1626134   1625236   1624262   1623361   1622649  
  8090.000000   1622154   1621810   1621472   1620990   1620244  
  8080.000000   1619208   1617937   1616554   1615194   1613955  
  8070.000000   1612881   1611957   1611133   1610366   1609640  
  8060.000000   1608975   1608408   1607961   1607617   1607310  
  8050.000000   1606947   1606445   1605763   1604930   1604023  
  8040.000000   1603148   1602380   1601740   1601180   1600613  
  8030.000000   1599949   1599144   1598223   1597276   1596423  
  8020.000000   1595768   1595362   1595183   1595152   1595164  
  8010.000000   1595119   1594951   1594636   1594186   1593633  
  8000.000000   1593016   1592376   1591748   1591170   1590666  
  7990.000000   1590252   1589911   1589598   1589244   1588770  
  7980.000000   1588115   1587249   1586181   1584955   1583628  
  7970.000000   1582257   1580891   1579572   1578347   1577270  
  7960.000000   1576401   1575784   1575425   1575274   1575227  
  7950.000000   1575153   1574941   1574532   1573965   1573345  
  7940.000000   1572835   1572569   1572625   1572975   1573507  
  7930.000000   1574058   1574478   1574684   1574687   1574589  
  7920.000000   1574539   1574683   1575104   1575794   1576655  
  7910.000000   1577524   1578225   1578612   1578608   1578217  
  7900.000000   1577514   1576621   1575670   1574781   1574034  
  7890.000000   1573470   1573087   1572854   1572716   1572617  
  7880.000000   1572494   1572305   1572023   1571656   1571234  
  7870.000000   1570814   1570452   1570188   1570027   1569935  
  7860.000000   1569847   1569692   1569425   1569039   1568572  
  7850.000000   1568091   1567654   1567287   1566965   1566627  
  7840.000000   1566201   1565646   1564978   1564269   1563623  
  7830.000000   1563139   1562861   1562770   1562786   1562809  
  7820.000000   1562754   1562580   1562300   1561952   1561574  
  7810.000000   1561182   1560754   1560264   1559698   1559088  
  7800.000000   1558502   1558031   1557735   1557613   1557582  
  7790.000000   1557498   1557200   1556564   1555551   1554214  
  7780.000000   1552679   1551107   1549637   1548371   1547350  
  7770.000000   1546587   1546073   1545803   1545764   1545920  
  7760.000000   1546191   1546449   1546527   1546256   1545519  
  7750.000000   1544277   1542613   1540687   1538731   1536963  
  7740.000000   1535548   1534557   1533958   1533645   1533476  
  7730.000000   1533333   1533151   1532950   1532800   1532800  
  7720.000000   1533012   1533429   1533955   1534418   1534633  
  7710.000000   1534444   1533794   1532726   1531386   1529959  
  7700.000000   1528623   1527494   1526611   1525946   1525433  
  7690.000000   1525014   1524653   1524350   1524115   1523950  
  7680.000000   1523832   1523711   1523541   1523283   1522946  
  7670.000000   1522556   1522167   1521810   1521497   1521211  
  7660.000000   1520931   1520666   1520466   1520429   1520660  
  7650.000000   1521234   1522146   1523298   1524509   1525560  
  7640.000000   1526253   1526466   1526189   1525514   1524614  
  7630.000000   1523680   1522878   1522298   1521954   1521784  
  7620.000000   1521689   1521566   1521343   1521001   1520575  
  7610.000000   1520148   1519822   1519692   1519818   1520205  
  7600.000000   1520817   1521574   1522397   1523204   1523940  
  7590.000000   1524567   1525067   1525431   1525669   1525798  
  7580.000000   1525868   1525945   1526121   1526471   1527049  
  7570.000000   1527846   1528793   1529774   1530664   1531375  
  7560.000000   1531885   1532254   1532600   1533062   1533751  
  7550.000000   1534707   1535892   1537184   1538440   1539514  
  7540.000000   1540323   1540848   1541150   1541335   1541540  
  7530.000000   1541892   1542494   1543402   1544635   1546173  
  7520.000000   1547972   1549972   1552098   1554266   1556384  
  7510.000000   1558364   1560136   1561654   1562924   1563980  
  7500.000000   1564909   1565795   1566725   1567735   1568835  
  7490.000000   1569991   1571167   1572337   1573514   1574740  
  7480.000000   1576082   1577598   1579322   1581246   1583339  
  7470.000000   1585550   1587850   1590213   1592641   1595122  
  7460.000000   1597637   1600127   1602532   1604792   1606900  
  7450.000000   1608889   1610847   1612873   1615060   1617453  
  7440.000000   1620049   1622802   1625654   1628564   1631507  
  7430.000000   1634482   1637479   1640479   1643440   1646309  
  7420.000000   1649047   1651635   1654082   1656402   1658603  
  7410.000000   1660660   1662534   1664191   1665646   1666989  
  7400.000000   1668377   1670005   1672028   1674517   1677409  
  7390.000000   1680533   1683656   1686564   1689126   1691328  
  7380.000000   1693263   1695082   1696935   1698922   1701078  
  7370.000000   1703391   1705824   1708353   1710967   1713663  
  7360.000000   1716425   1719214   1721957   1724572   1726989  
  7350.000000   1729170   1731121   1732885   1734528   1736118  
  7340.000000   1737716   1739366   1741106   1742966   1744959  
  7330.000000   1747087   1749320   1751611   1753892   1756113  
  7320.000000   1758235   1760266   1762230   1764167   1766104  
  7310.000000   1768047   1769975   1771851   1773631   1775281  
  7300.000000   1776774   1778093   1779225   1780168   1780935  
  7290.000000   1781572   1782149   1782762   1783497   1784418  
  7280.000000   1785525   1786774   1788071   1789326   1790469  
  7270.000000   1791487   1792415   1793316   1794255   1795258  
  7260.000000   1796314   1797363   1798344   1799196   1799910  
  7250.000000   1800504   1801043   1801597   1802248   1803052  
  7240.000000   1804066   1805317   1806833   1808613   1810659  
  7230.000000   1812936   1815408   1818009   1820691   1823393  
  7220.000000   1826093   1828757   1831395   1833999   1836598  
  7210.000000   1839206   1841870   1844617   1847493   1850516  
  7200.000000   1853696   1857014   1860447   1863961   1867541  
  7190.000000   1871174   1874870   1878624   1882445   1886302  
  7180.000000   1890187   1894062   1897930   1901786   1905665  
  7170.000000   1909582   1913575   1917654   1921848   1926170  
  7160.000000   1930665   1935370   1940344   1945609   1951176  
  7150.000000   1956991   1962988   1969053   1975096   1981019  
  7140.000000   1986787   1992374   1997811   2003124   2008385  
  7130.000000   2013661   2019064   2024697   2030686   2037103  
  7120.000000   2043985   2051274   2058862   2066577   2074271  
  7110.000000   2081814   2089169   2096347   2103436   2110527  
  7100.000000   2117734   2125121   2132738   2140577   2148618  
  7090.000000   2156800   2165062   2173331   2181553   2189686  
  7080.000000   2197729   2205695   2213627   2221563   2229536  
  7070.000000   2237553   2245608   2253685   2261777   2269882  
  7060.000000   2278013   2286176   2294366   2302556   2310702  
  7050.000000   2318759   2326696   2334505   2342204   2349825  
  7040.000000   2357398   2364946   2372474   2379987   2387488  
  7030.000000   2395001   2402540   2410124   2417729   2425320  
  7020.000000   2432820   2440167   2447304   2454226   2460951  
  7010.000000   2467529   2473985   2480336   2486545   2492573  
  7000.000000   2498368   2503931   2509282   2514506   2519678  
  6990.000000   2524889   2530163   2535506   2540851   2546131  
  6980.000000   2551250   2556150   2560774   2565119   2569183  
  6970.000000   2573011   2576639   2580129   2583518   2586851  
  6960.000000   2590133   2593369   2596531   2599608   2602568  
  6950.000000   2605418   2608148   2610780   2613316   2615775  
  6940.000000   2618153   2620457   2622678   2624815   2626852  
  6930.000000   2628783   2630595   2632299   2633914   2635493  
  6920.000000   2637090   2638769   2640556   2642446   2644386  
  6910.000000   2646301   2648111   2649767   2651256   2652610  
  6900.000000   2653876   2655103   2656313   2657506   2658661  
  6890.000000   2659764   2660813   2661833   2662851   2663890  
  6880.000000   2664944   2665992   2666994   2667929   2668795  
  6870.000000   2669635   2670500   2671440   2672472   2673571  
  6860.000000   2674680   2675727   2676654   2677433   2678069  
  6850.000000   2678592   2679035   2679432   2679803   2680171  
  6840.000000   2680553   2680980   2681470   2682040   2682678  
  6830.000000   2683362   2684051   2684714   2685332   2685904  
  6820.000000   2686433   2686919   2687338   2687655   2687836  
  6810.000000   2687870   2687784   2687645   2687531   2687520  
  6800.000000   2687640   2687882   2688188   2688498   2688758  
  6790.000000   2688954   2689098   2689217   2689317   2689381  
  6780.000000   2689361   2689199   2688855   2688328   2687656  
  6770.000000   2686912   2686170   2685492   2684903   2684408  
  6760.000000   2683985   2683615   2683270   2682930   2682560  
  6750.000000   2682119   2681559   2680841   2679951   2678911  
  6740.000000   2677772   2676608   2675487   2674460   2673542  
  6730.000000   2672727   2671983   2671277   2670576   2669854  
  6720.000000   2669086   2668254   2667341   2666345   2665277  
  6710.000000   2664166   2663051   2661969   2660940   2659966  
  6700.000000   2659021   2658077   2657097   2656069   2654985  
  6690.000000   2653860   2652703   2651526   2650326   2649101  
  6680.000000   2647840   2646542   2645203   2643825   2642401  
  6670.000000   2640928   2639399   2637817   2636187   2634534  
  6660.000000   2632880   2631253   2629664   2628120   2626609  
  6650.000000   2625120   2623631   2622125   2620578   2618971  
  6640.000000   2617280   2615489   2613592   2611604   2609549  
  6630.000000   2607463   2605377   2603310   2601263   2599231  
  6620.000000   2597202   2595176   2593159   2591169   2589214  
  6610.000000   2587292   2585387   2583471   2581528   2579558  
  6600.000000   2577583   2575641   2573766   2571974   2570254  
  6590.000000   2568576   2566906   2565224   2563533   2561854  
  6580.000000   2560213   2558618   2557058   2555494   2553890  
  6570.000000   2552215   2550470   2548681   2546885   2545116  
  6560.000000   2543393   2541712   2540067   2538454   2536886  
  6550.000000   2535386   2533975   2532647   2531370   2530082  
  6540.000000   2528723   2527257   2525695   2524089   2522518  
  6530.000000   2521051   2519723   2518522   2517402   2516307  
  6520.000000   2515198   2514070   2512948   2511865   2510844  
  6510.000000   2509879   2508938   2507978   2506965   2505891  
  6500.000000   2504780   2503669   2502598   2501591   2500649  
  6490.000000   2499756   2498888   2498026   2497154   2496262  
  6480.000000   2495341   2494382   2493377   2492328   2491250  
  6470.000000   2490163   2489090   2488037   2486992   2485923  
  6460.000000   2484794   2483583   2482300   2480988   2479711  
  6450.000000   2478533   2477492   2476587   2475782   2475020  
  6440.000000   2474245   2473417   2472525   2471579   2470602  
  6430.000000   2469613   2468630   2467663   2466724   2465826  
  6420.000000   2464986   2464214   2463511   2462864   2462251  
  6410.000000   2461651   2461045   2460428   2459798   2459156  
  6400.000000   2458498   2457813   2457090   2456327   2455537  
  6390.000000   2454745   2453983   2453267   2452595   2451943  
  6380.000000   2451268   2450532   2449714   2448819   2447875  
  6370.000000   2446927   2446012   2445159   2444373   2443654  
  6360.000000   2442991   2442377   2441801   2441250   2440699  
  6350.000000   2440113   2439457   2438703   2437844   2436895  
  6340.000000   2435890   2434866   2433853   2432863   2431890  
  6330.000000   2430925   2429950   2428967   2427980   2427007  
  6320.000000   2426055   2425134   2424233   2423345   2422448  
  6310.000000   2421527   2420558   2419523   2418391   2417142  
  6300.000000   2415753   2414224   2412563   2410801   2408962  
  6290.000000   2407077   2405152   2403197   2401202   2399179  
  6280.000000   2397132   2395087   2393055   2391044   2389033  
  6270.000000   2386995   2384890   2382696   2380407   2378045  
  6260.000000   2375642   2373237   2370847   2368483   2366131  
  6250.000000   2363783   2361429   2359076   2356726   2354382  
  6240.000000   2352026   2349634   2347170   2344612   2341956  
  6230.000000   2339223   2336454   2333693   2330972   2328304  
  6220.000000   2325681   2323080   2320475   2317848   2315191  
  6210.000000   2312510   2309817   2307132   2304482   2301892  
  6200.000000   2299387   2296980   2294669   2292429   2290220  
  6190.000000   2287992   2285711   2283367   2280983   2278604  
  6180.000000   2276284   2274058   2271932   2269879   2267852  
  6170.000000   2265801   2263697   2261536   2259343   2257153  
  6160.000000   2255002   2252914   2250900   2248958   2247086  
  6150.000000   2245282   2243543   2241861   2240216   2238575  
  6140.000000   2236903   2235164   2233344   2231443   2229486  
  6130.000000   2227506   2225544   2223630   2221792   2220045  
  6120.000000   2218402   2216863   2215428   2214080   2212797  
  6110.000000   2211547   2210307   2209057   2207802   2206554  
  6100.000000   2205343   2204191   2203124   2202151   2201288  
  6090.000000   2200534   2199901   2199383   2198975   2198646  
  6080.000000   2198367   2198088   2197781   2197423   2197031  
  6070.000000   2196624   2196243   2195908   2195638   2195422  
  6060.000000   2195259   2195140   2195087   2195123   2195295  
  6050.000000   2195627   2196141   2196822   2197655   2198603  
  6040.000000   2199652   2200786   2202017   2203346   2204784  
  6030.000000   2206317   2207937   2209620   2211359   2213139  
  6020.000000   2214965   2216825   2218711   2220598   2222466  
  6010.000000   2224293   2226080   2227835   2229587   2231362  
  6000.000000   2233184   2235057   2236976   2238919   2240868  
  5990.000000   2242801   2244708   2246575   2248404   2250193  
  5980.000000   2251961   2253731   2255547   2257454   2259502  
  5970.000000   2261719   2264115   2266668   2269341   2272082  
  5960.000000   2274847   2277595   2280305   2282952   2285528  
  5950.000000   2288021   2290434   2292773   2295069   2297356  
  5940.000000   2299681   2302077   2304573   2307176   2309881  
  5930.000000   2312679   2315558   2318510   2321527   2324591  
  5920.000000   2327675   2330741   2333753   2336678   2339510  
  5910.000000   2342260   2344955   2347624   2350293   2352969  
  5900.000000   2355650   2358330   2361001   2363670   2366346  
  5890.000000   2369045   2371770   2374518   2377274   2380022  
  5880.000000   2382743   2385424   2388054   2390618   2393096  
  5870.000000   2395466   2397709   2399815   2401802   2403699  
  5860.000000   2405555   2407412   2409304   2411249   2413257  
  5850.000000   2415336   2417505   2419793   2422234   2424854  
  5840.000000   2427652   2430602   2433651   2436738   2439809  
  5830.000000   2442831   2445793   2448704   2451574   2454406  
  5820.000000   2457188   2459900   2462512   2465009   2467370  
  5810.000000   2469598   2471681   2473629   2475426   2477088  
  5800.000000   2478606   2480013   2481308   2482524   2483641  
  5790.000000   2484659   2485527   2486218   2486668   2486854  
  5780.000000   2486726   2486273   2485467   2484319   2482839  
  5770.000000   2481084   2479125   2477065   2474996   2473006  
  5760.000000   2471132   2469390   2467760   2466223   2464771  
  5750.000000   2463423   2462215   2461186   2460362   2459733  
  5740.000000   2459269   2458909   2458605   2458311   2458019  
  5730.000000   2457723   2457450   2457207   2457017   2456880  
  5720.000000   2456809   2456806   2456886   2457050   2457298  
  5710.000000   2457613   2457978   2458369   2458780   2459211  
  5700.000000   2459678   2460196   2460770   2461387   2462018  
  5690.000000   2462630   2463189   2463687   2464126   2464528  
  5680.000000   2464909   2465285   2465644   2465969   2466220  
  5670.000000   2466365   2466366   2466202   2465856   2465330  
  5660.000000   2464633   2463798   2462863   2461881   2460894  
  5650.000000   2459939   2459025   2458148   2457287   2456426  
  5640.000000   2455552   2454676   2453807   2452965   2452159  
  5630.000000   2451389   2450650   2449937   2449252   2448601  
  5620.000000   2447993   2447427   2446889   2446350   2445780  
  5610.000000   2445157   2444485   2443790   2443112   2442490  
  5600.000000   2441944   2441463   2441011   2440540   2440003  
  5590.000000   2439377   2438656   2437855   2436993   2436089  
  5580.000000   2435148   2434175   2433170   2432137   2431079  
  5570.000000   2429999   2428891   2427745   2426549   2425296  
  5560.000000   2423994   2422665   2421336   2420037   2418778  
  5550.000000   2417558   2416363   2415179   2414000   2412838  
  5540.000000   2411711   2410636   2409616   2408639   2407676  
  5530.000000   2406700   2405696   2404665   2403628   2402610  
  5520.000000   2401629   2400687   2399772   2398861   2397936  
  5510.000000   2396985   2396006   2395003   2393973   2392913  
  5500.000000   2391813   2390673   2389496   2388309   2387130  
  5490.000000   2385979   2384846   2383705   2382511   2381224  
  5480.000000   2379818   2378299   2376691   2375039   2373372  
  5470.000000   2371711   2370049   2368376   2366668   2364920  
  5460.000000   2363122   2361274   2359361   2357371   2355282  
  5450.000000   2353093   2350816   2348495   2346186   2343942  
  5440.000000   2341795   2339743   2337760   2335805   2333850  
  5430.000000   2331880   2329906   2327939   2325997   2324076  
  5420.000000   2322182   2320311   2318501   2316794   2315263  
  5410.000000   2313949   2312883   2312035   2311365   2310803  
  5400.000000   2310317   2309882   2309527   2309270   2309154  
  5390.000000   2309179   2309354   2309651   2310076   2310618  
  5380.000000   2311316   2312172   2313214   2314410   2315750  
  5370.000000   2317176   2318687   2320257   2321936   2323739  
  5360.000000   2325742   2327954   2330440   2333193   2336280  
  5350.000000   2339699   2343530   2347765   2352463   2357575  
  5340.000000   2363134   2369075   2375457   2382253   2389560  
  5330.000000   2397358   2405727   2414598   2424007   2433859  
  5320.000000   2444209   2455009   2466386   2478339   2491026  
  5310.000000   2504433   2518678   2533693   2549556   2566184  
  5300.000000   2583662   2601939   2621135   2641233   2662359  
  5290.000000   2684478   2707652   2731761   2756759   2782455  
  5280.000000   2808784   2835617   2862997   2890935   2919558  
  5270.000000   2948898   2978963   3009605   3040610   3071704  
  5260.000000   3102651   3133323   3163686   3193821   3223773  
  5250.000000   3253582   3283109   3312205   3340566   3368041  
  5240.000000   3394438   3419830   3444235   3467880   3490815  
  5230.000000   3513200   3534936   3556022   3576233   3595527  
  5220.000000   3613728   3630913   3647044   3662318   3676757  
  5210.000000   3690546   3703630   3716071   3727699   3738507  
  5200.000000   3748333   3757248   3765199   3772352   3778707  
  5190.000000   3784412   3789411   3793778   3797413   3800378  
  5180.000000   3802609   3804216   3805172   3805588   3805417  
  5170.000000   3804724   3803439   3801624   3799241   3796382  
  5160.000000   3793041   3789309   3785162   3780656   3775751  
  5150.000000   3770503   3764903   3759035   3752916   3746621  
  5140.000000   3740144   3733519   3726711   3719740   3712584  
  5130.000000   3705282   3697833   3690277   3682612   3674862  
  5120.000000   3667023   3659126   3651188   3643255   3635350  
  5110.000000   3627500   3619694   3611918   3604138   3596334  
  5100.000000   3588492   3580623   3572749   3564901   3557099  
  5090.000000   3549363   3541695   3534095   3526558   3519079  
  5080.000000   3511649   3504258   3496887   3489518   3482133  
  5070.000000   3474724   3467288   3459836   3452376   3444919  
  5060.000000   3437463   3430004   3422530   3415037   3407521  
  5050.000000   3399992   3392455   3384920   3377388   3369855  
  5040.000000   3362319   3354777   3347245   3339738   3332290  
  5030.000000   3324924   3317666   3310521   3303497   3296582  
  5020.000000   3289782   3283090   3276525   3270091   3263821  
  5010.000000   3257714   3251798   3246062   3240525   3235166  
  5000.000000   3230004   3225014   3220216   3215584   3211148  
  4990.000000   3206888   3202849   3199027   3195480   3192209  
  4980.000000   3189271   3186654   3184406   3182504   3180990  
  4970.000000   3179839   3179096   3178731   3178778   3179190  
  4960.000000   3179986   3181107   3182577   3184349   3186470  
  4950.000000   3188917   3191749   3194942   3198544   3202511  
  4940.000000   3206871   3211568   3216624   3221988   3227681  
  4930.000000   3233658   3239940   3246483   3253313   3260393  
  4920.000000   3267756   3275376   3283285   3291457   3299911  
  4910.000000   3308615   3317576   3326760   3336170   3345772  
  4900.000000   3355559   3365495   3375560   3385717   3395944  
  4890.000000   3406216   3416512   3426815   3437098   3447335  
  4880.000000   3457481   3467505   3477354   3487002   3496404  
  4870.000000   3505551   3514406   3522972   3531220   3539164  
  4860.000000   3546787   3554120   3561157   3567940   3574464  
  4850.000000   3580770   3586849   3592741   3598438   3603980  
  4840.000000   3609359   3614612   3619728   3624733   3629616  
  4830.000000   3634404   3639083   3643679   3648169   3652557  
  4820.000000   3656805   3660898   3664798   3668507   3672017  
  4810.000000   3675360   3678552   3681628   3684590   3687452  
  4800.000000   3690195   3692824   3695328   3697733   3700050  
  4790.000000   3702318   3704544   3706746   3708905   3711014  
  4780.000000   3713040   3714976   3716800   3718518   3720116  
  4770.000000   3721604   3722968   3724216   3725334   3726337  
  4760.000000   3727212   3727978   3728619   3729145   3729532  
  4750.000000   3729787   3729889   3729855   3729671   3729356  
  4740.000000   3728896   3728297   3727533   3726604   3725486  
  4730.000000   3724190   3722708   3721067   3719276   3717364  
  4720.000000   3715338   3713223   3711025   3708766   3706456  
  4710.000000   3704116   3701755   3699389   3697025   3694679  
  4700.000000   3692361   3690096   3687906   3685820   3683856  
  4690.000000   3682023   3680314   3678708   3677170   3675661  
  4680.000000   3674142   3672576   3670940   3669214   3667394  
  4670.000000   3665473   3663465   3661379   3659245   3657085  
  4660.000000   3654942   3652847   3650844   3648963   3647241  
  4650.000000   3645700   3644364   3643237   3642324   3641607  
  4640.000000   3641071   3640681   3640412   3640230   3640116  
  4630.000000   3640049   3640018   3640008   3640011   3640010  
  4620.000000   3639991   3639930   3639811   3639614   3639327  
  4610.000000   3638943   3638465   3637907   3637290   3636645  
  4600.000000   3635998   3635378   3634799   3634266   3633769  
  4590.000000   3633297   3632828   3632349   3631844   3631308  
  4580.000000   3630731   3630111   3629437   3628709   3627923  
  4570.000000   3627088   3626214   3625317   3624408   3623494  
  4560.000000   3622566   3621614   3620618   3619566   3618450  
  4550.000000   3617271   3616041   3614768   3613467   3612140  
  4540.000000   3610800   3609448   3608108   3606794   3605547  
  4530.000000   3604388   3603364   3602484   3601787   3601265  
  4520.000000   3600958   3600850   3600988   3601356   3602011  
  4510.000000   3602939   3604212   3605824   3607871   3610359  
  4500.000000   3613403   3617009   3621285   3626216   3631886  
  4490.000000   3638252   3645379   3653210   3661800   3671090  
  4480.000000   3681135   3691877   3703365   3715543   3728442  
  4470.000000   3741984   3756158   3770848   3786000   3801477  
  4460.000000   3817214   3833098   3849090   3865118   3881160  
  4450.000000   3897167   3913105   3928931   3944606   3960113  
  4440.000000   3975429   3990573   4005533   4020343   4034971  
  4430.000000   4049442   4063691   4077740   4091507   4105012  
  4420.000000   4118158   4130948   4143250   4155042   4166164  
  4410.000000   4176581   4186140   4194825   4202520   4209250  
  4400.000000   4214946   4219675   4223418   4226277   4228281  
  4390.000000   4229559   4230176   4230278   4229952   4229345  
  4380.000000   4228554   4227721   4226951   4226375   4226099  
  4370.000000   4226232   4226859   4228038   4229807   4232163  
  4360.000000   4235097   4238562   4242523   4246915   4251689  
  4350.000000   4256777   4262114   4267636   4273286   4279027  
  4340.000000   4284830   4290683   4296542   4302335   4307908  
  4330.000000   4313045   4317461   4320878   4323062   4323920  
  4320.000000   4323508   4322083   4319999   4317706   4315578  
  4310.000000   4313931   4312889   4312483   4312590   4313083  
  4300.000000   4313790   4314611   4315454   4316288   4317077  
  4290.000000   4317797   4318416   4318907   4319254   4319465  
  4280.000000   4319565   4319604   4319619   4319664   4319750  
  4270.000000   4319905   4320102   4320324   4320489   4320508  
  4260.000000   4320229   4319505   4318175   4316138   4313351  
  4250.000000   4309876   4305850   4301489   4297018   4292664  
  4240.000000   4288584   4284885   4281582   4278654   4276024  
  4230.000000   4273618   4271351   4269151   4266959   4264717  
  4220.000000   4262393   4259952   4257403   4254749   4252047  
  4210.000000   4249344   4246723   4244241   4241966   4239929  
  4200.000000   4238157   4236636   4235359   4234277   4233365  
  4190.000000   4232563   4231856   4231194   4230591   4230019  
  4180.000000   4229527   4229107   4228835   4228722   4228869  
  4170.000000   4229308   4230165   4231488   4233402   4235938  
  4160.000000   4239182   4243107   4247740   4252996   4258872  
  4150.000000   4265264   4272176   4279522   4287333   4295545  
  4140.000000   4304217   4313306   4322887   4332926   4343491  
  4130.000000   4354539   4366116   4378158   4390691   4403655  
  4120.000000   4417078   4430919   4445223   4459965   4475185  
  4110.000000   4490852   4506988   4523540   4540503   4557807  
  4100.000000   4575424   4593283   4611353   4629580   4647950  
  4090.000000   4666438   4685046   4703765   4722587   4741507  
  4080.000000   4760503   4779574   4798696   4817874   4837065  
  4070.000000   4856260   4875378   4894388   4913190   4931768  
  4060.000000   4950034   4968004   4985597   5002828   5019596  
  4050.000000   5035909   5051658   5066882   5081489   5095542  
  4040.000000   5108933   5121692   5133662   5144847   5155090  
  4030.000000   5164441   5172801   5180270   5186779   5192402  
  4020.000000   5197009   5200649   5203253   5204896   5205503  
  4010.000000   5205242   5204207   5202463   5199794   5196325  
  4000.000000   5192455  
##END= 
